Name: Tourmaline Schist 
Type:  Rocks
Class:  Metamorphic 
Subclass: Schist 
Particle Size:  0-75 Micrometer
Sample No.:   schist4.doc
Owner:  JHU
Wavelength Range:  All
Origin:  Sample No. 468, The Hunt and Salisbury Collection at the U.S. 
Geological Survey, Denver, Co.
Description: This is a very coarse-grained rock containing euhedral brown 
tourmaline poikiloblastically enclosing quartz remnants, large subhedra of 
muscovite enclosing remnants of tourmaline or much lesser quartz, and 
recrystallized quartz.  Magnetite occurs scattered throughout this rock as well.  
Modes were 35% quartz, 33% tourmaline, 30.6% muscovite and 1.4% opaques.   

Measurement:  Directional (10 Degree) Hemispherical Reflectance
First Column:  X
Second Column:  Y  
X Units:  Wavelength (micrometers)
Y Units:  Reflectance (percent)
First X Value: 14.9831	
Last X Value:  0.4
Number of X Values: 2868
Additional Information:  None

14.983	4.1488
14.940	4.0389
14.897	3.6759
14.854	3.3422
14.812	3.2718
14.770	3.2394
14.728	3.2318
14.686	3.2721
14.645	3.2036
14.603	2.9995
14.562	2.8108
14.521	2.6720
14.481	2.6099
14.441	2.4676
14.400	2.3125
14.361	2.2950
14.321	2.3677
14.281	2.4811
14.242	2.6400
14.203	2.8567
14.164	3.0897
14.126	3.2330
14.087	3.3211
14.049	3.3971
14.011	3.4682
13.973	3.5188
13.936	3.5520
13.899	3.6069
13.861	3.6503
13.824	3.6690
13.788	3.7230
13.751	3.7893
13.715	3.8430
13.679	3.8902
13.643	3.9240
13.607	3.9463
13.571	3.9655
13.536	3.9873
13.500	4.0316
13.465	4.0713
13.430	4.0960
13.396	4.1147
13.361	4.1035
13.327	4.0822
13.293	4.0756
13.259	4.0768
13.225	4.0718
13.191	4.0403
13.158	3.9885
13.124	3.9039
13.091	3.7853
13.058	3.6709
13.026	3.5731
12.993	3.5044
12.960	3.4762
12.928	3.4710
12.896	3.4831
12.864	3.5023
12.832	3.5023
12.800	3.4762
12.769	3.4009
12.737	3.2898
12.706	3.1807
12.675	3.0973
12.644	3.0627
12.614	3.0841
12.583	3.1274
12.552	3.1726
12.522	3.1928
12.492	3.1726
12.462	3.1028
12.432	2.9867
12.402	2.8534
12.373	2.7300
12.343	2.6561
12.314	2.6512
12.285	2.7220
12.256	2.8645
12.227	3.0556
12.198	3.2683
12.169	3.4895
12.141	3.7261
12.113	3.9930
12.084	4.2582
12.056	4.5080
12.028	4.7501
12.000	4.9731
11.973	5.1782
11.945	5.3776
11.918	5.5732
11.890	5.7577
11.863	5.9325
11.836	6.0973
11.809	6.2534
11.782	6.3966
11.755	6.5319
11.729	6.6699
11.702	6.8134
11.676	6.9626
11.650	7.1128
11.624	7.2634
11.598	7.4299
11.572	7.5944
11.546	7.7465
11.520	7.8909
11.495	8.0385
11.469	8.1853
11.444	8.3141
11.419	8.4328
11.394	8.5495
11.369	8.6341
11.344	8.6720
11.319	8.6627
11.294	8.6194
11.270	8.5474
11.245	8.4576
11.221	8.3613
11.197	8.2710
11.173	8.1903
11.149	8.1036
11.125	8.0143
11.101	7.9319
11.077	7.8478
11.054	7.7531
11.030	7.6456
11.007	7.5367
10.983	7.4251
10.960	7.3060
10.937	7.1874
10.914	7.0663
10.891	6.9451
10.868	6.8144
10.846	6.6803
10.823	6.5503
10.800	6.4288
10.778	6.3206
10.756	6.2200
10.733	6.1196
10.711	6.0123
10.689	5.8925
10.667	5.7613
10.645	5.6218
10.623	5.4934
10.602	5.3793
10.580	5.2737
10.558	5.1777
10.537	5.0783
10.516	4.9684
10.494	4.8540
10.473	4.7351
10.452	4.6174
10.431	4.4997
10.410	4.3917
10.389	4.3098
10.368	4.2499
10.348	4.2016
10.327	4.1694
10.306	4.1488
10.286	4.1258
10.266	4.0962
10.245	4.0739
10.225	4.0647
10.205	4.0559
10.185	4.0446
10.165	4.0375
10.145	4.0223
10.125	4.0048
10.106	3.9972
10.086	4.0083
10.066	4.0287
10.047	4.0512
10.027	4.0735
10.008	4.0877
9.9887	4.0829
9.9695	4.0758
9.9504	4.0720
9.9313	4.0803
9.9123	4.0962
9.8934	4.1185
9.8746	4.1419
9.8558	4.1670
9.8371	4.1957
9.8185	4.2272
9.7999	4.2771
9.7814	4.3572
9.7630	4.4528
9.7447	4.5582
9.7264	4.6691
9.7082	4.7780
9.6900	4.8765
9.6719	4.9575
9.6539	5.0259
9.6360	5.0842
9.6181	5.1214
9.6003	5.1517
9.5825	5.1870
9.5649	5.2284
9.5472	5.2819
9.5297	5.3435
9.5122	5.4072
9.4948	5.4742
9.4774	5.5415
9.4601	5.6130
9.4429	5.7004
9.4257	5.8072
9.4086	5.9377
9.3916	6.0802
9.3746	6.2238
9.3577	6.3538
9.3408	6.4262
9.3240	6.4269
9.3073	6.3727
9.2906	6.2737
9.2740	6.1477
9.2574	6.0210
9.2409	5.9161
9.2245	5.8437
9.2081	5.7942
9.1918	5.7856
9.1755	5.8058
9.1593	5.8278
9.1431	5.8508
9.1270	5.8863
9.1110	5.9315
9.0950	5.9744
9.0791	6.0218
9.0632	6.0833
9.0474	6.1328
9.0316	6.1527
9.0159	6.1539
9.0003	6.1572
8.9847	6.1570
8.9691	6.1328
8.9536	6.0978
8.9382	6.0767
8.9228	6.0585
8.9075	6.0393
8.8922	6.0260
8.8770	6.0296
8.8618	6.0305
8.8467	6.0220
8.8316	6.0168
8.8166	6.0258
8.8016	6.0296
8.7867	6.0286
8.7718	6.0244
8.7570	6.0099
8.7423	5.9775
8.7275	5.9318
8.7129	5.8569
8.6982	5.7293
8.6837	5.5105
8.6692	5.2092
8.6547	4.9030
8.6403	4.6826
8.6259	4.6324
8.6116	4.7773
8.5973	5.0714
8.5830	5.4416
8.5688	5.7790
8.5547	6.0049
8.5406	6.1286
8.5266	6.1889
8.5126	6.2202
8.4986	6.2287
8.4847	6.2214
8.4708	6.2185
8.4570	6.2091
8.4432	6.1818
8.4295	6.1473
8.4158	6.1283
8.4022	6.1271
8.3886	6.1241
8.3750	6.1283
8.3615	6.1501
8.3481	6.1795
8.3347	6.2138
8.3213	6.2519
8.3079	6.3055
8.2946	6.3656
8.2814	6.4250
8.2682	6.4850
8.2550	6.5401
8.2419	6.5802
8.2288	6.6017
8.2158	6.5946
8.2028	6.5465
8.1898	6.4525
8.1769	6.3190
8.1640	6.1345
8.1512	5.9038
8.1384	5.6431
8.1256	5.3722
8.1129	5.1050
8.1002	4.8514
8.0876	4.6283
8.0750	4.4308
8.0624	4.2471
8.0499	4.0647
8.0374	3.8916
8.0250	3.7391
8.0126	3.6060
8.0002	3.4904
7.9879	3.3905
7.9756	3.2903
7.9634	3.1864
7.9512	3.0684
7.9390	2.9510
7.9268	2.8439
7.9147	2.7459
7.9027	2.6592
7.8906	2.5839
7.8786	2.5162
7.8667	2.4539
7.8548	2.3989
7.8429	2.3518
7.8310	2.3014
7.8192	2.2509
7.8075	2.2111
7.7957	2.1877
7.7840	2.1709
7.7723	2.1517
7.7607	2.1394
7.7491	2.1264
7.7375	2.1015
7.7260	2.0747
7.7145	2.0539
7.7031	2.0406
7.6916	2.0279
7.6802	2.0070
7.6689	1.9821
7.6575	1.9509
7.6462	1.9194
7.6350	1.8959
7.6238	1.8803
7.6126	1.8687
7.6014	1.8635
7.5903	1.8578
7.5792	1.8474
7.5681	1.8396
7.5571	1.8436
7.5461	1.8597
7.5351	1.8832
7.5242	1.9049
7.5133	1.9284
7.5024	1.9537
7.4916	1.9746
7.4807	2.0009
7.4700	2.0350
7.4592	2.0712
7.4485	2.1048
7.4378	2.1271
7.4272	2.1441
7.4165	2.1643
7.4059	2.1830
7.3954	2.1965
7.3848	2.2022
7.3743	2.1998
7.3639	2.1868
7.3534	2.1581
7.3430	2.1249
7.3326	2.0949
7.3223	2.0679
7.3119	2.0435
7.3016	2.0262
7.2914	2.0198
7.2811	2.0134
7.2709	1.9997
7.2607	1.9781
7.2506	1.9528
7.2404	1.9381
7.2303	1.9336
7.2203	1.9334
7.2102	1.9400
7.2002	1.9431
7.1902	1.9386
7.1803	1.9255
7.1703	1.9196
7.1604	1.9355
7.1506	1.9604
7.1407	1.9798
7.1309	1.9975
7.1211	2.0153
7.1113	2.0378
7.1016	2.0601
7.0919	2.0885
7.0822	2.1318
7.0725	2.1896
7.0629	2.2514
7.0533	2.3108
7.0437	2.3741
7.0341	2.4487
7.0246	2.5294
7.0151	2.6230
7.0056	2.7345
6.9962	2.8735
6.9867	3.0362
6.9773	3.2152
6.9679	3.4139
6.9586	3.6290
6.9493	3.8520
6.9400	4.0837
6.9307	4.3160
6.9214	4.5360
6.9122	4.7437
6.9030	4.9464
6.8938	5.1316
6.8847	5.2976
6.8755	5.4600
6.8664	5.6327
6.8573	5.8110
6.8483	5.9841
6.8393	6.1511
6.8302	6.3182
6.8213	6.4658
6.8123	6.5861
6.8034	6.7002
6.7944	6.8156
6.7855	6.9176
6.7767	7.0043
6.7678	7.0834
6.7590	7.1582
6.7502	7.2200
6.7414	7.2740
6.7327	7.3425
6.7239	7.4244
6.7152	7.5049
6.7065	7.5935
6.6979	7.7084
6.6892	7.8464
6.6806	8.0162
6.6720	8.2054
6.6634	8.3856
6.6549	8.5408
6.6464	8.6604
6.6378	8.7539
6.6294	8.8320
6.6209	8.9007
6.6124	8.9720
6.6040	9.0284
6.5956	9.0520
6.5872	9.0610
6.5789	9.0693
6.5705	9.0930
6.5622	9.1470
6.5539	9.2427
6.5457	9.3921
6.5374	9.6176
6.5292	9.9107
6.5209	10.252
6.5128	10.620
6.5046	11.002
6.4964	11.380
6.4883	11.738
6.4802	12.069
6.4721	12.384
6.4640	12.670
6.4560	12.904
6.4480	13.085
6.4399	13.205
6.4320	13.280
6.4240	13.339
6.4160	13.387
6.4081	13.418
6.4002	13.420
6.3923	13.375
6.3844	13.292
6.3766	13.166
6.3687	13.012
6.3609	12.867
6.3531	12.736
6.3454	12.609
6.3376	12.467
6.3299	12.298
6.3221	12.112
6.3144	11.913
6.3068	11.698
6.2991	11.491
6.2914	11.294
6.2838	11.095
6.2762	10.896
6.2686	10.702
6.2611	10.517
6.2535	10.357
6.2460	10.227
6.2385	10.121
6.2310	10.038
6.2235	9.9730
6.2160	9.9306
6.2086	9.9136
6.2011	9.9420
6.1937	10.040
6.1863	10.201
6.1790	10.414
6.1716	10.685
6.1643	11.005
6.1570	11.347
6.1496	11.696
6.1424	12.033
6.1351	12.327
6.1278	12.577
6.1206	12.793
6.1134	12.983
6.1062	13.160
6.0990	13.321
6.0918	13.453
6.0847	13.554
6.0776	13.604
6.0704	13.590
6.0633	13.540
6.0563	13.483
6.0492	13.441
6.0421	13.408
6.0351	13.372
6.0281	13.350
6.0211	13.324
6.0141	13.242
6.0071	13.123
6.0002	12.996
5.9932	12.856
5.9863	12.703
5.9794	12.553
5.9725	12.411
5.9657	12.289
5.9588	12.177
5.9520	12.076
5.9451	12.026
5.9383	12.036
5.9315	12.131
5.9247	12.317
5.9180	12.545
5.9112	12.809
5.9045	13.084
5.8978	13.347
5.8911	13.632
5.8844	13.938
5.8777	14.273
5.8711	14.625
5.8644	14.965
5.8578	15.300
5.8512	15.631
5.8446	15.936
5.8380	16.221
5.8314	16.499
5.8249	16.781
5.8184	17.060
5.8118	17.325
5.8053	17.579
5.7988	17.830
5.7923	18.054
5.7859	18.232
5.7794	18.399
5.7730	18.573
5.7666	18.739
5.7602	18.894
5.7538	19.044
5.7474	19.193
5.7410	19.327
5.7347	19.430
5.7283	19.509
5.7220	19.572
5.7157	19.610
5.7094	19.624
5.7031	19.618
5.6969	19.580
5.6906	19.496
5.6844	19.366
5.6782	19.175
5.6719	18.934
5.6657	18.646
5.6596	18.298
5.6534	17.919
5.6472	17.526
5.6411	17.146
5.6349	16.803
5.6288	16.506
5.6227	16.262
5.6166	16.056
5.6106	15.873
5.6045	15.722
5.5984	15.596
5.5924	15.499
5.5864	15.440
5.5804	15.413
5.5744	15.417
5.5684	15.450
5.5624	15.516
5.5564	15.616
5.5505	15.741
5.5445	15.903
5.5386	16.101
5.5327	16.319
5.5268	16.563
5.5209	16.830
5.5151	17.113
5.5092	17.407
5.5033	17.713
5.4975	18.025
5.4917	18.329
5.4859	18.614
5.4801	18.892
5.4743	19.168
5.4685	19.434
5.4628	19.673
5.4570	19.874
5.4513	20.017
5.4455	20.074
5.4398	20.031
5.4341	19.893
5.4284	19.675
5.4228	19.370
5.4171	18.971
5.4114	18.493
5.4058	17.949
5.4002	17.345
5.3945	16.709
5.3889	16.088
5.3833	15.515
5.3778	15.011
5.3722	14.585
5.3666	14.248
5.3611	14.010
5.3555	13.861
5.3500	13.790
5.3445	13.790
5.3390	13.841
5.3335	13.920
5.3280	14.021
5.3225	14.135
5.3171	14.262
5.3116	14.406
5.3062	14.568
5.3008	14.762
5.2954	14.983
5.2900	15.234
5.2846	15.530
5.2792	15.869
5.2738	16.242
5.2684	16.656
5.2631	17.110
5.2578	17.600
5.2524	18.119
5.2471	18.676
5.2418	19.274
5.2365	19.898
5.2312	20.517
5.2260	21.105
5.2207	21.635
5.2154	22.090
5.2102	22.468
5.2050	22.767
5.1998	22.991
5.1945	23.147
5.1893	23.235
5.1842	23.267
5.1790	23.261
5.1738	23.240
5.1686	23.217
5.1635	23.185
5.1584	23.141
5.1532	23.093
5.1481	23.039
5.1430	22.978
5.1379	22.914
5.1328	22.861
5.1277	22.827
5.1227	22.810
5.1176	22.790
5.1126	22.751
5.1075	22.672
5.1025	22.550
5.0975	22.382
5.0925	22.176
5.0875	21.962
5.0825	21.760
5.0775	21.572
5.0726	21.416
5.0676	21.299
5.0627	21.225
5.0577	21.185
5.0528	21.169
5.0479	21.174
5.0430	21.183
5.0380	21.175
5.0332	21.154
5.0283	21.123
5.0234	21.088
5.0185	21.066
5.0137	21.072
5.0088	21.122
5.0040	21.215
4.9992	21.344
4.9944	21.513
4.9896	21.728
4.9848	22.003
4.9800	22.349
4.9752	22.766
4.9704	23.245
4.9657	23.754
4.9609	24.249
4.9562	24.700
4.9514	25.086
4.9467	25.409
4.9420	25.677
4.9373	25.921
4.9326	26.183
4.9279	26.484
4.9232	26.850
4.9186	27.317
4.9139	27.878
4.9092	28.514
4.9046	29.204
4.9000	29.914
4.8953	30.611
4.8907	31.256
4.8861	31.840
4.8815	32.372
4.8769	32.841
4.8723	33.259
4.8678	33.642
4.8632	33.995
4.8586	34.323
4.8541	34.622
4.8495	34.897
4.8450	35.161
4.8405	35.409
4.8360	35.639
4.8315	35.855
4.8270	36.062
4.8225	36.266
4.8180	36.459
4.8135	36.649
4.8090	36.846
4.8046	37.036
4.8001	37.229
4.7957	37.429
4.7913	37.631
4.7868	37.838
4.7824	38.049
4.7780	38.262
4.7736	38.483
4.7692	38.712
4.7648	38.945
4.7605	39.171
4.7561	39.386
4.7517	39.601
4.7474	39.819
4.7431	40.028
4.7387	40.238
4.7344	40.452
4.7301	40.655
4.7258	40.848
4.7215	41.032
4.7172	41.200
4.7129	41.340
4.7086	41.446
4.7043	41.516
4.7000	41.546
4.6958	41.554
4.6915	41.572
4.6873	41.620
4.6831	41.705
4.6788	41.838
4.6746	42.027
4.6704	42.255
4.6662	42.487
4.6620	42.713
4.6578	42.933
4.6536	43.142
4.6495	43.330
4.6453	43.499
4.6411	43.654
4.6370	43.787
4.6328	43.887
4.6287	43.958
4.6246	44.010
4.6205	44.054
4.6163	44.082
4.6122	44.089
4.6081	44.079
4.6040	44.054
4.6000	44.006
4.5959	43.942
4.5918	43.879
4.5877	43.814
4.5837	43.737
4.5796	43.647
4.5756	43.545
4.5716	43.431
4.5675	43.304
4.5635	43.162
4.5595	43.015
4.5555	42.857
4.5515	42.687
4.5475	42.506
4.5435	42.311
4.5395	42.109
4.5356	41.901
4.5316	41.682
4.5276	41.454
4.5237	41.218
4.5197	40.970
4.5158	40.715
4.5119	40.451
4.5080	40.186
4.5040	39.932
4.5001	39.701
4.4962	39.501
4.4923	39.331
4.4884	39.185
4.4846	39.053
4.4807	38.927
4.4768	38.808
4.4730	38.710
4.4691	38.638
4.4652	38.597
4.4614	38.589
4.4576	38.608
4.4537	38.638
4.4499	38.672
4.4461	38.703
4.4423	38.729
4.4385	38.749
4.4347	38.762
4.4309	38.783
4.4271	38.819
4.4233	38.864
4.4196	38.918
4.4158	38.978
4.4120	39.038
4.4083	39.095
4.4045	39.153
4.4008	39.220
4.3971	39.298
4.3934	39.394
4.3896	39.499
4.3859	39.603
4.3822	39.705
4.3785	39.804
4.3748	39.905
4.3711	40.006
4.3674	40.109
4.3638	40.216
4.3601	40.317
4.3564	40.412
4.3528	40.509
4.3491	40.606
4.3455	40.702
4.3418	40.801
4.3382	40.897
4.3346	40.983
4.3310	41.057
4.3273	41.127
4.3237	41.193
4.3201	41.254
4.3165	41.324
4.3129	41.405
4.3094	41.487
4.3058	41.571
4.3022	41.654
4.2986	41.738
4.2951	41.824
4.2915	41.914
4.2880	42.009
4.2844	42.104
4.2809	42.209
4.2774	42.329
4.2738	42.453
4.2703	42.583
4.2668	42.720
4.2633	42.857
4.2598	42.988
4.2563	43.113
4.2528	43.244
4.2493	43.381
4.2458	43.517
4.2424	43.648
4.2389	43.779
4.2354	43.910
4.2320	44.041
4.2285	44.174
4.2251	44.318
4.2216	44.471
4.2182	44.619
4.2148	44.760
4.2113	44.906
4.2079	45.055
4.2045	45.199
4.2011	45.352
4.1977	45.532
4.1943	45.722
4.1909	45.907
4.1875	46.091
4.1841	46.284
4.1808	46.473
4.1774	46.658
4.1740	46.855
4.1707	47.063
4.1673	47.268
4.1640	47.466
4.1606	47.656
4.1573	47.841
4.1540	48.020
4.1506	48.203
4.1473	48.396
4.1440	48.590
4.1407	48.786
4.1374	48.986
4.1341	49.180
4.1308	49.367
4.1275	49.549
4.1242	49.722
4.1209	49.889
4.1177	50.048
4.1144	50.203
4.1111	50.359
4.1079	50.513
4.1046	50.666
4.1014	50.815
4.0981	50.949
4.0949	51.068
4.0917	51.180
4.0884	51.283
4.0852	51.375
4.0820	51.460
4.0788	51.539
4.0756	51.607
4.0724	51.663
4.0692	51.707
4.0660	51.738
4.0628	51.758
4.0596	51.761
4.0565	51.758
4.0533	51.757
4.0501	51.760
4.0470	51.760
4.0438	51.748
4.0406	51.721
4.0375	51.685
4.0344	51.639
4.0312	51.585
4.0281	51.538
4.0250	51.489
4.0218	51.431
4.0187	51.365
4.0156	51.299
4.0125	51.241
4.0094	51.185
4.0063	51.133
4.0032	51.086
4.0001	51.038
3.9970	50.985
3.9940	50.924
3.9909	50.862
3.9878	50.804
3.9847	50.747
3.9817	50.694
3.9786	50.640
3.9756	50.585
3.9725	50.527
3.9695	50.459
3.9665	50.396
3.9634	50.342
3.9604	50.288
3.9574	50.225
3.9544	50.145
3.9513	50.054
3.9483	49.953
3.9453	49.840
3.9423	49.730
3.9393	49.628
3.9363	49.524
3.9333	49.410
3.9304	49.279
3.9274	49.132
3.9244	48.967
3.9214	48.793
3.9185	48.618
3.9155	48.435
3.9126	48.243
3.9096	48.042
3.9067	47.817
3.9037	47.577
3.9008	47.323
3.8979	47.061
3.8949	46.800
3.8920	46.535
3.8891	46.266
3.8862	45.988
3.8833	45.704
3.8804	45.420
3.8775	45.139
3.8746	44.863
3.8717	44.599
3.8688	44.348
3.8659	44.106
3.8630	43.873
3.8601	43.652
3.8573	43.450
3.8544	43.275
3.8515	43.130
3.8487	43.005
3.8458	42.898
3.8430	42.811
3.8401	42.747
3.8373	42.709
3.8344	42.693
3.8316	42.700
3.8288	42.739
3.8259	42.799
3.8231	42.868
3.8203	42.946
3.8175	43.040
3.8147	43.145
3.8119	43.249
3.8091	43.360
3.8063	43.476
3.8035	43.593
3.8007	43.712
3.7979	43.836
3.7951	43.965
3.7924	44.102
3.7896	44.247
3.7868	44.402
3.7841	44.541
3.7813	44.666
3.7785	44.795
3.7758	44.913
3.7730	45.014
3.7703	45.111
3.7676	45.213
3.7648	45.310
3.7621	45.392
3.7594	45.482
3.7566	45.570
3.7539	45.634
3.7512	45.680
3.7485	45.719
3.7458	45.754
3.7431	45.778
3.7404	45.796
3.7377	45.827
3.7350	45.856
3.7323	45.878
3.7296	45.902
3.7269	45.929
3.7242	45.954
3.7216	45.968
3.7189	45.968
3.7162	45.971
3.7136	45.975
3.7109	45.991
3.7083	46.023
3.7056	46.067
3.7030	46.123
3.7003	46.189
3.6977	46.258
3.6950	46.327
3.6924	46.397
3.6898	46.487
3.6872	46.595
3.6845	46.714
3.6819	46.847
3.6793	46.987
3.6767	47.117
3.6741	47.240
3.6715	47.368
3.6689	47.507
3.6663	47.651
3.6637	47.801
3.6611	47.957
3.6585	48.111
3.6560	48.256
3.6534	48.395
3.6508	48.532
3.6482	48.672
3.6457	48.805
3.6431	48.932
3.6406	49.060
3.6380	49.184
3.6355	49.299
3.6329	49.404
3.6304	49.502
3.6278	49.606
3.6253	49.704
3.6227	49.793
3.6202	49.878
3.6177	49.961
3.6152	50.053
3.6127	50.145
3.6101	50.224
3.6076	50.303
3.6051	50.382
3.6026	50.448
3.6001	50.494
3.5976	50.522
3.5951	50.551
3.5926	50.576
3.5901	50.586
3.5876	50.594
3.5852	50.613
3.5827	50.631
3.5802	50.638
3.5777	50.639
3.5753	50.644
3.5728	50.646
3.5704	50.630
3.5679	50.600
3.5654	50.574
3.5630	50.550
3.5605	50.528
3.5581	50.508
3.5557	50.490
3.5532	50.467
3.5508	50.445
3.5484	50.423
3.5459	50.402
3.5435	50.384
3.5411	50.362
3.5387	50.339
3.5363	50.325
3.5338	50.317
3.5314	50.309
3.5290	50.289
3.5266	50.263
3.5242	50.242
3.5218	50.218
3.5195	50.200
3.5171	50.194
3.5147	50.182
3.5123	50.158
3.5099	50.108
3.5075	50.054
3.5052	50.013
3.5028	49.978
3.5004	49.944
3.4981	49.918
3.4957	49.899
3.4934	49.884
3.4910	49.863
3.4887	49.844
3.4863	49.822
3.4840	49.795
3.4816	49.753
3.4793	49.710
3.4770	49.679
3.4746	49.638
3.4723	49.593
3.4700	49.537
3.4677	49.462
3.4653	49.392
3.4630	49.331
3.4607	49.272
3.4584	49.216
3.4561	49.157
3.4538	49.096
3.4515	49.027
3.4492	48.958
3.4469	48.905
3.4446	48.853
3.4423	48.795
3.4400	48.739
3.4378	48.691
3.4355	48.643
3.4332	48.590
3.4309	48.539
3.4287	48.489
3.4264	48.413
3.4241	48.324
3.4219	48.237
3.4196	48.145
3.4174	48.064
3.4151	47.999
3.4129	47.948
3.4106	47.906
3.4084	47.866
3.4061	47.835
3.4039	47.814
3.4017	47.789
3.3994	47.769
3.3972	47.748
3.3950	47.704
3.3928	47.637
3.3906	47.580
3.3883	47.538
3.3861	47.496
3.3839	47.436
3.3817	47.360
3.3795	47.281
3.3773	47.192
3.3751	47.105
3.3729	47.040
3.3707	46.987
3.3685	46.934
3.3663	46.871
3.3641	46.791
3.3620	46.704
3.3598	46.633
3.3576	46.579
3.3554	46.522
3.3533	46.454
3.3511	46.381
3.3489	46.311
3.3468	46.230
3.3446	46.136
3.3425	46.059
3.3403	45.992
3.3382	45.924
3.3360	45.854
3.3339	45.776
3.3317	45.704
3.3296	45.634
3.3274	45.555
3.3253	45.473
3.3232	45.388
3.3210	45.312
3.3189	45.249
3.3168	45.186
3.3147	45.133
3.3126	45.075
3.3104	45.002
3.3083	44.921
3.3062	44.837
3.3041	44.752
3.3020	44.676
3.2999	44.607
3.2978	44.533
3.2957	44.446
3.2936	44.362
3.2915	44.297
3.2894	44.248
3.2874	44.191
3.2853	44.135
3.2832	44.080
3.2811	44.003
3.2790	43.916
3.2770	43.844
3.2749	43.785
3.2728	43.728
3.2708	43.672
3.2687	43.617
3.2666	43.562
3.2646	43.503
3.2625	43.453
3.2605	43.420
3.2584	43.378
3.2564	43.316
3.2543	43.253
3.2523	43.187
3.2503	43.122
3.2482	43.067
3.2462	43.011
3.2442	42.954
3.2421	42.901
3.2401	42.845
3.2381	42.789
3.2361	42.740
3.2340	42.700
3.2320	42.669
3.2300	42.621
3.2280	42.553
3.2260	42.495
3.2240	42.441
3.2220	42.372
3.2200	42.300
3.2180	42.246
3.2160	42.204
3.2140	42.147
3.2120	42.074
3.2100	42.003
3.2080	41.934
3.2060	41.856
3.2041	41.777
3.2021	41.710
3.2001	41.644
3.1981	41.563
3.1961	41.474
3.1942	41.387
3.1922	41.311
3.1902	41.237
3.1883	41.166
3.1863	41.100
3.1844	41.030
3.1824	40.959
3.1805	40.896
3.1785	40.833
3.1766	40.775
3.1746	40.722
3.1727	40.677
3.1707	40.624
3.1688	40.554
3.1669	40.480
3.1649	40.394
3.1630	40.299
3.1611	40.213
3.1591	40.140
3.1572	40.078
3.1553	40.017
3.1534	39.956
3.1515	39.867
3.1495	39.747
3.1476	39.644
3.1457	39.561
3.1438	39.484
3.1419	39.424
3.1400	39.370
3.1381	39.292
3.1362	39.185
3.1343	39.074
3.1324	38.997
3.1305	38.940
3.1286	38.873
3.1268	38.797
3.1249	38.713
3.1230	38.602
3.1211	38.501
3.1192	38.419
3.1174	38.343
3.1155	38.275
3.1136	38.195
3.1117	38.104
3.1099	38.011
3.1080	37.910
3.1061	37.815
3.1043	37.731
3.1024	37.652
3.1006	37.585
3.0987	37.517
3.0969	37.433
3.0950	37.343
3.0932	37.243
3.0913	37.133
3.0895	37.034
3.0876	36.950
3.0858	36.868
3.0840	36.788
3.0821	36.720
3.0803	36.660
3.0785	36.588
3.0766	36.506
3.0748	36.435
3.0730	36.363
3.0712	36.277
3.0694	36.204
3.0675	36.143
3.0657	36.073
3.0639	36.002
3.0621	35.945
3.0603	35.885
3.0585	35.811
3.0567	35.726
3.0549	35.658
3.0531	35.590
3.0513	35.512
3.0495	35.452
3.0477	35.401
3.0459	35.342
3.0441	35.296
3.0423	35.254
3.0406	35.215
3.0388	35.175
3.0370	35.126
3.0352	35.075
3.0334	35.016
3.0317	34.955
3.0299	34.894
3.0281	34.830
3.0264	34.761
3.0246	34.703
3.0228	34.645
3.0211	34.579
3.0193	34.530
3.0176	34.493
3.0158	34.453
3.0140	34.418
3.0123	34.386
3.0105	34.355
3.0088	34.285
3.0070	34.200
3.0053	34.141
3.0036	34.078
3.0018	34.012
3.0001	33.976
2.9984	33.961
2.9966	33.943
2.9949	33.883
2.9932	33.803
2.9914	33.730
2.9897	33.652
2.9880	33.582
2.9863	33.550
2.9845	33.522
2.9828	33.482
2.9811	33.425
2.9794	33.367
2.9777	33.337
2.9760	33.311
2.9743	33.270
2.9726	33.241
2.9709	33.204
2.9692	33.139
2.9675	33.076
2.9658	33.045
2.9641	33.035
2.9624	33.024
2.9607	33.008
2.9590	33.013
2.9573	33.019
2.9556	33.016
2.9539	33.030
2.9523	33.070
2.9506	33.101
2.9489	33.121
2.9472	33.134
2.9455	33.135
2.9439	33.114
2.9422	33.065
2.9405	33.025
2.9389	32.986
2.9372	32.943
2.9355	32.902
2.9339	32.874
2.9322	32.847
2.9306	32.799
2.9289	32.726
2.9272	32.650
2.9256	32.555
2.9239	32.456
2.9223	32.347
2.9207	32.228
2.9190	32.075
2.9174	31.888
2.9157	31.675
2.9141	31.440
2.9124	31.179
2.9108	30.890
2.9092	30.566
2.9075	30.214
2.9059	29.821
2.9043	29.398
2.9027	28.944
2.9010	28.481
2.8994	28.007
2.8978	27.510
2.8962	26.990
2.8946	26.457
2.8929	25.918
2.8913	25.383
2.8897	24.854
2.8881	24.340
2.8865	23.844
2.8849	23.359
2.8833	22.878
2.8817	22.404
2.8801	21.977
2.8785	21.612
2.8769	21.289
2.8753	20.990
2.8737	20.712
2.8721	20.442
2.8705	20.164
2.8689	19.891
2.8673	19.668
2.8658	19.486
2.8642	19.324
2.8626	19.192
2.8610	19.090
2.8594	18.988
2.8579	18.880
2.8563	18.788
2.8547	18.731
2.8531	18.710
2.8516	18.733
2.8500	18.814
2.8484	18.940
2.8469	19.086
2.8453	19.239
2.8437	19.380
2.8422	19.484
2.8406	19.545
2.8391	19.556
2.8375	19.510
2.8360	19.407
2.8344	19.264
2.8329	19.085
2.8313	18.870
2.8298	18.624
2.8282	18.348
2.8267	18.055
2.8252	17.742
2.8236	17.424
2.8221	17.125
2.8205	16.847
2.8190	16.604
2.8175	16.390
2.8159	16.184
2.8144	15.985
2.8129	15.789
2.8114	15.592
2.8098	15.394
2.8083	15.209
2.8068	15.054
2.8053	14.946
2.8038	14.913
2.8022	14.972
2.8007	15.138
2.7992	15.418
2.7977	15.802
2.7962	16.261
2.7947	16.790
2.7932	17.373
2.7917	17.970
2.7902	18.548
2.7887	19.089
2.7872	19.578
2.7857	19.988
2.7842	20.295
2.7827	20.525
2.7812	20.690
2.7797	20.810
2.7782	20.968
2.7767	21.240
2.7752	21.685
2.7738	22.360
2.7723	23.291
2.7708	24.509
2.7693	26.005
2.7678	27.722
2.7664	29.593
2.7649	31.438
2.7634	32.898
2.7619	33.619
2.7605	33.386
2.7590	32.277
2.7575	30.671
2.7561	29.167
2.7546	28.436
2.7531	28.893
2.7517	30.422
2.7502	32.471
2.7488	34.400
2.7473	35.837
2.7458	36.765
2.7444	37.414
2.7429	38.227
2.7415	39.594
2.7400	41.506
2.7386	43.601
2.7371	45.491
2.7357	46.943
2.7343	47.828
2.7328	48.145
2.7314	48.053
2.7299	47.723
2.7285	47.215
2.7271	46.661
2.7256	46.229
2.7242	46.070
2.7228	46.286
2.7213	46.861
2.7199	47.649
2.7185	48.458
2.7171	49.120
2.7156	49.555
2.7142	49.780
2.7128	49.907
2.7114	50.075
2.7100	50.331
2.7085	50.676
2.7071	51.119
2.7057	51.618
2.7043	52.141
2.7029	52.704
2.7015	53.317
2.7001	53.969
2.6987	54.612
2.6973	55.158
2.6959	55.557
2.6945	55.730
2.6931	55.675
2.6917	55.432
2.6903	55.069
2.6889	54.711
2.6875	54.503
2.6861	54.548
2.6847	54.896
2.6833	55.480
2.6819	56.235
2.6805	57.051
2.6791	57.871
2.6778	58.700
2.6764	59.544
2.6750	60.276
2.6736	60.849
2.6722	61.328
2.6709	61.692
2.6695	61.909
2.6681	62.085
2.6667	62.370
2.6654	62.731
2.6640	63.023
2.6626	63.285
2.6613	63.572
2.6599	63.763
2.6585	63.828
2.6572	63.807
2.6558	63.795
2.6545	63.792
2.6531	63.795
2.6517	63.840
2.6504	63.914
2.6490	63.961
2.6477	63.984
2.6463	63.978
2.6450	63.972
2.6436	63.977
2.6423	63.986
2.6409	64.005
2.6396	64.008
2.6382	63.966
2.6369	63.926
2.6356	63.882
2.6342	63.785
2.6329	63.673
2.6315	63.564
2.6302	63.450
2.6289	63.386
2.6275	63.380
2.6262	63.441
2.6249	63.460
2.6236	63.396
2.6222	63.336
2.6209	63.220
2.6196	63.065
2.6183	62.964
2.6169	62.928
2.6156	62.966
2.6143	62.980
2.6130	62.969
2.6117	62.979
2.6103	62.930
2.6090	62.815
2.6077	62.707
2.6064	62.631
2.6051	62.614
2.6038	62.631
2.6025	62.680
2.6012	62.779
2.5999	62.817
2.5986	62.680
2.5973	62.492
2.5960	62.360
2.5947	62.321
2.5934	62.368
2.5921	62.473
2.5908	62.598
2.5895	62.675
2.5882	62.613
2.5869	62.505
2.5856	62.461
2.5843	62.477
2.5830	62.539
2.5817	62.608
2.5805	62.665
2.5792	62.715
2.5779	62.729
2.5766	62.708
2.5753	62.704
2.5741	62.699
2.5728	62.709
2.5715	62.744
2.5702	62.807
2.5690	62.864
2.5677	62.906
2.5664	62.928
2.5651	62.918
2.5639	62.870
2.5626	62.854
2.5613	62.896
2.5601	62.981
2.5588	63.071
2.5575	63.145
2.5563	63.189
2.5550	63.170
2.5538	63.140
2.5525	63.157
2.5513	63.184
2.5500	63.208
2.5487	63.242
2.5475	63.269
2.5462	63.279
2.5450	63.268
2.5437	63.253
2.5425	63.261
2.5413	63.280
2.5400	63.287
2.5388	63.288
2.5375	63.292
2.5363	63.288
2.5350	63.265
2.5338	63.234
2.5326	63.235
2.5313	63.258
2.5301	63.277
2.5289	63.293
2.5276	63.301
2.5264	63.288
2.5252	63.257
2.5239	63.243
2.5227	63.241
2.5215	63.227
2.5202	63.208
2.5190	63.202
2.5178	63.194
2.5166	63.177
2.5154	63.150
2.5141	63.134
2.5129	63.122
2.5117	63.110
2.5105	63.086
2.5093	63.078
2.5081	63.076
2.5068	63.075
2.5056	63.075
2.5044	63.090
2.5032	63.108
2.5020	63.119
2.5008	63.122
2.4996	63.124
2.4984	63.122
2.4972	63.122
2.4960	63.136
2.4948	63.173
2.4936	63.207
2.4924	63.219
2.4912	63.236
2.4900	63.254
2.4888	63.273
2.4876	63.279
2.4864	63.285
2.4852	63.324
2.4840	63.377
2.4828	63.422
2.4816	63.471
2.4805	63.516
2.4793	63.549
2.4781	63.564
2.4769	63.576
2.4757	63.599
2.4745	63.622
2.4734	63.637
2.4722	63.664
2.4710	63.711
2.4698	63.764
2.4686	63.815
2.4675	63.865
2.4663	63.915
2.4651	63.955
2.4640	63.986
2.4628	64.012
2.4616	64.063
2.4604	64.130
2.4593	64.183
2.4581	64.224
2.4569	64.274
2.4558	64.350
2.4546	64.416
2.4535	64.446
2.4523	64.471
2.4511	64.533
2.4500	64.588
2.4488	64.623
2.4477	64.676
2.4465	64.753
2.4454	64.823
2.4442	64.860
2.4431	64.886
2.4419	64.934
2.4408	64.962
2.4396	64.952
2.4385	64.946
2.4373	64.963
2.4362	64.986
2.4350	64.992
2.4339	65.017
2.4327	65.064
2.4316	65.109
2.4305	65.130
2.4293	65.137
2.4282	65.137
2.4270	65.115
2.4259	65.068
2.4248	65.036
2.4236	65.018
2.4225	65.009
2.4214	64.988
2.4202	64.946
2.4191	64.898
2.4180	64.862
2.4169	64.828
2.4157	64.811
2.4146	64.793
2.4135	64.754
2.4124	64.706
2.4112	64.671
2.4101	64.634
2.4090	64.586
2.4079	64.543
2.4068	64.498
2.4056	64.418
2.4045	64.300
2.4034	64.196
2.4023	64.112
2.4012	64.022
2.4001	63.939
2.3990	63.873
2.3979	63.817
2.3967	63.744
2.3956	63.645
2.3945	63.546
2.3934	63.436
2.3923	63.309
2.3912	63.167
2.3901	62.996
2.3890	62.804
2.3879	62.570
2.3868	62.294
2.3857	61.999
2.3846	61.681
2.3835	61.337
2.3824	60.986
2.3813	60.638
2.3802	60.306
2.3791	60.003
2.3781	59.721
2.3770	59.474
2.3759	59.271
2.3748	59.108
2.3737	58.985
2.3726	58.908
2.3715	58.887
2.3704	58.926
2.3694	58.999
2.3683	59.103
2.3672	59.274
2.3661	59.485
2.3650	59.686
2.3640	59.886
2.3629	60.116
2.3618	60.396
2.3607	60.699
2.3597	61.028
2.3586	61.407
2.3575	61.787
2.3564	62.115
2.3554	62.412
2.3543	62.706
2.3532	63.004
2.3522	63.291
2.3511	63.595
2.3500	63.889
2.3490	64.134
2.3479	64.322
2.3468	64.459
2.3458	64.558
2.3447	64.633
2.3436	64.719
2.3426	64.827
2.3415	64.915
2.3405	64.999
2.3394	65.075
2.3384	65.117
2.3373	65.137
2.3363	65.172
2.3352	65.229
2.3342	65.295
2.3331	65.356
2.3321	65.434
2.3310	65.504
2.3300	65.567
2.3289	65.633
2.3279	65.707
2.3268	65.772
2.3258	65.845
2.3247	65.894
2.3237	65.917
2.3226	65.943
2.3216	65.997
2.3206	66.068
2.3195	66.129
2.3185	66.171
2.3175	66.200
2.3164	66.209
2.3154	66.212
2.3144	66.204
2.3133	66.166
2.3123	66.121
2.3113	66.071
2.3102	65.997
2.3092	65.903
2.3082	65.790
2.3071	65.652
2.3061	65.434
2.3051	65.159
2.3041	64.904
2.3030	64.690
2.3020	64.527
2.3010	64.402
2.3000	64.332
2.2990	64.324
2.2979	64.337
2.2969	64.394
2.2959	64.534
2.2949	64.753
2.2939	65.022
2.2929	65.313
2.2918	65.661
2.2908	66.006
2.2898	66.293
2.2888	66.546
2.2878	66.799
2.2868	67.040
2.2858	67.229
2.2848	67.382
2.2838	67.520
2.2828	67.604
2.2818	67.639
2.2808	67.675
2.2798	67.711
2.2787	67.719
2.2777	67.699
2.2767	67.666
2.2757	67.623
2.2747	67.561
2.2738	67.494
2.2728	67.434
2.2718	67.381
2.2708	67.320
2.2698	67.243
2.2688	67.159
2.2678	67.068
2.2668	66.935
2.2658	66.786
2.2648	66.654
2.2638	66.514
2.2628	66.350
2.2618	66.167
2.2609	65.982
2.2599	65.813
2.2589	65.624
2.2579	65.407
2.2569	65.197
2.2559	64.949
2.2550	64.697
2.2540	64.467
2.2530	64.258
2.2520	64.085
2.2510	63.917
2.2501	63.751
2.2491	63.605
2.2481	63.504
2.2471	63.468
2.2462	63.492
2.2452	63.560
2.2442	63.671
2.2433	63.826
2.2423	64.037
2.2413	64.295
2.2403	64.603
2.2394	64.927
2.2384	65.213
2.2374	65.429
2.2365	65.595
2.2355	65.731
2.2345	65.839
2.2336	65.908
2.2326	65.969
2.2317	66.018
2.2307	66.023
2.2297	65.993
2.2288	65.959
2.2278	65.932
2.2269	65.885
2.2259	65.797
2.2250	65.730
2.2240	65.663
2.2231	65.547
2.2221	65.397
2.2211	65.249
2.2202	65.096
2.2192	64.891
2.2183	64.634
2.2173	64.375
2.2164	64.105
2.2155	63.808
2.2145	63.497
2.2136	63.188
2.2126	62.882
2.2117	62.562
2.2107	62.249
2.2098	61.958
2.2088	61.705
2.2079	61.492
2.2070	61.296
2.2060	61.123
2.2051	61.018
2.2041	60.964
2.2032	60.988
2.2023	61.087
2.2013	61.225
2.2004	61.435
2.1995	61.715
2.1985	62.072
2.1976	62.498
2.1967	62.959
2.1957	63.440
2.1948	63.903
2.1939	64.290
2.1930	64.645
2.1920	64.962
2.1911	65.229
2.1902	65.452
2.1893	65.641
2.1883	65.791
2.1874	65.910
2.1865	65.978
2.1856	66.040
2.1846	66.116
2.1837	66.175
2.1828	66.198
2.1819	66.181
2.1810	66.144
2.1800	66.085
2.1791	66.014
2.1782	65.967
2.1773	65.954
2.1764	65.969
2.1755	65.992
2.1746	66.030
2.1736	66.114
2.1727	66.228
2.1718	66.362
2.1709	66.488
2.1700	66.583
2.1691	66.657
2.1682	66.746
2.1673	66.848
2.1664	66.957
2.1655	67.066
2.1646	67.131
2.1637	67.150
2.1628	67.154
2.1619	67.185
2.1610	67.268
2.1601	67.363
2.1592	67.439
2.1583	67.446
2.1574	67.400
2.1565	67.356
2.1556	67.333
2.1547	67.342
2.1538	67.376
2.1529	67.424
2.1520	67.476
2.1511	67.494
2.1502	67.498
2.1493	67.510
2.1484	67.514
2.1475	67.476
2.1466	67.427
2.1458	67.386
2.1449	67.386
2.1440	67.419
2.1431	67.447
2.1422	67.499
2.1413	67.544
2.1404	67.520
2.1396	67.512
2.1387	67.514
2.1378	67.497
2.1369	67.491
2.1360	67.494
2.1352	67.519
2.1343	67.527
2.1334	67.515
2.1325	67.533
2.1316	67.546
2.1308	67.529
2.1299	67.499
2.1290	67.448
2.1281	67.424
2.1273	67.419
2.1264	67.443
2.1255	67.485
2.1247	67.560
2.1238	67.662
2.1229	67.714
2.1220	67.707
2.1212	67.676
2.1203	67.617
2.1194	67.562
2.1186	67.517
2.1177	67.508
2.1168	67.542
2.1160	67.528
2.1151	67.489
2.1143	67.482
2.1134	67.491
2.1125	67.530
2.1117	67.570
2.1108	67.604
2.1100	67.639
2.1091	67.589
2.1082	67.521
2.1074	67.508
2.1065	67.503
2.1057	67.490
2.1048	67.441
2.1040	67.404
2.1031	67.412
2.1023	67.375
2.1014	67.345
2.1005	67.390
2.0997	67.464
2.0988	67.497
2.0980	67.480
2.0971	67.454
2.0963	67.415
2.0955	67.340
2.0946	67.279
2.0938	67.308
2.0929	67.388
2.0921	67.476
2.0912	67.543
2.0904	67.561
2.0895	67.530
2.0887	67.487
2.0879	67.423
2.0870	67.381
2.0862	67.370
2.0853	67.375
2.0845	67.352
2.0837	67.336
2.0828	67.360
2.0820	67.278
2.0812	67.451
2.0803	67.485
2.0795	67.326
2.0760	67.326
2.0720	67.231
2.0680	67.081
2.0640	66.986
2.0600	67.026
2.0560	66.797
2.0520	66.742
2.0480	66.483
2.0440	66.523
2.0400	66.657
2.0360	66.494
2.0320	66.037
2.0280	65.784
2.0240	65.650
2.0200	65.850
2.0160	65.797
2.0120	65.544
2.0080	65.345
2.0040	65.333
2.0000	65.187
1.9960	65.030
1.9920	64.805
1.9880	64.608
1.9840	64.608
1.9800	64.597
1.9760	64.443
1.9720	64.299
1.9680	64.248
1.9640	64.146
1.9600	64.023
1.9560	63.982
1.9520	63.839
1.9480	63.697
1.9440	63.421
1.9400	63.379
1.9360	63.212
1.9320	63.223
1.9280	62.925
1.9240	62.797
1.9200	62.704
1.9160	62.654
1.9120	62.654
1.9080	62.747
1.9040	62.759
1.9000	62.827
1.8960	62.515
1.8920	62.269
1.8880	62.222
1.8840	62.029
1.8800	62.130
1.8760	62.346
1.8720	62.296
1.8680	62.117
1.8640	61.969
1.8600	61.803
1.8560	61.585
1.8520	61.489
1.8480	61.455
1.8440	61.385
1.8400	61.595
1.8360	61.557
1.8320	61.546
1.8280	61.332
1.8240	60.859
1.8200	60.440
1.8160	60.034
1.8120	59.896
1.8080	60.118
1.8040	59.988
1.8000	59.988
1.7960	59.579
1.7920	59.581
1.7880	59.358
1.7840	59.089
1.7800	59.001
1.7760	58.552
1.7720	58.104
1.7680	57.872
1.7640	57.782
1.7600	57.613
1.7560	57.569
1.7520	57.437
1.7480	57.439
1.7440	57.570
1.7400	57.480
1.7360	57.788
1.7320	57.651
1.7280	57.650
1.7240	57.559
1.7200	57.471
1.7160	57.250
1.7120	57.114
1.7080	56.587
1.7040	56.538
1.7000	56.243
1.6960	56.014
1.6920	55.887
1.6880	55.525
1.6840	55.232
1.6800	55.290
1.6760	55.242
1.6720	55.162
1.6680	54.900
1.6640	54.674
1.6600	54.715
1.6560	54.186
1.6520	53.982
1.6480	53.926
1.6440	53.936
1.6400	53.325
1.6360	53.325
1.6320	53.356
1.6280	52.917
1.6240	52.569
1.6200	52.222
1.6160	51.976
1.6120	51.937
1.6080	52.172
1.6040	52.190
1.6000	52.050
1.5960	51.842
1.5920	51.960
1.5880	51.651
1.5840	51.331
1.5800	51.487
1.5760	50.977
1.5720	50.272
1.5680	50.032
1.5640	49.771
1.5600	49.232
1.5560	49.071
1.5520	49.039
1.5480	48.917
1.5440	48.792
1.5400	48.612
1.5360	48.848
1.5320	48.778
1.5280	48.636
1.5240	48.438
1.5200	47.938
1.5160	47.689
1.5120	47.528
1.5080	47.577
1.5040	47.430
1.5000	47.242
1.4960	46.949
1.4920	46.274
1.4880	46.137
1.4840	45.890
1.4800	45.666
1.4760	45.154
1.4720	44.765
1.4680	45.072
1.4640	45.115
1.4600	44.802
1.4560	44.679
1.4520	44.402
1.4480	44.037
1.4440	43.897
1.4400	43.528
1.4360	43.231
1.4320	42.934
1.4280	42.871
1.4240	42.777
1.4200	42.925
1.4160	42.746
1.4120	42.722
1.4080	42.662
1.4040	42.365
1.4000	42.099
1.3960	41.857
1.3920	41.643
1.3880	41.369
1.3840	41.158
1.3800	41.249
1.3760	41.493
1.3720	41.167
1.3680	40.958
1.3640	40.625
1.3600	40.617
1.3560	40.467
1.3520	40.298
1.3480	39.793
1.3440	39.915
1.3400	39.597
1.3360	39.387
1.3320	39.465
1.3280	39.254
1.3240	39.112
1.3200	39.131
1.3160	38.844
1.3120	38.638
1.3080	38.549
1.3040	38.405
1.3000	38.227
1.2960	38.049
1.2920	37.772
1.2880	37.557
1.2840	37.330
1.2800	37.425
1.2760	37.312
1.2720	37.131
1.2680	36.937
1.2640	36.906
1.2600	36.724
1.2560	36.489
1.2520	36.489
1.2480	36.463
1.2440	36.037
1.2400	36.046
1.2360	36.071
1.2320	35.915
1.2280	35.925
1.2240	35.643
1.2200	35.527
1.2160	35.486
1.2120	35.321
1.2080	35.223
1.2040	35.223
1.2000	35.132
1.1960	35.027
1.1920	34.954
1.1880	34.768
1.1840	34.565
1.1800	34.541
1.1760	34.471
1.1720	34.424
1.1680	34.424
1.1640	34.255
1.1600	34.315
1.1560	34.162
1.1520	34.084
1.1480	34.192
1.1440	34.125
1.1400	34.240
1.1360	34.087
1.1320	33.927
1.1280	33.860
1.1240	33.929
1.1200	33.847
1.1160	34.051
1.1120	34.191
1.1080	34.168
1.1040	34.165
1.1000	34.268
1.0960	34.327
1.0920	34.186
1.0880	34.438
1.0840	34.671
1.0800	34.411
1.0760	34.663
1.0720	34.486
1.0680	34.560
1.0640	34.503
1.0600	34.777
1.0560	34.588
1.0520	34.452
1.0480	34.677
1.0440	35.269
1.0400	35.480
1.0360	35.602
1.0320	36.056
1.0280	36.047
1.0240	36.097
1.0200	36.278
1.0160	36.394
1.0120	36.399
1.0080	36.499
1.0040	36.912
1.0000	36.785
0.99600	37.046
0.99200	37.331
0.98800	37.530
0.98400	37.689
0.98000	38.079
0.97600	38.039
0.97200	38.281
0.96800	38.426
0.96400	38.625
0.96000	38.787
0.95600	39.266
0.95200	39.003
0.94800	39.364
0.94400	39.454
0.94000	39.759
0.93600	39.882
0.93200	40.090
0.92800	40.190
0.92400	40.388
0.92000	40.458
0.91600	40.599
0.91200	40.660
0.90800	40.717
0.90400	40.571
0.90000	40.717
0.89600	40.688
0.89200	40.688
0.88800	40.717
0.88400	40.685
0.88000	40.676
0.87600	40.493
0.87200	40.604
0.86800	40.366
0.86400	40.091
0.86000	40.221
0.85600	39.780
0.85200	39.444
0.84800	39.484
0.84400	38.982
0.84000	38.800
0.83600	38.664
0.83200	38.172
0.82800	37.963
0.82400	37.793
0.82000	37.771
0.81600	36.999
0.81200	36.691
0.80800	36.561
0.80400	36.421
0.80000	35.986
0.79900	35.986
0.79800	35.986
0.79700	35.959
0.79600	35.624
0.79500	35.721
0.79400	35.789
0.79300	35.570
0.79200	35.500
0.79100	35.567
0.79000	35.426
0.78900	35.110
0.78800	35.057
0.78700	35.181
0.78600	35.102
0.78500	35.208
0.78400	35.302
0.78300	35.010
0.78200	34.785
0.78100	34.879
0.78000	35.108
0.77900	34.895
0.77800	34.745
0.77700	34.692
0.77600	34.520
0.77500	34.465
0.77400	34.465
0.77300	34.369
0.77200	34.436
0.77100	34.343
0.77000	33.980
0.76900	34.215
0.76800	34.533
0.76700	34.398
0.76600	34.398
0.76500	34.172
0.76400	34.385
0.76300	34.081
0.76200	34.032
0.76100	34.269
0.76000	33.713
0.75900	33.638
0.75800	33.638
0.75700	33.541
0.75600	33.932
0.75500	34.035
0.75400	34.055
0.75300	33.470
0.75200	33.398
0.75100	33.495
0.75000	33.445
0.74900	33.545
0.74800	33.448
0.74700	33.448
0.74600	33.495
0.74500	33.254
0.74400	33.707
0.74300	33.299
0.74200	33.682
0.74100	33.961
0.74000	33.572
0.73900	33.159
0.73800	33.159
0.73700	32.963
0.73600	33.173
0.73500	33.060
0.73400	33.159
0.73300	33.323
0.73200	33.468
0.73100	33.317
0.73000	33.148
0.72900	33.298
0.72800	33.276
0.72700	33.251
0.72600	33.424
0.72500	33.424
0.72400	33.129
0.72300	33.129
0.72200	32.954
0.72100	32.959
0.72000	32.892
0.71900	33.431
0.71800	33.555
0.71700	33.528
0.71600	33.230
0.71500	32.981
0.71400	33.273
0.71300	33.033
0.71200	33.249
0.71100	33.204
0.71000	33.207
0.70900	33.132
0.70800	33.280
0.70700	33.129
0.70600	33.375
0.70500	33.106
0.70400	33.182
0.70300	33.104
0.70200	33.104
0.70100	33.011
0.70000	33.134
0.69900	33.463
0.69800	33.476
0.69700	33.651
0.69600	33.546
0.69500	33.397
0.69400	33.397
0.69300	33.372
0.69200	33.294
0.69100	33.398
0.69000	33.572
0.68900	33.751
0.68800	33.698
0.68700	33.698
0.68600	33.698
0.68500	33.751
0.68400	33.498
0.68300	33.498
0.68200	33.472
0.68100	33.572
0.68000	33.651
0.67900	33.677
0.67800	33.550
0.67700	33.397
0.67600	33.598
0.67500	33.777
0.67400	33.777
0.67300	33.979
0.67200	33.572
0.67100	33.831
0.67000	33.905
0.66900	33.931
0.66800	33.803
0.66700	34.105
0.66600	33.978
0.66500	34.052
0.66400	34.072
0.66300	33.546
0.66200	33.782
0.66100	33.883
0.66000	33.931
0.65900	34.168
0.65800	34.168
0.65700	34.314
0.65600	34.280
0.65500	34.206
0.65400	33.952
0.65300	33.998
0.65200	34.098
0.65100	34.145
0.65000	34.091
0.64900	34.012
0.64800	34.111
0.64700	34.206
0.64600	34.673
0.64500	34.773
0.64400	34.876
0.64300	34.719
0.64200	34.682
0.64100	34.854
0.64000	34.747
0.63900	34.895
0.63800	34.609
0.63700	34.572
0.63600	34.191
0.63500	34.172
0.63400	34.299
0.63300	34.372
0.63200	34.345
0.63100	34.480
0.63000	34.599
0.62900	34.744
0.62800	34.418
0.62700	34.617
0.62600	34.744
0.62500	34.682
0.62400	34.855
0.62300	34.572
0.62200	34.318
0.62100	34.589
0.62000	34.609
0.61900	34.904
0.61800	35.044
0.61700	35.163
0.61600	35.078
0.61500	35.022
0.61400	35.011
0.61300	34.799
0.61200	35.022
0.61100	35.179
0.61000	35.353
0.60900	35.123
0.60800	34.994
0.60700	34.690
0.60600	34.846
0.60500	34.718
0.60400	34.617
0.60300	34.673
0.60200	34.757
0.60100	34.691
0.60000	34.962
0.59900	34.944
0.59800	34.887
0.59700	34.926
0.59600	34.805
0.59500	34.657
0.59400	34.533
0.59300	34.758
0.59200	34.808
0.59100	34.780
0.59000	34.570
0.58900	34.386
0.58800	34.601
0.58700	34.545
0.58600	34.498
0.58500	34.635
0.58400	34.374
0.58300	34.536
0.58200	34.327
0.58100	34.196
0.58000	34.386
0.57900	34.132
0.57800	34.414
0.57700	34.097
0.57600	33.994
0.57500	33.918
0.57400	33.864
0.57300	33.801
0.57200	33.865
0.57100	34.074
0.57000	33.966
0.56900	33.736
0.56800	33.636
0.56700	33.538
0.56600	33.668
0.56500	33.641
0.56400	33.487
0.56300	33.593
0.56200	33.465
0.56100	33.262
0.56000	33.474
0.55900	33.168
0.55800	33.168
0.55700	33.612
0.55600	33.565
0.55500	33.418
0.55400	33.269
0.55300	33.366
0.55200	33.241
0.55100	33.214
0.55000	32.988
0.54900	33.130
0.54800	32.888
0.54700	32.765
0.54600	32.883
0.54500	32.930
0.54400	32.636
0.54300	32.677
0.54200	32.601
0.54100	32.399
0.54000	32.601
0.53900	32.665
0.53800	32.589
0.53700	32.416
0.53600	32.214
0.53500	32.191
0.53400	32.136
0.53300	31.806
0.53200	31.549
0.53100	31.626
0.53000	31.671
0.52900	31.584
0.52800	31.618
0.52700	31.495
0.52600	31.494
0.52500	31.495
0.52400	31.539
0.52300	31.473
0.52200	31.395
0.52100	31.373
0.52000	31.102
0.51900	31.079
0.51800	31.115
0.51700	31.036
0.51600	30.814
0.51500	30.879
0.51400	30.612
0.51300	30.533
0.51200	30.306
0.51100	30.285
0.51000	30.269
0.50900	30.027
0.50800	30.332
0.50700	30.458
0.50600	30.335
0.50500	30.070
0.50400	30.011
0.50300	30.013
0.50200	30.033
0.50100	30.219
0.50000	29.833
0.49900	29.829
0.49800	29.768
0.49700	29.788
0.49600	29.506
0.49500	29.466
0.49400	29.325
0.49300	29.587
0.49200	29.587
0.49100	29.587
0.49000	29.384
0.48900	29.383
0.48800	29.097
0.48700	28.879
0.48600	28.816
0.48500	28.668
0.48400	28.874
0.48300	28.933
0.48200	28.734
0.48100	28.633
0.48000	28.598
0.47900	28.636
0.47800	28.591
0.47700	28.180
0.47600	28.458
0.47500	28.420
0.47400	28.636
0.47300	28.494
0.47200	28.354
0.47100	27.994
0.47000	27.994
0.46900	27.867
0.46800	28.077
0.46700	28.104
0.46600	27.920
0.46500	27.783
0.46400	28.195
0.46300	28.010
0.46200	27.759
0.46100	27.668
0.46000	27.376
0.45900	28.446
0.45800	28.559
0.45700	28.306
0.45600	28.446
0.45500	28.185
0.45400	28.164
0.45300	28.299
0.45200	28.267
0.45100	28.092
0.45000	28.285
0.44900	28.340
0.44800	28.077
0.44700	28.094
0.44600	28.095
0.44500	27.988
0.44400	28.095
0.44300	27.774
0.44200	27.735
0.44100	28.041
0.44000	27.618
0.43900	27.756
0.43800	27.930
0.43700	27.908
0.43600	28.017
0.43500	27.947
0.43400	27.733
0.43300	27.712
0.43200	27.833
0.43100	27.780
0.43000	27.814
0.42900	27.649
0.42800	27.704
0.42700	27.586
0.42600	27.670
0.42500	27.417
0.42400	27.450
0.42300	27.544
0.42200	27.460
0.42100	27.487
0.42000	27.716
0.41900	27.414
0.41800	27.454
0.41700	27.483
0.41600	27.477
0.41500	27.256
0.41400	27.531
0.41300	27.356
0.41200	27.213
0.41100	27.135
0.41000	27.130
0.40900	27.393
0.40800	27.334
0.40700	27.350
0.40600	27.269
0.40500	27.132
0.40400	26.966
0.40300	27.284
0.40200	27.300
0.40100	27.233
0.40000	27.347
