Name: Green Quartzite 
Type:  Rocks
Class:  Metamorphic 
Subclass: Quartzite
Particle Size:  0-75 Micrometer
Sample No.:   qtzite2.doc
Owner:  JHU
Wavelength Range:  All
Origin:  Sample No. 376, The Hunt and Salisbury Collection at the U.S. 
Geological Survey, Denver, Co.
Description:  This medium to fine-grained rock contains aligned quartz grains 
showing strain, pressure solution effects, recrystallization and scattered fluid 
inclusions.  Green bands or lenses contain cores of larger grains surrounded by 
smaller ones produced by mechanical breakage (cataclasis).  These grains are 
colorless to very pale green and appear to be tremolite.   Modes for this sample 
were 77.5% quartz and 22.5% amphibole. 
Measurement:  Directional (10 Degree) Hemispherical Reflectance
First Column:  X
Second Column:  Y  
X Units:  Wavelength (micrometers)
Y Units:  Reflectance (percent)
First X Value: 14.9831	
Last X Value:  0.4
Number of X Values: 2868
Additional Information:  None

14.983	8.6071
14.940	8.5725
14.897	8.4422
14.854	8.3437
14.812	8.2031
14.770	7.8855
14.728	7.4947
14.686	6.9754
14.645	6.3464
14.603	5.6428
14.562	4.9007
14.521	4.0654
14.481	3.2588
14.441	2.5837
14.400	2.0937
14.361	1.8898
14.321	2.0653
14.281	2.5562
14.242	3.2685
14.203	4.1225
14.164	4.9708
14.126	5.7272
14.087	6.3616
14.049	6.8906
14.011	7.3671
13.973	7.7576
13.936	8.0648
13.899	8.3298
13.861	8.5391
13.824	8.6670
13.788	8.7354
13.751	8.7721
13.715	8.7965
13.679	8.7814
13.643	8.7371
13.607	8.6973
13.571	8.6627
13.536	8.6161
13.500	8.5675
13.465	8.5086
13.430	8.4231
13.396	8.2841
13.361	8.1027
13.327	7.8725
13.293	7.5826
13.259	7.2565
13.225	6.9200
13.191	6.5427
13.158	6.1307
13.124	5.6949
13.091	5.2519
13.058	4.8244
13.026	4.4242
12.993	4.0787
12.960	3.8203
12.928	3.6344
12.896	3.5165
12.864	3.4405
12.832	3.3775
12.800	3.3135
12.769	3.2077
12.737	3.0488
12.706	2.8695
12.675	2.7125
12.644	2.6066
12.614	2.5583
12.583	2.5590
12.552	2.5773
12.522	2.5690
12.492	2.4982
12.462	2.3492
12.432	2.1252
12.402	1.8555
12.373	1.5973
12.343	1.4036
12.314	1.3112
12.285	1.3712
12.256	1.5909
12.227	1.9367
12.198	2.3677
12.169	2.8617
12.141	3.4094
12.113	3.9714
12.084	4.4995
12.056	4.9942
12.028	5.4588
12.000	5.9112
11.973	6.3760
11.945	6.8826
11.918	7.4374
11.890	7.9942
11.863	8.5104
11.836	8.9628
11.809	9.3270
11.782	9.6140
11.755	9.8480
11.729	10.067
11.702	10.277
11.676	10.464
11.650	10.623
11.624	10.743
11.598	10.800
11.572	10.797
11.546	10.740
11.520	10.627
11.495	10.451
11.469	10.224
11.444	9.9704
11.419	9.7327
11.394	9.5579
11.369	9.4878
11.344	9.5330
11.319	9.6616
11.294	9.8264
11.270	9.9879
11.245	10.107
11.221	10.167
11.197	10.162
11.173	10.107
11.149	10.027
11.125	9.9294
11.101	9.8155
11.077	9.6912
11.054	9.5648
11.030	9.4336
11.007	9.3080
10.983	9.1993
10.960	9.1096
10.937	9.0317
10.914	8.9516
10.891	8.8657
10.868	8.7698
10.846	8.6535
10.823	8.5225
10.800	8.3797
10.778	8.2301
10.755	8.0738
10.733	7.9075
10.711	7.7472
10.689	7.5890
10.667	7.4289
10.645	7.2681
10.623	7.1064
10.602	6.9491
10.580	6.7973
10.558	6.6649
10.537	6.5790
10.516	6.5411
10.494	6.5418
10.473	6.5633
10.452	6.5825
10.431	6.5847
10.410	6.5527
10.389	6.4923
10.368	6.4163
10.348	6.3308
10.327	6.2337
10.306	6.1314
10.286	6.0364
10.266	5.9502
10.245	5.8607
10.225	5.7714
10.205	5.6743
10.185	5.5680
10.165	5.4577
10.145	5.3433
10.125	5.2372
10.106	5.1458
10.086	5.0660
10.066	4.9959
10.047	4.9336
10.027	4.8853
10.008	4.8564
9.9887	4.8363
9.9695	4.8284
9.9504	4.8346
9.9313	4.8479
9.9123	4.8599
9.8934	4.8713
9.8746	4.8746
9.8558	4.8666
9.8371	4.8429
9.8185	4.7993
9.7999	4.7439
9.7814	4.6802
9.7630	4.6189
9.7447	4.5660
9.7264	4.5170
9.7082	4.4718
9.6900	4.4237
9.6719	4.3681
9.6539	4.3100
9.6360	4.2553
9.6181	4.2217
9.6003	4.2130
9.5825	4.2340
9.5649	4.2809
9.5472	4.3387
9.5297	4.4064
9.5122	4.4948
9.4948	4.6087
9.4774	4.7614
9.4601	4.9679
9.4429	5.2618
9.4257	5.6500
9.4086	6.1226
9.3916	6.6614
9.3746	7.2328
9.3577	7.7811
9.3408	8.2447
9.3240	8.5924
9.3073	8.8245
9.2906	8.9566
9.2740	9.0113
9.2574	9.0063
9.2409	8.9715
9.2245	8.9313
9.2081	8.8894
9.1918	8.8529
9.1755	8.8226
9.1593	8.8084
9.1431	8.7949
9.1270	8.7664
9.1110	8.7364
9.0950	8.7051
9.0791	8.6701
9.0632	8.6336
9.0474	8.5936
9.0316	8.5493
9.0159	8.4932
9.0003	8.4176
8.9847	8.3276
8.9691	8.2291
8.9536	8.1382
8.9382	8.0693
8.9228	8.0269
8.9075	8.0041
8.8922	7.9918
8.8770	7.9679
8.8618	7.9227
8.8467	7.8613
8.8316	7.7822
8.8166	7.6844
8.8016	7.5833
8.7867	7.4772
8.7718	7.3647
8.7570	7.2515
8.7422	7.1393
8.7275	7.0187
8.7129	6.8679
8.6982	6.6465
8.6837	6.3119
8.6692	5.8671
8.6547	5.4060
8.6403	5.0700
8.6259	4.9710
8.6116	5.1387
8.5973	5.5268
8.5830	6.0139
8.5688	6.4457
8.5547	6.7412
8.5406	6.9041
8.5266	6.9801
8.5126	7.0055
8.4986	6.9944
8.4847	6.9565
8.4708	6.9020
8.4570	6.8355
8.4432	6.7734
8.4295	6.7251
8.4158	6.6969
8.4022	6.6903
8.3886	6.7047
8.3750	6.7443
8.3615	6.8092
8.3481	6.8958
8.3347	7.0067
8.3213	7.1402
8.3079	7.3029
8.2946	7.4997
8.2814	7.7356
8.2682	8.0103
8.2550	8.3217
8.2419	8.6622
8.2288	9.0179
8.2158	9.3680
8.2028	9.6848
8.1898	9.9474
8.1769	10.126
8.1640	10.178
8.1512	10.103
8.1384	9.9115
8.1256	9.6301
8.1129	9.2903
8.1002	8.9287
8.0876	8.5798
8.0750	8.2473
8.0624	7.9194
8.0499	7.6122
8.0374	7.3344
8.0250	7.0843
8.0126	6.8504
8.0002	6.6263
7.9879	6.3954
7.9756	6.1423
7.9634	5.8555
7.9512	5.5469
7.9390	5.2360
7.9268	4.9333
7.9147	4.6425
7.9027	4.3700
7.8906	4.1168
7.8786	3.8828
7.8667	3.6690
7.8548	3.4767
7.8429	3.3102
7.8310	3.1738
7.8192	3.0677
7.8075	2.9931
7.7957	2.9460
7.7840	2.9199
7.7723	2.9043
7.7607	2.8851
7.7491	2.8562
7.7375	2.8169
7.7260	2.7686
7.7145	2.7175
7.7031	2.6684
7.6916	2.6237
7.6802	2.5775
7.6689	2.5247
7.6575	2.4688
7.6462	2.4049
7.6350	2.3324
7.6238	2.2635
7.6126	2.2057
7.6014	2.1645
7.5903	2.1446
7.5792	2.1444
7.5681	2.1576
7.5571	2.1721
7.5461	2.1806
7.5351	2.1825
7.5242	2.1766
7.5133	2.1707
7.5024	2.1697
7.4916	2.1683
7.4807	2.1730
7.4700	2.1863
7.4592	2.2029
7.4485	2.2280
7.4378	2.2640
7.4272	2.3104
7.4165	2.3599
7.4059	2.4077
7.3954	2.4577
7.3848	2.5024
7.3743	2.5375
7.3639	2.5706
7.3534	2.6043
7.3430	2.6445
7.3326	2.6919
7.3223	2.7449
7.3119	2.8051
7.3016	2.8678
7.2914	2.9351
7.2811	3.0085
7.2709	3.0890
7.2607	3.1807
7.2506	3.2749
7.2404	3.3590
7.2303	3.4355
7.2203	3.5013
7.2102	3.5468
7.2002	3.5643
7.1902	3.5551
7.1803	3.5342
7.1703	3.5108
7.1604	3.4916
7.1506	3.4937
7.1407	3.5236
7.1309	3.5629
7.1211	3.5956
7.1113	3.6145
7.1016	3.6219
7.0919	3.6178
7.0822	3.5963
7.0725	3.5650
7.0629	3.5364
7.0533	3.5110
7.0437	3.4902
7.0341	3.4765
7.0246	3.4660
7.0151	3.4542
7.0056	3.4331
6.9962	3.4090
6.9867	3.3869
6.9773	3.3663
6.9679	3.3474
6.9586	3.3367
6.9493	3.3282
6.9400	3.3202
6.9307	3.3173
6.9214	3.3190
6.9122	3.3140
6.9030	3.2979
6.8938	3.2695
6.8847	3.2396
6.8755	3.2100
6.8664	3.1826
6.8573	3.1646
6.8483	3.1610
6.8393	3.1684
6.8302	3.1811
6.8213	3.1916
6.8123	3.1991
6.8034	3.2032
6.7944	3.2077
6.7855	3.2126
6.7767	3.2167
6.7678	3.2197
6.7590	3.2280
6.7502	3.2389
6.7414	3.2489
6.7327	3.2636
6.7239	3.2915
6.7152	3.3282
6.7065	3.3737
6.6979	3.4350
6.6892	3.5243
6.6806	3.6422
6.6720	3.7789
6.6634	3.9167
6.6549	4.0453
6.6464	4.1561
6.6378	4.2534
6.6294	4.3430
6.6209	4.4244
6.6124	4.5068
6.6040	4.5850
6.5956	4.6492
6.5872	4.7020
6.5789	4.7479
6.5705	4.7979
6.5622	4.8644
6.5539	4.9686
6.5456	5.1403
6.5374	5.4077
6.5292	5.7842
6.5209	6.2567
6.5128	6.8082
6.5046	7.4093
6.4964	8.0337
6.4883	8.6658
6.4802	9.2858
6.4721	9.8861
6.4640	10.451
6.4560	10.960
6.4480	11.410
6.4399	11.771
6.4320	12.044
6.4240	12.250
6.4160	12.377
6.4081	12.417
6.4002	12.365
6.3923	12.217
6.3844	11.995
6.3766	11.700
6.3687	11.357
6.3609	11.015
6.3531	10.692
6.3454	10.379
6.3376	10.046
6.3299	9.6855
6.3221	9.3161
6.3144	8.9351
6.3068	8.5391
6.2991	8.1531
6.2914	7.7948
6.2838	7.4507
6.2762	7.1121
6.2686	6.7945
6.2611	6.5131
6.2535	6.2669
6.2460	6.0563
6.2385	5.8839
6.2310	5.7492
6.2235	5.6473
6.2160	5.5829
6.2086	5.5647
6.2011	5.6142
6.1937	5.7508
6.1863	5.9836
6.1790	6.3171
6.1716	6.7509
6.1643	7.2785
6.1570	7.8727
6.1496	8.5097
6.1424	9.1650
6.1351	9.8106
6.1278	10.430
6.1206	11.011
6.1134	11.564
6.1062	12.097
6.0990	12.598
6.0918	13.051
6.0847	13.443
6.0776	13.747
6.0704	13.936
6.0633	14.034
6.0563	14.093
6.0492	14.142
6.0421	14.180
6.0351	14.201
6.0281	14.203
6.0211	14.155
6.0141	14.005
6.0071	13.774
6.0002	13.484
5.9932	13.130
5.9863	12.726
5.9794	12.297
5.9725	11.870
5.9657	11.474
5.9588	11.115
5.9520	10.838
5.9451	10.678
5.9383	10.639
5.9315	10.741
5.9247	10.986
5.9180	11.342
5.9112	11.793
5.9045	12.302
5.8978	12.857
5.8911	13.452
5.8844	14.067
5.8777	14.696
5.8711	15.321
5.8644	15.928
5.8578	16.523
5.8512	17.098
5.8446	17.637
5.8380	18.152
5.8314	18.662
5.8249	19.166
5.8184	19.654
5.8118	20.138
5.8053	20.617
5.7988	21.087
5.7923	21.522
5.7859	21.903
5.7794	22.270
5.7730	22.632
5.7666	22.979
5.7602	23.324
5.7538	23.670
5.7474	24.008
5.7410	24.319
5.7347	24.573
5.7283	24.771
5.7220	24.920
5.7157	24.999
5.7094	24.985
5.7031	24.864
5.6969	24.615
5.6906	24.224
5.6844	23.679
5.6782	22.972
5.6719	22.127
5.6657	21.163
5.6596	20.097
5.6534	18.993
5.6472	17.914
5.6411	16.913
5.6349	16.029
5.6288	15.285
5.6227	14.680
5.6166	14.193
5.6106	13.797
5.6045	13.476
5.5984	13.206
5.5924	12.983
5.5864	12.810
5.5804	12.702
5.5744	12.660
5.5684	12.692
5.5624	12.813
5.5564	13.014
5.5505	13.280
5.5445	13.608
5.5386	13.991
5.5327	14.420
5.5268	14.879
5.5209	15.357
5.5151	15.852
5.5092	16.354
5.5033	16.857
5.4975	17.345
5.4917	17.819
5.4859	18.279
5.4801	18.716
5.4743	19.128
5.4685	19.490
5.4628	19.775
5.4570	19.951
5.4513	19.988
5.4455	19.861
5.4398	19.541
5.4341	19.031
5.4284	18.360
5.4228	17.540
5.4171	16.589
5.4114	15.540
5.4058	14.433
5.4002	13.304
5.3945	12.195
5.3889	11.160
5.3833	10.250
5.3778	9.4852
5.3722	8.8666
5.3666	8.3894
5.3611	8.0425
5.3555	7.8107
5.3500	7.6780
5.3445	7.6217
5.3390	7.6328
5.3335	7.6923
5.3280	7.7799
5.3225	7.8862
5.3171	8.0046
5.3116	8.1375
5.3062	8.2931
5.3008	8.4735
5.2954	8.6916
5.2900	8.9687
5.2846	9.3140
5.2792	9.7248
5.2738	10.194
5.2684	10.723
5.2631	11.318
5.2578	11.976
5.2524	12.709
5.2471	13.535
5.2418	14.454
5.2365	15.446
5.2312	16.471
5.2260	17.483
5.2207	18.430
5.2154	19.257
5.2102	19.926
5.2050	20.420
5.1998	20.743
5.1945	20.912
5.1893	20.958
5.1842	20.926
5.1790	20.852
5.1738	20.759
5.1686	20.661
5.1635	20.566
5.1584	20.463
5.1532	20.348
5.1481	20.228
5.1430	20.115
5.1379	20.024
5.1328	19.967
5.1277	19.953
5.1227	19.974
5.1176	19.990
5.1126	19.963
5.1075	19.868
5.1025	19.685
5.0975	19.409
5.0925	19.060
5.0875	18.674
5.0825	18.294
5.0775	17.952
5.0726	17.677
5.0676	17.485
5.0627	17.363
5.0577	17.295
5.0528	17.260
5.0479	17.239
5.0430	17.216
5.0380	17.186
5.0332	17.143
5.0283	17.083
5.0234	17.019
5.0185	16.975
5.0137	16.973
5.0088	17.023
5.0040	17.130
4.9992	17.306
4.9944	17.556
4.9896	17.895
4.9848	18.357
4.9800	18.970
4.9752	19.736
4.9704	20.617
4.9657	21.555
4.9609	22.477
4.9562	23.310
4.9514	24.008
4.9467	24.570
4.9420	25.027
4.9373	25.438
4.9326	25.873
4.9279	26.416
4.9232	27.141
4.9186	28.101
4.9139	29.330
4.9092	30.821
4.9046	32.524
4.9000	34.362
4.8953	36.248
4.8907	38.098
4.8861	39.841
4.8815	41.432
4.8769	42.863
4.8723	44.148
4.8678	45.300
4.8632	46.329
4.8586	47.263
4.8541	48.115
4.8495	48.886
4.8450	49.586
4.8405	50.236
4.8360	50.848
4.8315	51.421
4.8270	51.951
4.8225	52.448
4.8180	52.923
4.8135	53.376
4.8090	53.815
4.8046	54.238
4.8001	54.654
4.7957	55.055
4.7913	55.434
4.7868	55.797
4.7824	56.153
4.7780	56.497
4.7736	56.824
4.7692	57.130
4.7648	57.424
4.7605	57.699
4.7561	57.951
4.7517	58.187
4.7474	58.400
4.7431	58.587
4.7387	58.749
4.7344	58.877
4.7301	58.969
4.7258	59.020
4.7215	59.014
4.7172	58.929
4.7129	58.744
4.7086	58.444
4.7043	58.014
4.7000	57.459
4.6958	56.838
4.6915	56.254
4.6873	55.813
4.6831	55.608
4.6788	55.692
4.6746	56.056
4.6704	56.626
4.6662	57.303
4.6620	58.000
4.6578	58.670
4.6536	59.300
4.6495	59.896
4.6453	60.473
4.6411	61.042
4.6370	61.600
4.6328	62.134
4.6287	62.622
4.6246	63.045
4.6205	63.401
4.6163	63.701
4.6122	63.955
4.6081	64.176
4.6040	64.373
4.6000	64.550
4.5959	64.703
4.5918	64.822
4.5877	64.909
4.5837	64.971
4.5796	65.002
4.5756	65.001
4.5716	64.969
4.5675	64.896
4.5635	64.774
4.5595	64.602
4.5555	64.371
4.5515	64.071
4.5475	63.698
4.5435	63.256
4.5395	62.751
4.5356	62.187
4.5316	61.571
4.5276	60.912
4.5237	60.194
4.5197	59.411
4.5158	58.568
4.5119	57.686
4.5080	56.814
4.5040	56.006
4.5001	55.312
4.4962	54.761
4.4923	54.338
4.4884	54.014
4.4846	53.740
4.4807	53.487
4.4768	53.258
4.4730	53.083
4.4691	53.001
4.4652	53.058
4.4614	53.265
4.4576	53.604
4.4537	54.017
4.4499	54.435
4.4461	54.804
4.4423	55.114
4.4385	55.383
4.4347	55.644
4.4309	55.921
4.4271	56.229
4.4233	56.566
4.4196	56.915
4.4158	57.266
4.4120	57.627
4.4083	58.011
4.4045	58.423
4.4008	58.853
4.3971	59.300
4.3934	59.768
4.3896	60.250
4.3859	60.742
4.3822	61.240
4.3785	61.734
4.3748	62.221
4.3711	62.689
4.3674	63.134
4.3638	63.559
4.3601	63.961
4.3564	64.329
4.3528	64.660
4.3491	64.948
4.3455	65.200
4.3418	65.423
4.3382	65.606
4.3346	65.753
4.3310	65.863
4.3273	65.928
4.3237	65.948
4.3201	65.919
4.3165	65.860
4.3129	65.775
4.3094	65.668
4.3058	65.549
4.3022	65.434
4.2986	65.335
4.2951	65.257
4.2915	65.205
4.2880	65.190
4.2844	65.208
4.2809	65.253
4.2774	65.328
4.2738	65.439
4.2703	65.587
4.2668	65.769
4.2633	65.971
4.2598	66.166
4.2563	66.329
4.2528	66.441
4.2493	66.495
4.2458	66.498
4.2424	66.472
4.2389	66.445
4.2354	66.432
4.2320	66.452
4.2285	66.508
4.2251	66.593
4.2216	66.688
4.2182	66.772
4.2148	66.832
4.2113	66.866
4.2079	66.875
4.2045	66.877
4.2011	66.888
4.1977	66.921
4.1943	66.981
4.1909	67.070
4.1875	67.185
4.1841	67.318
4.1808	67.459
4.1774	67.600
4.1740	67.741
4.1707	67.876
4.1673	67.998
4.1640	68.116
4.1606	68.221
4.1573	68.313
4.1540	68.401
4.1506	68.488
4.1473	68.584
4.1440	68.691
4.1407	68.797
4.1374	68.907
4.1341	69.019
4.1308	69.132
4.1275	69.246
4.1242	69.364
4.1209	69.492
4.1177	69.625
4.1144	69.756
4.1111	69.890
4.1079	70.026
4.1046	70.160
4.1014	70.288
4.0981	70.411
4.0949	70.530
4.0917	70.642
4.0884	70.743
4.0852	70.835
4.0820	70.912
4.0788	70.973
4.0756	71.025
4.0724	71.071
4.0692	71.099
4.0660	71.107
4.0628	71.100
4.0596	71.079
4.0565	71.043
4.0533	70.987
4.0501	70.916
4.0470	70.833
4.0438	70.727
4.0406	70.598
4.0375	70.453
4.0344	70.291
4.0312	70.109
4.0281	69.908
4.0250	69.699
4.0218	69.485
4.0187	69.257
4.0156	69.012
4.0125	68.744
4.0094	68.449
4.0063	68.120
4.0032	67.764
4.0001	67.392
3.9970	67.009
3.9940	66.625
3.9909	66.260
3.9878	65.937
3.9847	65.677
3.9817	65.493
3.9786	65.389
3.9756	65.365
3.9725	65.405
3.9695	65.500
3.9665	65.653
3.9634	65.862
3.9604	66.128
3.9574	66.440
3.9544	66.789
3.9513	67.166
3.9483	67.557
3.9453	67.944
3.9423	68.309
3.9393	68.634
3.9363	68.908
3.9333	69.118
3.9304	69.279
3.9274	69.411
3.9244	69.526
3.9214	69.634
3.9185	69.741
3.9155	69.841
3.9126	69.926
3.9096	69.999
3.9067	70.066
3.9037	70.123
3.9008	70.160
3.8979	70.175
3.8949	70.178
3.8920	70.166
3.8891	70.140
3.8862	70.106
3.8833	70.075
3.8804	70.047
3.8775	70.012
3.8746	69.976
3.8717	69.948
3.8688	69.932
3.8659	69.918
3.8630	69.913
3.8601	69.925
3.8573	69.947
3.8544	69.973
3.8515	70.014
3.8487	70.067
3.8458	70.124
3.8430	70.184
3.8401	70.251
3.8373	70.323
3.8344	70.395
3.8316	70.462
3.8288	70.534
3.8259	70.608
3.8231	70.677
3.8203	70.745
3.8175	70.808
3.8147	70.865
3.8119	70.913
3.8091	70.956
3.8063	71.008
3.8035	71.062
3.8007	71.119
3.7979	71.183
3.7951	71.240
3.7924	71.282
3.7896	71.306
3.7868	71.311
3.7841	71.301
3.7813	71.278
3.7785	71.247
3.7758	71.212
3.7730	71.174
3.7703	71.124
3.7676	71.072
3.7648	71.023
3.7621	70.967
3.7594	70.909
3.7566	70.852
3.7539	70.802
3.7512	70.760
3.7485	70.718
3.7458	70.684
3.7431	70.659
3.7404	70.633
3.7377	70.610
3.7350	70.599
3.7323	70.599
3.7296	70.606
3.7269	70.622
3.7242	70.643
3.7216	70.672
3.7189	70.705
3.7162	70.742
3.7136	70.789
3.7109	70.839
3.7083	70.888
3.7056	70.940
3.7030	71.001
3.7003	71.062
3.6977	71.113
3.6950	71.162
3.6924	71.218
3.6898	71.274
3.6872	71.327
3.6845	71.385
3.6819	71.449
3.6793	71.494
3.6767	71.524
3.6741	71.559
3.6715	71.602
3.6689	71.639
3.6663	71.668
3.6637	71.690
3.6611	71.702
3.6585	71.706
3.6560	71.714
3.6534	71.729
3.6508	71.741
3.6482	71.738
3.6457	71.722
3.6431	71.690
3.6406	71.646
3.6380	71.616
3.6355	71.598
3.6329	71.584
3.6304	71.566
3.6278	71.538
3.6253	71.498
3.6227	71.451
3.6202	71.404
3.6177	71.368
3.6152	71.339
3.6127	71.304
3.6101	71.268
3.6076	71.230
3.6051	71.191
3.6026	71.157
3.6001	71.123
3.5976	71.088
3.5951	71.055
3.5926	71.017
3.5901	70.980
3.5876	70.951
3.5852	70.924
3.5827	70.896
3.5802	70.866
3.5777	70.839
3.5753	70.811
3.5728	70.772
3.5704	70.729
3.5679	70.692
3.5654	70.648
3.5630	70.597
3.5605	70.550
3.5581	70.519
3.5557	70.482
3.5532	70.429
3.5508	70.379
3.5484	70.336
3.5459	70.276
3.5435	70.204
3.5411	70.129
3.5387	70.058
3.5363	69.971
3.5338	69.855
3.5314	69.731
3.5290	69.609
3.5266	69.467
3.5242	69.317
3.5218	69.171
3.5195	69.023
3.5171	68.869
3.5147	68.703
3.5123	68.524
3.5099	68.340
3.5075	68.153
3.5052	67.977
3.5028	67.829
3.5004	67.700
3.4981	67.590
3.4957	67.496
3.4934	67.399
3.4910	67.298
3.4887	67.198
3.4863	67.092
3.4840	66.985
3.4816	66.888
3.4793	66.812
3.4770	66.772
3.4746	66.777
3.4723	66.818
3.4700	66.880
3.4677	66.949
3.4653	67.020
3.4630	67.091
3.4607	67.147
3.4584	67.187
3.4561	67.207
3.4538	67.201
3.4515	67.170
3.4492	67.117
3.4469	67.055
3.4446	67.008
3.4423	66.973
3.4400	66.936
3.4378	66.900
3.4355	66.862
3.4332	66.810
3.4309	66.729
3.4287	66.630
3.4264	66.529
3.4241	66.423
3.4219	66.310
3.4196	66.212
3.4174	66.141
3.4151	66.087
3.4129	66.044
3.4106	66.017
3.4084	66.000
3.4061	65.988
3.4039	65.975
3.4017	65.970
3.3994	65.969
3.3972	65.961
3.3950	65.942
3.3928	65.912
3.3906	65.870
3.3883	65.822
3.3861	65.767
3.3839	65.716
3.3817	65.665
3.3795	65.620
3.3773	65.581
3.3751	65.546
3.3729	65.504
3.3707	65.457
3.3685	65.398
3.3663	65.331
3.3641	65.262
3.3620	65.183
3.3598	65.092
3.3576	65.002
3.3554	64.921
3.3533	64.853
3.3511	64.801
3.3489	64.783
3.3468	64.805
3.3446	64.847
3.3425	64.899
3.3403	64.958
3.3382	65.014
3.3360	65.056
3.3339	65.080
3.3317	65.097
3.3296	65.104
3.3274	65.100
3.3253	65.081
3.3232	65.048
3.3210	65.001
3.3189	64.948
3.3168	64.899
3.3147	64.856
3.3126	64.813
3.3104	64.774
3.3083	64.740
3.3062	64.702
3.3041	64.660
3.3020	64.617
3.2999	64.581
3.2978	64.548
3.2957	64.517
3.2936	64.495
3.2915	64.482
3.2894	64.455
3.2874	64.410
3.2853	64.354
3.2832	64.297
3.2811	64.241
3.2790	64.193
3.2770	64.148
3.2749	64.108
3.2728	64.059
3.2708	63.996
3.2687	63.929
3.2666	63.870
3.2646	63.819
3.2625	63.768
3.2605	63.710
3.2584	63.655
3.2564	63.602
3.2543	63.545
3.2523	63.487
3.2503	63.426
3.2482	63.367
3.2462	63.304
3.2442	63.233
3.2421	63.162
3.2401	63.098
3.2381	63.042
3.2361	62.981
3.2340	62.921
3.2320	62.862
3.2300	62.803
3.2280	62.740
3.2260	62.678
3.2240	62.627
3.2220	62.583
3.2200	62.527
3.2180	62.462
3.2160	62.391
3.2140	62.319
3.2120	62.247
3.2100	62.178
3.2080	62.123
3.2060	62.071
3.2040	62.010
3.2021	61.944
3.2001	61.866
3.1981	61.788
3.1961	61.715
3.1942	61.654
3.1922	61.605
3.1902	61.561
3.1883	61.510
3.1863	61.450
3.1844	61.375
3.1824	61.300
3.1805	61.234
3.1785	61.175
3.1766	61.119
3.1746	61.062
3.1727	60.994
3.1707	60.913
3.1688	60.826
3.1669	60.753
3.1649	60.693
3.1630	60.630
3.1611	60.564
3.1591	60.492
3.1572	60.422
3.1553	60.351
3.1534	60.275
3.1515	60.204
3.1495	60.134
3.1476	60.061
3.1457	59.983
3.1438	59.893
3.1419	59.805
3.1400	59.726
3.1381	59.648
3.1362	59.572
3.1343	59.508
3.1324	59.455
3.1305	59.408
3.1286	59.357
3.1268	59.297
3.1249	59.235
3.1230	59.175
3.1211	59.110
3.1192	59.042
3.1174	58.984
3.1155	58.939
3.1136	58.909
3.1117	58.882
3.1099	58.851
3.1080	58.819
3.1061	58.783
3.1043	58.744
3.1024	58.711
3.1006	58.673
3.0987	58.636
3.0969	58.604
3.0950	58.566
3.0932	58.527
3.0913	58.490
3.0895	58.461
3.0876	58.427
3.0858	58.379
3.0840	58.332
3.0821	58.294
3.0803	58.264
3.0785	58.237
3.0766	58.208
3.0748	58.171
3.0730	58.121
3.0712	58.065
3.0694	58.021
3.0675	57.980
3.0657	57.931
3.0639	57.877
3.0621	57.820
3.0603	57.751
3.0585	57.682
3.0567	57.625
3.0549	57.580
3.0531	57.534
3.0513	57.477
3.0495	57.419
3.0477	57.367
3.0459	57.320
3.0441	57.279
3.0423	57.247
3.0406	57.214
3.0388	57.179
3.0370	57.135
3.0352	57.084
3.0334	57.044
3.0317	57.011
3.0299	56.986
3.0281	56.978
3.0264	56.970
3.0246	56.952
3.0228	56.917
3.0211	56.872
3.0193	56.831
3.0176	56.790
3.0158	56.749
3.0140	56.719
3.0123	56.697
3.0105	56.680
3.0088	56.653
3.0070	56.614
3.0053	56.564
3.0036	56.509
3.0018	56.456
3.0001	56.417
2.9984	56.396
2.9966	56.373
2.9949	56.338
2.9932	56.300
2.9914	56.248
2.9897	56.189
2.9880	56.139
2.9863	56.093
2.9845	56.052
2.9828	56.017
2.9811	55.980
2.9794	55.949
2.9777	55.916
2.9760	55.874
2.9743	55.830
2.9726	55.788
2.9709	55.757
2.9692	55.731
2.9675	55.699
2.9658	55.665
2.9641	55.629
2.9624	55.579
2.9607	55.529
2.9590	55.494
2.9573	55.473
2.9556	55.457
2.9539	55.440
2.9523	55.425
2.9506	55.413
2.9489	55.395
2.9472	55.377
2.9455	55.355
2.9439	55.331
2.9422	55.305
2.9405	55.272
2.9389	55.242
2.9372	55.217
2.9355	55.201
2.9339	55.191
2.9322	55.170
2.9306	55.139
2.9289	55.109
2.9272	55.087
2.9256	55.072
2.9239	55.053
2.9223	55.037
2.9207	55.023
2.9190	55.005
2.9174	54.986
2.9157	54.978
2.9141	54.981
2.9124	54.993
2.9108	54.988
2.9092	54.978
2.9075	54.971
2.9059	54.951
2.9043	54.936
2.9027	54.940
2.9010	54.948
2.8994	54.965
2.8978	54.975
2.8962	54.976
2.8946	54.971
2.8929	54.954
2.8913	54.950
2.8897	54.969
2.8881	54.998
2.8865	55.032
2.8849	55.060
2.8833	55.075
2.8817	55.079
2.8801	55.070
2.8785	55.064
2.8769	55.064
2.8753	55.069
2.8737	55.077
2.8721	55.089
2.8705	55.110
2.8689	55.130
2.8673	55.139
2.8658	55.149
2.8642	55.163
2.8626	55.176
2.8610	55.182
2.8594	55.174
2.8579	55.161
2.8563	55.153
2.8547	55.150
2.8531	55.155
2.8516	55.170
2.8500	55.177
2.8484	55.171
2.8469	55.161
2.8453	55.152
2.8437	55.144
2.8422	55.150
2.8406	55.167
2.8391	55.164
2.8375	55.143
2.8360	55.118
2.8344	55.093
2.8329	55.059
2.8313	55.013
2.8298	54.981
2.8282	54.967
2.8267	54.940
2.8252	54.902
2.8236	54.861
2.8221	54.808
2.8205	54.740
2.8190	54.654
2.8175	54.567
2.8159	54.485
2.8144	54.395
2.8129	54.295
2.8114	54.192
2.8098	54.080
2.8083	53.939
2.8068	53.757
2.8053	53.539
2.8038	53.295
2.8022	53.030
2.8007	52.736
2.7992	52.405
2.7977	52.020
2.7962	51.566
2.7947	51.035
2.7932	50.431
2.7917	49.771
2.7902	49.078
2.7887	48.363
2.7872	47.622
2.7857	46.846
2.7842	46.037
2.7827	45.177
2.7812	44.229
2.7797	43.165
2.7782	41.980
2.7767	40.671
2.7752	39.223
2.7738	37.661
2.7723	36.031
2.7708	34.388
2.7693	32.750
2.7678	31.097
2.7664	29.452
2.7649	27.900
2.7634	26.563
2.7619	25.533
2.7605	24.819
2.7590	24.385
2.7575	24.170
2.7561	24.109
2.7546	24.180
2.7531	24.384
2.7517	24.713
2.7502	25.100
2.7488	25.410
2.7473	25.550
2.7458	25.516
2.7444	25.366
2.7429	25.193
2.7415	25.071
2.7400	25.028
2.7386	25.067
2.7371	25.179
2.7357	25.362
2.7343	25.597
2.7328	25.869
2.7314	26.161
2.7299	26.421
2.7285	26.554
2.7271	26.365
2.7256	25.594
2.7242	24.435
2.7228	23.542
2.7213	23.437
2.7199	24.226
2.7185	25.696
2.7171	27.409
2.7156	28.729
2.7142	29.147
2.7128	28.849
2.7114	28.471
2.7100	28.466
2.7085	29.009
2.7071	30.095
2.7057	31.538
2.7043	33.096
2.7029	34.811
2.7015	36.987
2.7001	39.792
2.6987	43.162
2.6973	46.896
2.6959	50.737
2.6945	54.315
2.6931	57.334
2.6917	59.817
2.6903	61.961
2.6889	63.856
2.6875	65.482
2.6861	66.857
2.6847	68.052
2.6833	69.067
2.6819	69.933
2.6805	70.646
2.6791	71.280
2.6778	71.922
2.6764	72.585
2.6750	73.177
2.6736	73.715
2.6722	74.282
2.6709	74.856
2.6695	75.383
2.6681	75.945
2.6667	76.596
2.6654	77.249
2.6640	77.745
2.6626	78.124
2.6613	78.504
2.6599	78.804
2.6585	79.022
2.6572	79.200
2.6558	79.380
2.6545	79.555
2.6531	79.719
2.6517	79.879
2.6504	80.042
2.6490	80.176
2.6477	80.298
2.6463	80.388
2.6450	80.457
2.6436	80.531
2.6423	80.616
2.6409	80.716
2.6396	80.813
2.6382	80.878
2.6369	80.944
2.6356	80.984
2.6342	80.943
2.6329	80.885
2.6315	80.852
2.6302	80.825
2.6289	80.844
2.6275	80.911
2.6262	81.042
2.6249	81.111
2.6236	81.068
2.6222	81.039
2.6209	80.977
2.6196	80.866
2.6183	80.816
2.6169	80.823
2.6156	80.859
2.6143	80.843
2.6130	80.801
2.6117	80.789
2.6103	80.729
2.6090	80.621
2.6077	80.561
2.6064	80.544
2.6051	80.582
2.6038	80.663
2.6025	80.784
2.6012	80.944
2.5999	81.030
2.5986	80.945
2.5973	80.832
2.5960	80.798
2.5947	80.874
2.5934	81.061
2.5921	81.317
2.5908	81.573
2.5895	81.762
2.5882	81.795
2.5869	81.756
2.5856	81.758
2.5843	81.794
2.5830	81.879
2.5817	81.983
2.5805	82.059
2.5792	82.142
2.5779	82.173
2.5766	82.125
2.5753	82.085
2.5741	82.041
2.5728	82.023
2.5715	82.056
2.5702	82.115
2.5690	82.188
2.5677	82.227
2.5664	82.230
2.5651	82.232
2.5639	82.222
2.5626	82.226
2.5613	82.284
2.5601	82.378
2.5588	82.475
2.5575	82.545
2.5563	82.580
2.5550	82.568
2.5538	82.534
2.5525	82.509
2.5513	82.495
2.5500	82.500
2.5487	82.533
2.5475	82.579
2.5462	82.622
2.5450	82.678
2.5437	82.743
2.5425	82.801
2.5413	82.846
2.5400	82.881
2.5388	82.905
2.5375	82.906
2.5363	82.882
2.5350	82.869
2.5338	82.861
2.5326	82.852
2.5313	82.854
2.5301	82.862
2.5289	82.870
2.5276	82.861
2.5264	82.830
2.5252	82.789
2.5239	82.722
2.5227	82.650
2.5215	82.579
2.5202	82.508
2.5190	82.441
2.5178	82.377
2.5166	82.317
2.5154	82.246
2.5141	82.164
2.5129	82.106
2.5117	82.063
2.5105	82.020
2.5093	81.989
2.5081	81.966
2.5068	81.946
2.5056	81.926
2.5044	81.915
2.5032	81.902
2.5020	81.877
2.5008	81.864
2.4996	81.876
2.4984	81.892
2.4972	81.901
2.4960	81.902
2.4948	81.905
2.4936	81.892
2.4924	81.879
2.4912	81.901
2.4900	81.955
2.4888	82.016
2.4876	82.050
2.4864	82.055
2.4852	82.051
2.4840	82.050
2.4828	82.051
2.4816	82.054
2.4805	82.075
2.4793	82.115
2.4781	82.153
2.4769	82.188
2.4757	82.222
2.4745	82.261
2.4734	82.282
2.4722	82.272
2.4710	82.253
2.4698	82.248
2.4686	82.256
2.4675	82.261
2.4663	82.259
2.4651	82.254
2.4640	82.253
2.4628	82.238
2.4616	82.211
2.4604	82.181
2.4593	82.148
2.4581	82.107
2.4569	82.067
2.4558	82.030
2.4546	82.005
2.4535	81.984
2.4523	81.965
2.4511	81.935
2.4500	81.900
2.4488	81.869
2.4477	81.839
2.4465	81.797
2.4454	81.749
2.4442	81.717
2.4431	81.689
2.4419	81.658
2.4408	81.635
2.4396	81.625
2.4385	81.612
2.4373	81.591
2.4362	81.584
2.4350	81.593
2.4339	81.614
2.4327	81.659
2.4316	81.716
2.4305	81.774
2.4293	81.821
2.4282	81.880
2.4270	81.948
2.4259	82.000
2.4248	82.066
2.4236	82.157
2.4225	82.257
2.4214	82.355
2.4202	82.445
2.4191	82.538
2.4180	82.620
2.4169	82.675
2.4157	82.738
2.4146	82.825
2.4135	82.910
2.4124	82.986
2.4112	83.063
2.4101	83.139
2.4090	83.210
2.4079	83.270
2.4068	83.321
2.4056	83.377
2.4045	83.412
2.4034	83.438
2.4023	83.486
2.4012	83.533
2.4001	83.560
2.3990	83.582
2.3979	83.602
2.3967	83.617
2.3956	83.630
2.3945	83.632
2.3934	83.633
2.3923	83.633
2.3912	83.628
2.3901	83.626
2.3890	83.637
2.3879	83.649
2.3868	83.663
2.3857	83.673
2.3846	83.673
2.3835	83.685
2.3824	83.714
2.3813	83.767
2.3802	83.829
2.3791	83.881
2.3781	83.923
2.3770	83.952
2.3759	83.973
2.3748	83.993
2.3737	84.025
2.3726	84.076
2.3715	84.119
2.3704	84.138
2.3694	84.134
2.3683	84.129
2.3672	84.135
2.3661	84.136
2.3650	84.133
2.3640	84.134
2.3629	84.126
2.3618	84.103
2.3607	84.074
2.3597	84.040
2.3586	83.994
2.3575	83.936
2.3564	83.875
2.3554	83.826
2.3543	83.764
2.3532	83.688
2.3522	83.610
2.3511	83.533
2.3500	83.462
2.3490	83.398
2.3479	83.353
2.3468	83.338
2.3458	83.324
2.3447	83.298
2.3436	83.276
2.3426	83.258
2.3415	83.246
2.3405	83.228
2.3394	83.227
2.3384	83.255
2.3373	83.306
2.3363	83.354
2.3352	83.403
2.3342	83.451
2.3331	83.499
2.3321	83.541
2.3310	83.574
2.3300	83.610
2.3289	83.645
2.3279	83.655
2.3268	83.644
2.3258	83.629
2.3247	83.633
2.3237	83.673
2.3226	83.727
2.3216	83.785
2.3206	83.848
2.3195	83.927
2.3185	84.024
2.3175	84.140
2.3164	84.273
2.3154	84.417
2.3144	84.545
2.3133	84.640
2.3123	84.732
2.3113	84.845
2.3102	84.965
2.3092	85.068
2.3082	85.162
2.3071	85.264
2.3061	85.365
2.3051	85.458
2.3041	85.549
2.3030	85.633
2.3020	85.697
2.3010	85.745
2.3000	85.806
2.2990	85.892
2.2979	85.976
2.2969	86.045
2.2959	86.090
2.2949	86.131
2.2939	86.170
2.2929	86.206
2.2918	86.254
2.2908	86.303
2.2898	86.341
2.2888	86.373
2.2878	86.394
2.2868	86.426
2.2858	86.468
2.2848	86.521
2.2838	86.575
2.2828	86.608
2.2818	86.641
2.2808	86.683
2.2798	86.718
2.2787	86.751
2.2777	86.776
2.2767	86.799
2.2757	86.808
2.2747	86.812
2.2738	86.823
2.2728	86.846
2.2718	86.868
2.2708	86.893
2.2698	86.913
2.2688	86.929
2.2678	86.957
2.2668	86.994
2.2658	87.019
2.2648	87.036
2.2638	87.054
2.2628	87.077
2.2618	87.092
2.2609	87.108
2.2599	87.146
2.2589	87.169
2.2579	87.190
2.2569	87.212
2.2559	87.233
2.2550	87.241
2.2540	87.233
2.2530	87.228
2.2520	87.229
2.2510	87.202
2.2501	87.198
2.2491	87.212
2.2481	87.211
2.2471	87.197
2.2462	87.189
2.2452	87.198
2.2442	87.207
2.2433	87.193
2.2423	87.186
2.2413	87.196
2.2403	87.187
2.2394	87.169
2.2384	87.161
2.2374	87.150
2.2365	87.137
2.2355	87.119
2.2345	87.093
2.2336	87.067
2.2326	87.037
2.2317	87.010
2.2307	86.987
2.2297	86.967
2.2288	86.974
2.2278	86.983
2.2269	86.967
2.2259	86.921
2.2250	86.855
2.2240	86.770
2.2231	86.668
2.2221	86.571
2.2211	86.486
2.2202	86.393
2.2192	86.291
2.2183	86.173
2.2173	86.035
2.2164	85.874
2.2155	85.676
2.2145	85.444
2.2136	85.192
2.2126	84.910
2.2117	84.587
2.2107	84.229
2.2098	83.879
2.2088	83.566
2.2079	83.299
2.2070	83.073
2.2060	82.881
2.2051	82.700
2.2041	82.505
2.2032	82.292
2.2023	82.073
2.2013	81.873
2.2004	81.713
2.1995	81.570
2.1985	81.433
2.1976	81.330
2.1967	81.272
2.1957	81.243
2.1948	81.245
2.1939	81.296
2.1930	81.383
2.1920	81.485
2.1911	81.613
2.1902	81.782
2.1893	81.966
2.1883	82.168
2.1874	82.400
2.1865	82.647
2.1856	82.898
2.1846	83.148
2.1837	83.390
2.1828	83.611
2.1819	83.797
2.1810	83.967
2.1800	84.141
2.1791	84.307
2.1782	84.457
2.1773	84.587
2.1764	84.669
2.1755	84.701
2.1746	84.701
2.1736	84.658
2.1727	84.582
2.1718	84.466
2.1709	84.311
2.1700	84.157
2.1691	84.019
2.1682	83.930
2.1673	83.935
2.1664	84.041
2.1655	84.209
2.1646	84.428
2.1637	84.717
2.1628	85.050
2.1619	85.403
2.1610	85.751
2.1601	86.081
2.1592	86.384
2.1583	86.605
2.1574	86.758
2.1565	86.900
2.1556	87.022
2.1547	87.126
2.1538	87.238
2.1529	87.367
2.1520	87.499
2.1511	87.619
2.1502	87.715
2.1493	87.792
2.1484	87.840
2.1475	87.884
2.1466	87.957
2.1458	88.036
2.1449	88.098
2.1440	88.146
2.1431	88.177
2.1422	88.202
2.1413	88.228
2.1404	88.268
2.1396	88.314
2.1387	88.337
2.1378	88.340
2.1369	88.340
2.1360	88.332
2.1352	88.348
2.1343	88.382
2.1334	88.421
2.1325	88.447
2.1316	88.448
2.1308	88.439
2.1299	88.435
2.1290	88.438
2.1281	88.440
2.1273	88.430
2.1264	88.437
2.1255	88.446
2.1247	88.453
2.1238	88.458
2.1229	88.470
2.1220	88.491
2.1212	88.495
2.1203	88.476
2.1194	88.479
2.1186	88.497
2.1177	88.510
2.1168	88.520
2.1160	88.532
2.1151	88.568
2.1143	88.613
2.1134	88.637
2.1125	88.643
2.1117	88.656
2.1108	88.687
2.1100	88.719
2.1091	88.751
2.1082	88.788
2.1074	88.812
2.1065	88.811
2.1057	88.780
2.1048	88.762
2.1040	88.786
2.1031	88.806
2.1023	88.825
2.1014	88.843
2.1005	88.842
2.0997	88.833
2.0988	88.824
2.0980	88.835
2.0971	88.874
2.0963	88.903
2.0955	88.915
2.0946	88.904
2.0938	88.882
2.0929	88.863
2.0921	88.852
2.0912	88.862
2.0904	88.902
2.0895	88.929
2.0887	88.913
2.0879	88.916
2.0870	88.941
2.0862	88.951
2.0853	88.970
2.0845	89.010
2.0837	89.064
2.0828	89.110
2.0820	89.150
2.0812	89.158
2.0803	89.191
2.0795	89.177
2.0760	89.177
2.0720	89.367
2.0680	89.383
2.0640	88.910
2.0600	88.737
2.0560	88.910
2.0520	89.116
2.0480	88.978
2.0440	89.184
2.0400	89.295
2.0360	88.969
2.0320	88.586
2.0280	88.078
2.0240	88.340
2.0200	88.212
2.0160	88.229
2.0120	88.002
2.0080	87.851
2.0040	87.701
2.0000	87.348
1.9960	86.939
1.9920	86.828
1.9880	86.773
1.9840	86.865
1.9800	86.902
1.9760	86.405
1.9720	86.056
1.9680	85.983
1.9640	86.022
1.9600	86.332
1.9560	86.129
1.9520	85.780
1.9480	85.615
1.9440	85.524
1.9400	85.320
1.9360	85.148
1.9320	85.061
1.9280	84.966
1.9240	85.185
1.9200	84.998
1.9160	84.925
1.9120	85.205
1.9080	85.298
1.9040	85.524
1.9000	85.688
1.8960	85.516
1.8920	85.795
1.8880	86.041
1.8840	85.936
1.8800	86.177
1.8760	86.720
1.8720	87.050
1.8680	86.272
1.8640	86.514
1.8600	86.774
1.8560	86.540
1.8520	86.576
1.8480	86.839
1.8440	87.057
1.8400	87.425
1.8360	87.463
1.8320	87.628
1.8280	87.293
1.8240	86.893
1.8200	86.570
1.8160	86.768
1.8120	86.643
1.8080	86.214
1.8040	86.517
1.8000	86.966
1.7960	86.251
1.7920	86.751
1.7880	86.285
1.7840	86.105
1.7800	86.248
1.7760	86.464
1.7720	86.411
1.7680	86.330
1.7640	86.330
1.7600	86.251
1.7560	86.269
1.7520	86.413
1.7480	86.005
1.7440	86.038
1.7400	85.733
1.7360	86.282
1.7320	86.587
1.7280	86.731
1.7240	86.731
1.7200	86.857
1.7160	86.498
1.7120	86.570
1.7080	86.347
1.7040	86.930
1.7000	85.870
1.6960	86.349
1.6920	86.048
1.6880	86.279
1.6840	85.697
1.6800	86.251
1.6760	86.500
1.6720	86.242
1.6680	86.011
1.6640	86.081
1.6600	86.420
1.6560	86.189
1.6520	85.748
1.6480	86.316
1.6440	86.597
1.6400	86.223
1.6360	85.954
1.6320	86.167
1.6280	86.294
1.6240	86.242
1.6200	85.654
1.6160	84.929
1.6120	84.948
1.6080	85.367
1.6040	85.718
1.6000	86.059
1.5960	86.025
1.5920	86.148
1.5880	86.347
1.5840	86.059
1.5800	86.253
1.5760	86.039
1.5720	85.987
1.5680	85.615
1.5640	85.215
1.5600	85.135
1.5560	85.351
1.5520	85.983
1.5480	85.908
1.5440	85.571
1.5400	84.515
1.5360	85.048
1.5320	85.168
1.5280	85.417
1.5240	85.386
1.5200	84.929
1.5160	84.968
1.5120	85.176
1.5080	85.628
1.5040	85.782
1.5000	85.679
1.4960	85.092
1.4920	84.988
1.4880	84.709
1.4840	84.571
1.4800	84.384
1.4760	84.424
1.4720	84.178
1.4680	85.008
1.4640	85.469
1.4600	85.188
1.4560	85.387
1.4520	85.446
1.4480	84.790
1.4440	84.709
1.4400	84.887
1.4360	84.937
1.4320	85.077
1.4280	85.027
1.4240	84.638
1.4200	84.389
1.4160	83.940
1.4120	83.203
1.4080	82.317
1.4040	81.839
1.4000	81.756
1.3960	81.642
1.3920	81.280
1.3880	80.877
1.3840	80.811
1.3800	82.075
1.3760	82.969
1.3720	83.078
1.3680	83.679
1.3640	83.982
1.3600	84.183
1.3560	83.769
1.3520	83.817
1.3480	83.998
1.3440	84.306
1.3400	84.054
1.3360	84.101
1.3320	84.066
1.3280	84.381
1.3240	84.460
1.3200	84.698
1.3160	84.638
1.3120	84.570
1.3080	84.659
1.3040	84.521
1.3000	84.521
1.2960	84.521
1.2920	84.549
1.2880	84.508
1.2840	84.404
1.2800	84.439
1.2760	84.313
1.2720	83.767
1.2680	83.702
1.2640	83.667
1.2600	83.758
1.2560	84.075
1.2520	84.166
1.2480	84.097
1.2440	83.681
1.2400	83.599
1.2360	83.668
1.2320	83.646
1.2280	84.014
1.2240	83.918
1.2200	83.577
1.2160	83.624
1.2120	83.327
1.2080	82.783
1.2040	82.693
1.2000	82.873
1.1960	82.995
1.1920	82.881
1.1880	82.652
1.1840	82.675
1.1800	82.608
1.1760	82.586
1.1720	82.541
1.1680	82.541
1.1640	82.372
1.1600	82.294
1.1560	82.270
1.1520	82.728
1.1480	83.149
1.1440	82.945
1.1400	82.741
1.1360	82.818
1.1320	82.795
1.1280	83.044
1.1240	83.067
1.1200	82.803
1.1160	82.780
1.1120	82.916
1.1080	82.574
1.1040	82.122
1.1000	82.455
1.0960	82.780
1.0920	82.464
1.0880	82.576
1.0840	82.802
1.0800	81.877
1.0760	81.987
1.0720	81.729
1.0680	81.280
1.0640	81.714
1.0600	82.430
1.0560	81.540
1.0520	81.051
1.0480	80.769
1.0440	81.487
1.0400	81.638
1.0360	81.609
1.0320	81.518
1.0280	81.976
1.0240	82.019
1.0200	81.566
1.0160	81.452
1.0120	81.439
1.0080	81.433
1.0040	82.110
1.0000	81.505
0.99600	81.587
0.99200	81.785
0.98800	81.827
0.98400	81.388
0.98000	81.858
0.97600	81.316
0.97200	81.367
0.96800	81.112
0.96400	81.649
0.96000	81.112
0.95600	80.997
0.95200	81.070
0.94800	80.980
0.94400	80.799
0.94000	80.848
0.93600	81.256
0.93200	81.142
0.92800	80.928
0.92400	80.805
0.92000	80.928
0.91600	80.674
0.91200	80.699
0.90800	80.650
0.90400	80.520
0.90000	80.650
0.89600	80.406
0.89200	80.496
0.88800	80.292
0.88400	80.154
0.88000	80.234
0.87600	79.980
0.87200	80.166
0.86800	79.945
0.86400	79.780
0.86000	79.803
0.85600	79.744
0.85200	79.446
0.84800	79.651
0.84400	79.095
0.84000	79.277
0.83600	79.513
0.83200	78.991
0.82800	78.835
0.82400	78.914
0.82000	79.667
0.81600	78.820
0.81200	78.950
0.80800	79.619
0.80400	79.490
0.80000	79.476
0.79900	79.476
0.79800	79.476
0.79700	79.501
0.79600	79.451
0.79500	79.159
0.79400	79.084
0.79300	79.307
0.79200	79.476
0.79100	79.596
0.79000	80.033
0.78900	79.476
0.78800	79.332
0.78700	79.598
0.78600	79.577
0.78500	79.671
0.78400	79.668
0.78300	79.473
0.78200	78.924
0.78100	79.211
0.78000	79.376
0.77900	79.690
0.77800	79.546
0.77700	79.499
0.77600	79.286
0.77500	79.236
0.77400	79.236
0.77300	79.140
0.77200	79.355
0.77100	79.165
0.77000	78.280
0.76900	78.233
0.76800	79.258
0.76700	79.593
0.76600	79.496
0.76500	78.846
0.76400	79.299
0.76300	79.327
0.76200	79.380
0.76100	80.195
0.76000	79.402
0.75900	79.573
0.75800	78.897
0.75700	78.608
0.75600	78.989
0.75500	79.276
0.75400	79.733
0.75300	78.679
0.75200	78.750
0.75100	78.556
0.75000	78.897
0.74900	79.183
0.74800	78.795
0.74700	79.280
0.74600	79.330
0.74500	79.183
0.74400	79.008
0.74300	78.081
0.74200	78.260
0.74100	79.143
0.74000	79.243
0.73900	78.692
0.73800	78.692
0.73700	78.407
0.73600	78.382
0.73500	78.407
0.73400	79.082
0.73300	79.393
0.73200	79.438
0.73100	78.908
0.73000	78.215
0.72900	78.835
0.72800	79.051
0.72700	78.784
0.72600	78.805
0.72500	78.610
0.72400	78.615
0.72300	79.199
0.72200	78.495
0.72100	78.395
0.72000	78.269
0.71900	78.697
0.71800	79.163
0.71700	79.089
0.71600	78.896
0.71500	78.269
0.71400	78.269
0.71300	77.927
0.71200	78.189
0.71100	78.139
0.71000	78.328
0.70900	77.916
0.70800	78.354
0.70700	78.120
0.70600	78.556
0.70500	78.334
0.70400	78.060
0.70300	77.745
0.70200	77.647
0.70100	77.456
0.70000	77.908
0.69900	78.361
0.69800	77.438
0.69700	77.867
0.69600	77.975
0.69500	78.121
0.69400	78.021
0.69300	78.048
0.69200	77.830
0.69100	78.222
0.69000	77.948
0.68900	78.168
0.68800	77.721
0.68700	77.721
0.68600	77.821
0.68500	78.068
0.68400	77.821
0.68300	77.921
0.68200	77.748
0.68100	77.648
0.68000	77.968
0.67900	77.941
0.67800	77.767
0.67700	77.120
0.67600	77.321
0.67500	77.840
0.67400	77.941
0.67300	78.142
0.67200	77.648
0.67100	78.088
0.67000	77.814
0.66900	77.484
0.66800	77.310
0.66700	77.511
0.66600	77.338
0.66500	76.964
0.66400	76.448
0.66300	76.077
0.66200	77.125
0.66100	77.025
0.66000	76.981
0.65900	77.650
0.65800	77.347
0.65700	76.896
0.65600	76.535
0.65500	76.607
0.65400	76.262
0.65300	76.320
0.65200	76.320
0.65100	76.576
0.65000	76.434
0.64900	76.221
0.64800	76.618
0.64700	76.908
0.64600	77.347
0.64500	76.840
0.64400	76.437
0.64300	76.090
0.64200	75.531
0.64100	75.560
0.64000	76.364
0.63900	76.524
0.63800	76.004
0.63700	75.748
0.63600	75.337
0.63500	75.448
0.63400	75.519
0.63300	75.348
0.63200	75.478
0.63100	75.631
0.63000	75.819
0.62900	75.977
0.62800	75.607
0.62700	75.407
0.62600	75.577
0.62500	76.033
0.62400	75.861
0.62300	75.648
0.62200	75.407
0.62100	75.436
0.62000	75.502
0.61900	75.801
0.61800	76.264
0.61700	76.046
0.61600	75.830
0.61500	75.586
0.61400	75.301
0.61300	74.918
0.61200	75.586
0.61100	75.931
0.61000	75.960
0.60900	75.787
0.60800	75.817
0.60700	75.917
0.60600	75.655
0.60500	75.686
0.60400	75.484
0.60300	75.425
0.60200	75.438
0.60100	75.184
0.60000	75.104
0.59900	74.807
0.59800	74.766
0.59700	75.023
0.59600	75.344
0.59500	74.799
0.59400	75.115
0.59300	75.283
0.59200	75.658
0.59100	75.378
0.59000	75.271
0.58900	75.057
0.58800	75.348
0.58700	74.892
0.58600	74.209
0.58500	75.607
0.58400	75.074
0.58300	75.221
0.58200	74.601
0.58100	74.632
0.58000	74.748
0.57900	75.305
0.57800	75.439
0.57700	75.354
0.57600	75.457
0.57500	75.838
0.57400	75.795
0.57300	75.970
0.57200	75.830
0.57100	76.525
0.57000	75.830
0.56900	75.252
0.56800	75.354
0.56700	75.740
0.56600	76.118
0.56500	76.046
0.56400	75.902
0.56300	76.191
0.56200	76.017
0.56100	76.017
0.56000	76.209
0.55900	75.781
0.55800	75.781
0.55700	76.037
0.55600	75.902
0.55500	75.767
0.55400	75.508
0.55300	75.408
0.55200	75.117
0.55100	75.022
0.55000	74.728
0.54900	75.834
0.54800	75.025
0.54700	74.958
0.54600	75.297
0.54500	75.333
0.54400	74.961
0.54300	75.871
0.54200	75.639
0.54100	75.639
0.54000	75.639
0.53900	75.618
0.53800	75.688
0.53700	75.480
0.53600	75.783
0.53500	75.613
0.53400	75.852
0.53300	75.265
0.53200	74.791
0.53100	74.625
0.53000	74.361
0.52900	74.398
0.52800	74.903
0.52700	74.634
0.52600	74.132
0.52500	74.333
0.52400	74.669
0.52300	74.466
0.52200	75.137
0.52100	75.269
0.52000	75.276
0.51900	75.409
0.51800	74.903
0.51700	74.669
0.51600	74.400
0.51500	74.603
0.51400	74.199
0.51300	74.266
0.51200	73.765
0.51100	73.599
0.51000	74.065
0.50900	73.531
0.50800	74.165
0.50700	74.267
0.50600	73.996
0.50500	73.291
0.50400	73.323
0.50300	73.961
0.50200	73.592
0.50100	74.370
0.50000	74.132
0.49900	73.260
0.49800	73.190
0.49700	73.357
0.49600	73.293
0.49500	72.988
0.49400	73.058
0.49300	73.054
0.49200	72.981
0.49100	72.703
0.49000	72.372
0.48900	72.979
0.48800	72.943
0.48700	72.751
0.48600	72.477
0.48500	72.367
0.48400	72.572
0.48300	72.770
0.48200	72.036
0.48100	71.631
0.48000	71.908
0.47900	72.243
0.47800	72.236
0.47700	71.620
0.47600	71.778
0.47500	71.749
0.47400	72.039
0.47300	71.701
0.47200	71.572
0.47100	70.972
0.47000	70.972
0.46900	70.628
0.46800	70.806
0.46700	70.551
0.46600	70.513
0.46500	70.589
0.46400	70.868
0.46300	70.322
0.46200	70.410
0.46100	69.686
0.46000	69.172
0.45900	72.072
0.45800	72.055
0.45700	71.633
0.45600	71.970
0.45500	71.569
0.45400	71.193
0.45300	71.246
0.45200	71.193
0.45100	70.835
0.45000	70.949
0.44900	71.348
0.44800	71.152
0.44700	70.702
0.44600	70.980
0.44500	70.665
0.44400	70.359
0.44300	69.830
0.44200	70.182
0.44100	70.650
0.44000	70.019
0.43900	70.042
0.43800	70.400
0.43700	69.810
0.43600	70.024
0.43500	70.360
0.43400	70.250
0.43300	69.660
0.43200	69.514
0.43100	69.493
0.43000	69.514
0.42900	69.698
0.42800	69.509
0.42700	68.966
0.42600	69.173
0.42500	68.725
0.42400	68.848
0.42300	68.960
0.42200	68.651
0.42100	68.346
0.42000	68.789
0.41900	68.788
0.41800	68.539
0.41700	67.650
0.41600	68.171
0.41500	68.115
0.41400	68.466
0.41300	68.005
0.41200	68.087
0.41100	67.679
0.41000	67.358
0.40900	67.438
0.40800	67.619
0.40700	67.574
0.40600	67.370
0.40500	67.250
0.40400	67.324
0.40300	67.112
0.40200	66.746
0.40100	66.919
0.40000	67.353
