Name: Hornfels 
Type:  Rocks
Class: Metamorphic 
Subclass: Hornfels 
Particle Size:  0-75 Micrometer
Sample No.:  hornfel2.doc
Owner:  JHU
Wavelength Range:  All
Origin:  Sample No. 471, The Hunt and Salisbury Collection at the U.S. 
Geological Survey, Denver, Co.
Description: This is a greenish, very fine-grained to microcrystalline rock 
containing somewhat larger recrystallized feldspar and carbonate grains.  
The finer material or groundmass also consists of these two phases in addition to 
a greenish microcrystalline mineral (chlorite?)


Measurement:  Directional (10 Degree) Hemispherical Reflectance
First Column:  X
Second Column:  Y  
X Units:  Wavelength (micrometers)
Y Units:  Reflectance (percent)
First X Value: 14.9831
Last X Value:  0.4
Number of X Values: 2868
Additional Information:  None

14.983	1.6191
14.940	1.5838
14.897	1.5400
14.854	1.5071
14.812	1.4976
14.770	1.5161
14.728	1.5575
14.686	1.6115
14.645	1.6658
14.603	1.7115
14.562	1.7449
14.521	1.7678
14.481	1.7839
14.441	1.7970
14.400	1.8086
14.361	1.8180
14.321	1.8225
14.281	1.8199
14.242	1.8090
14.203	1.7908
14.164	1.7681
14.126	1.7439
14.087	1.7205
14.049	1.6984
14.011	1.6764
13.973	1.6527
13.936	1.6253
13.899	1.5938
13.861	1.5594
13.824	1.5253
13.788	1.4945
13.751	1.4697
13.715	1.4519
13.679	1.4406
13.643	1.4339
13.607	1.4301
13.571	1.4275
13.536	1.4259
13.500	1.4256
13.465	1.4273
13.430	1.4308
13.396	1.4358
13.361	1.4403
13.327	1.4424
13.293	1.4408
13.259	1.4351
13.225	1.4266
13.191	1.4181
13.158	1.4124
13.124	1.4121
13.091	1.4197
13.058	1.4356
13.026	1.4590
12.993	1.4882
12.960	1.5199
12.928	1.5516
12.896	1.5800
12.864	1.6023
12.832	1.6177
12.800	1.6265
12.769	1.6314
12.737	1.6373
12.706	1.6506
12.675	1.6778
12.644	1.7247
12.614	1.7955
12.583	1.8912
12.552	2.0106
12.522	2.1498
12.492	2.3040
12.462	2.4674
12.432	2.6350
12.402	2.8027
12.373	2.9673
12.343	3.1272
12.314	3.2823
12.285	3.4334
12.256	3.5814
12.227	3.7280
12.198	3.8741
12.169	4.0202
12.141	4.1654
12.113	4.3077
12.084	4.4448
12.056	4.5739
12.028	4.6918
12.000	4.7962
11.973	4.8853
11.945	4.9577
11.918	5.0139
11.890	5.0539
11.863	5.0802
11.836	5.0949
11.809	5.1008
11.782	5.1010
11.755	5.0975
11.729	5.0918
11.702	5.0847
11.676	5.0761
11.650	5.0655
11.624	5.0522
11.598	5.0361
11.572	5.0162
11.546	4.9930
11.520	4.9663
11.495	4.9371
11.469	4.9061
11.444	4.8753
11.419	4.8455
11.394	4.8183
11.369	4.7934
11.344	4.7692
11.319	4.7437
11.294	4.7124
11.270	4.6719
11.245	4.6191
11.221	4.5516
11.197	4.4690
11.173	4.3723
11.149	4.2639
11.125	4.1469
11.101	4.0249
11.077	3.9018
11.054	3.7819
11.030	3.6688
11.007	3.5655
10.983	3.4736
10.960	3.3936
10.937	3.3244
10.914	3.2636
10.891	3.2086
10.868	3.1565
10.846	3.1061
10.823	3.0561
10.800	3.0066
10.778	2.9581
10.755	2.9114
10.733	2.8671
10.711	2.8247
10.689	2.7840
10.667	2.7440
10.645	2.7040
10.623	2.6637
10.602	2.6234
10.580	2.5832
10.558	2.5439
10.537	2.5057
10.516	2.4695
10.494	2.4349
10.473	2.4020
10.452	2.3701
10.431	2.3395
10.410	2.3104
10.389	2.2834
10.368	2.2590
10.348	2.2374
10.327	2.2192
10.306	2.2043
10.286	2.1924
10.266	2.1834
10.245	2.1773
10.225	2.1735
10.205	2.1721
10.185	2.1733
10.165	2.1763
10.145	2.1811
10.125	2.1872
10.106	2.1943
10.086	2.2022
10.066	2.2114
10.047	2.2216
10.027	2.2329
10.008	2.2453
9.9887	2.2583
9.9695	2.2708
9.9504	2.2817
9.9313	2.2895
9.9123	2.2931
9.8934	2.2914
9.8746	2.2848
9.8558	2.2737
9.8371	2.2602
9.8185	2.2460
9.7999	2.2334
9.7814	2.2246
9.7630	2.2211
9.7447	2.2232
9.7264	2.2303
9.7082	2.2410
9.6900	2.2528
9.6719	2.2635
9.6539	2.2715
9.6360	2.2756
9.6181	2.2751
9.6003	2.2699
9.5825	2.2599
9.5649	2.2455
9.5472	2.2261
9.5297	2.2017
9.5122	2.1725
9.4948	2.1387
9.4774	2.1015
9.4601	2.0624
9.4429	2.0229
9.4257	1.9845
9.4086	1.9488
9.3916	1.9163
9.3746	1.8872
9.3577	1.8614
9.3408	1.8382
9.3240	1.8171
9.3073	1.7974
9.2906	1.7792
9.2740	1.7624
9.2574	1.7468
9.2409	1.7330
9.2245	1.7212
9.2081	1.7117
9.1918	1.7046
9.1755	1.6994
9.1593	1.6961
9.1431	1.6944
9.1270	1.6935
9.1110	1.6932
9.0950	1.6932
9.0791	1.6939
9.0632	1.6956
9.0474	1.6982
9.0316	1.7022
9.0159	1.7072
9.0003	1.7131
8.9847	1.7195
8.9691	1.7259
8.9536	1.7321
8.9382	1.7378
8.9228	1.7437
8.9075	1.7496
8.8922	1.7558
8.8770	1.7619
8.8618	1.7676
8.8467	1.7728
8.8316	1.7768
8.8166	1.7804
8.8016	1.7839
8.7867	1.7884
8.7718	1.7944
8.7570	1.8022
8.7422	1.8116
8.7275	1.8228
8.7129	1.8346
8.6982	1.8469
8.6837	1.8590
8.6692	1.8713
8.6547	1.8841
8.6403	1.8981
8.6259	1.9139
8.6116	1.9317
8.5973	1.9514
8.5830	1.9727
8.5688	1.9952
8.5547	2.0186
8.5406	2.0430
8.5266	2.0686
8.5126	2.0958
8.4986	2.1257
8.4847	2.1583
8.4708	2.1948
8.4570	2.2355
8.4432	2.2810
8.4295	2.3312
8.4158	2.3859
8.4022	2.4444
8.3886	2.5060
8.3750	2.5697
8.3615	2.6350
8.3481	2.7021
8.3347	2.7705
8.3213	2.8413
8.3079	2.9143
8.2946	2.9893
8.2814	3.0663
8.2682	3.1433
8.2550	3.2188
8.2419	3.2913
8.2288	3.3592
8.2158	3.4220
8.2028	3.4793
8.1898	3.5326
8.1769	3.5828
8.1640	3.6318
8.1512	3.6813
8.1384	3.7325
8.1256	3.7864
8.1129	3.8435
8.1002	3.9041
8.0876	3.9688
8.0750	4.0368
8.0624	4.1085
8.0499	4.1834
8.0374	4.2610
8.0250	4.3408
8.0126	4.4225
8.0002	4.5059
7.9879	4.5914
7.9756	4.6797
7.9634	4.7709
7.9512	4.8654
7.9390	4.9629
7.9268	5.0636
7.9147	5.1659
7.9027	5.2696
7.8906	5.3741
7.8786	5.4787
7.8667	5.5844
7.8548	5.6907
7.8429	5.7987
7.8310	5.9078
7.8192	6.0189
7.8075	6.1309
7.7957	6.2439
7.7840	6.3568
7.7723	6.4693
7.7607	6.5806
7.7491	6.6905
7.7375	6.7987
7.7260	6.9055
7.7145	7.0109
7.7031	7.1154
7.6916	7.2191
7.6802	7.3216
7.6689	7.4230
7.6575	7.5225
7.6462	7.6198
7.6350	7.7147
7.6238	7.8081
7.6126	7.9006
7.6014	7.9935
7.5903	8.0877
7.5792	8.1841
7.5681	8.2822
7.5571	8.3811
7.5461	8.4792
7.5351	8.5753
7.5242	8.6677
7.5133	8.7556
7.5024	8.8384
7.4916	8.9161
7.4807	8.9893
7.4700	9.0584
7.4592	9.1245
7.4485	9.1885
7.4378	9.2510
7.4272	9.3130
7.4165	9.3746
7.4059	9.4357
7.3954	9.4961
7.3848	9.5546
7.3743	9.6107
7.3639	9.6637
7.3534	9.7137
7.3430	9.7604
7.3326	9.8049
7.3222	9.8477
7.3119	9.8904
7.3016	9.9330
7.2914	9.9766
7.2811	10.021
7.2709	10.065
7.2607	10.107
7.2506	10.147
7.2404	10.183
7.2303	10.213
7.2203	10.237
7.2102	10.253
7.2002	10.263
7.1902	10.266
7.1803	10.265
7.1703	10.261
7.1604	10.257
7.1506	10.254
7.1407	10.254
7.1309	10.258
7.1211	10.266
7.1113	10.277
7.1016	10.289
7.0919	10.302
7.0822	10.317
7.0725	10.334
7.0629	10.356
7.0533	10.382
7.0437	10.413
7.0341	10.450
7.0246	10.488
7.0151	10.527
7.0056	10.564
6.9962	10.599
6.9867	10.632
6.9773	10.667
6.9679	10.706
6.9586	10.750
6.9493	10.800
6.9400	10.854
6.9307	10.908
6.9214	10.958
6.9122	11.001
6.9030	11.036
6.8938	11.064
6.8847	11.091
6.8755	11.122
6.8664	11.160
6.8573	11.208
6.8483	11.266
6.8393	11.329
6.8302	11.392
6.8213	11.452
6.8123	11.506
6.8034	11.555
6.7944	11.604
6.7855	11.655
6.7767	11.710
6.7678	11.772
6.7590	11.837
6.7502	11.904
6.7414	11.971
6.7327	12.036
6.7239	12.100
6.7152	12.165
6.7065	12.230
6.6979	12.297
6.6892	12.361
6.6806	12.423
6.6720	12.480
6.6634	12.534
6.6549	12.589
6.6464	12.649
6.6378	12.717
6.6294	12.793
6.6209	12.878
6.6124	12.965
6.6040	13.052
6.5956	13.136
6.5872	13.219
6.5789	13.302
6.5705	13.389
6.5622	13.479
6.5539	13.568
6.5456	13.652
6.5374	13.722
6.5292	13.777
6.5209	13.817
6.5128	13.850
6.5046	13.886
6.4964	13.937
6.4883	14.006
6.4802	14.091
6.4721	14.183
6.4640	14.268
6.4560	14.331
6.4480	14.366
6.4399	14.374
6.4320	14.363
6.4240	14.347
6.4160	14.337
6.4081	14.341
6.4002	14.355
6.3923	14.374
6.3844	14.387
6.3766	14.387
6.3687	14.370
6.3609	14.340
6.3531	14.302
6.3454	14.265
6.3376	14.234
6.3299	14.213
6.3221	14.200
6.3144	14.189
6.3068	14.178
6.2991	14.162
6.2914	14.139
6.2838	14.111
6.2762	14.077
6.2686	14.040
6.2611	14.001
6.2535	13.959
6.2460	13.915
6.2385	13.866
6.2310	13.812
6.2235	13.750
6.2160	13.681
6.2086	13.608
6.2011	13.535
6.1937	13.467
6.1863	13.407
6.1790	13.358
6.1716	13.321
6.1643	13.293
6.1570	13.272
6.1496	13.252
6.1424	13.233
6.1351	13.214
6.1278	13.198
6.1206	13.189
6.1134	13.186
6.1062	13.190
6.0990	13.198
6.0918	13.205
6.0847	13.209
6.0776	13.212
6.0704	13.216
6.0633	13.231
6.0563	13.263
6.0492	13.318
6.0421	13.393
6.0351	13.486
6.0281	13.585
6.0211	13.681
6.0141	13.769
6.0071	13.844
6.0002	13.909
5.9932	13.966
5.9863	14.019
5.9794	14.069
5.9725	14.116
5.9657	14.161
5.9588	14.204
5.9520	14.245
5.9451	14.286
5.9383	14.329
5.9315	14.372
5.9247	14.413
5.9180	14.446
5.9112	14.470
5.9045	14.486
5.8978	14.500
5.8911	14.518
5.8844	14.548
5.8777	14.592
5.8711	14.647
5.8644	14.707
5.8578	14.761
5.8512	14.803
5.8446	14.829
5.8380	14.844
5.8314	14.854
5.8249	14.866
5.8184	14.885
5.8118	14.910
5.8053	14.935
5.7988	14.952
5.7923	14.955
5.7859	14.944
5.7794	14.921
5.7730	14.894
5.7666	14.871
5.7602	14.857
5.7538	14.853
5.7474	14.857
5.7410	14.863
5.7347	14.868
5.7283	14.868
5.7220	14.862
5.7157	14.854
5.7094	14.847
5.7031	14.843
5.6969	14.845
5.6906	14.849
5.6844	14.855
5.6782	14.859
5.6719	14.861
5.6657	14.860
5.6596	14.859
5.6534	14.864
5.6472	14.877
5.6411	14.900
5.6349	14.934
5.6288	14.974
5.6227	15.014
5.6166	15.046
5.6106	15.066
5.6045	15.069
5.5984	15.060
5.5924	15.043
5.5864	15.028
5.5804	15.026
5.5744	15.044
5.5684	15.089
5.5624	15.160
5.5564	15.257
5.5505	15.372
5.5445	15.498
5.5386	15.626
5.5327	15.752
5.5268	15.871
5.5209	15.980
5.5151	16.080
5.5092	16.171
5.5033	16.254
5.4975	16.332
5.4917	16.405
5.4859	16.477
5.4801	16.549
5.4743	16.624
5.4685	16.702
5.4628	16.783
5.4570	16.865
5.4513	16.946
5.4455	17.024
5.4398	17.100
5.4341	17.173
5.4284	17.247
5.4228	17.324
5.4171	17.406
5.4114	17.492
5.4058	17.580
5.4002	17.669
5.3945	17.753
5.3889	17.832
5.3833	17.904
5.3778	17.968
5.3722	18.025
5.3666	18.079
5.3611	18.130
5.3555	18.181
5.3500	18.232
5.3445	18.283
5.3390	18.334
5.3335	18.384
5.3280	18.431
5.3225	18.473
5.3171	18.511
5.3116	18.545
5.3062	18.577
5.3008	18.608
5.2954	18.641
5.2900	18.676
5.2846	18.715
5.2792	18.756
5.2738	18.798
5.2684	18.841
5.2631	18.884
5.2578	18.925
5.2524	18.966
5.2471	19.006
5.2418	19.047
5.2365	19.089
5.2312	19.133
5.2260	19.180
5.2207	19.229
5.2154	19.284
5.2102	19.342
5.2050	19.403
5.1998	19.467
5.1945	19.532
5.1893	19.596
5.1842	19.657
5.1790	19.715
5.1738	19.770
5.1686	19.822
5.1635	19.873
5.1584	19.922
5.1532	19.972
5.1481	20.021
5.1430	20.072
5.1379	20.123
5.1328	20.173
5.1277	20.224
5.1227	20.273
5.1176	20.321
5.1126	20.369
5.1075	20.415
5.1025	20.461
5.0975	20.507
5.0925	20.553
5.0875	20.599
5.0825	20.643
5.0775	20.687
5.0726	20.728
5.0676	20.766
5.0627	20.799
5.0577	20.828
5.0528	20.852
5.0479	20.872
5.0430	20.889
5.0380	20.905
5.0332	20.920
5.0283	20.936
5.0234	20.954
5.0185	20.974
5.0137	20.993
5.0088	21.013
5.0040	21.030
4.9992	21.046
4.9944	21.060
4.9896	21.072
4.9848	21.085
4.9800	21.098
4.9752	21.112
4.9704	21.127
4.9657	21.142
4.9609	21.157
4.9562	21.169
4.9514	21.179
4.9467	21.186
4.9420	21.191
4.9373	21.194
4.9326	21.195
4.9279	21.195
4.9232	21.193
4.9186	21.191
4.9139	21.188
4.9092	21.184
4.9046	21.181
4.9000	21.178
4.8953	21.178
4.8907	21.180
4.8861	21.185
4.8815	21.193
4.8769	21.203
4.8723	21.214
4.8678	21.224
4.8632	21.234
4.8586	21.242
4.8541	21.250
4.8495	21.257
4.8450	21.264
4.8405	21.272
4.8360	21.281
4.8315	21.289
4.8270	21.297
4.8225	21.303
4.8180	21.307
4.8135	21.309
4.8090	21.309
4.8046	21.308
4.8001	21.307
4.7957	21.306
4.7913	21.306
4.7868	21.307
4.7824	21.311
4.7780	21.316
4.7736	21.324
4.7692	21.334
4.7648	21.345
4.7605	21.358
4.7561	21.371
4.7517	21.384
4.7474	21.398
4.7431	21.410
4.7387	21.422
4.7344	21.433
4.7301	21.442
4.7258	21.451
4.7215	21.459
4.7172	21.467
4.7129	21.475
4.7086	21.483
4.7043	21.493
4.7000	21.503
4.6958	21.514
4.6915	21.525
4.6873	21.537
4.6831	21.548
4.6788	21.559
4.6746	21.569
4.6704	21.578
4.6662	21.587
4.6620	21.597
4.6578	21.608
4.6536	21.620
4.6495	21.634
4.6453	21.650
4.6411	21.667
4.6370	21.686
4.6328	21.705
4.6287	21.725
4.6246	21.744
4.6205	21.764
4.6163	21.783
4.6122	21.801
4.6081	21.819
4.6040	21.836
4.6000	21.852
4.5959	21.868
4.5918	21.884
4.5877	21.899
4.5837	21.915
4.5796	21.931
4.5756	21.946
4.5716	21.961
4.5675	21.975
4.5635	21.989
4.5595	22.003
4.5555	22.015
4.5515	22.027
4.5475	22.039
4.5435	22.049
4.5395	22.059
4.5356	22.067
4.5316	22.074
4.5276	22.079
4.5237	22.082
4.5197	22.083
4.5158	22.081
4.5119	22.078
4.5080	22.073
4.5040	22.066
4.5001	22.059
4.4962	22.051
4.4923	22.044
4.4884	22.039
4.4846	22.035
4.4807	22.033
4.4768	22.033
4.4730	22.036
4.4691	22.042
4.4652	22.051
4.4614	22.064
4.4576	22.079
4.4537	22.098
4.4499	22.118
4.4461	22.140
4.4423	22.163
4.4385	22.186
4.4347	22.209
4.4309	22.232
4.4271	22.254
4.4233	22.275
4.4196	22.295
4.4158	22.314
4.4120	22.331
4.4083	22.346
4.4045	22.360
4.4008	22.372
4.3971	22.384
4.3934	22.395
4.3896	22.404
4.3859	22.413
4.3822	22.421
4.3785	22.428
4.3748	22.434
4.3711	22.440
4.3674	22.444
4.3638	22.447
4.3601	22.449
4.3564	22.451
4.3528	22.452
4.3491	22.453
4.3455	22.455
4.3418	22.456
4.3382	22.458
4.3346	22.461
4.3310	22.464
4.3273	22.467
4.3237	22.469
4.3201	22.471
4.3165	22.472
4.3129	22.472
4.3094	22.472
4.3058	22.471
4.3022	22.471
4.2986	22.472
4.2951	22.472
4.2915	22.473
4.2880	22.474
4.2844	22.474
4.2809	22.472
4.2774	22.470
4.2738	22.466
4.2703	22.461
4.2668	22.456
4.2633	22.452
4.2598	22.449
4.2563	22.447
4.2528	22.446
4.2493	22.445
4.2458	22.445
4.2424	22.445
4.2389	22.444
4.2354	22.442
4.2320	22.439
4.2285	22.436
4.2251	22.433
4.2216	22.429
4.2182	22.426
4.2148	22.423
4.2113	22.420
4.2079	22.416
4.2045	22.413
4.2011	22.409
4.1977	22.405
4.1943	22.403
4.1909	22.400
4.1875	22.399
4.1841	22.396
4.1808	22.392
4.1774	22.386
4.1740	22.379
4.1707	22.370
4.1673	22.362
4.1640	22.354
4.1606	22.348
4.1573	22.343
4.1540	22.339
4.1506	22.336
4.1473	22.334
4.1440	22.331
4.1407	22.329
4.1374	22.326
4.1341	22.323
4.1308	22.321
4.1275	22.318
4.1242	22.315
4.1209	22.312
4.1177	22.308
4.1144	22.304
4.1111	22.299
4.1079	22.294
4.1046	22.288
4.1014	22.282
4.0981	22.275
4.0949	22.267
4.0917	22.259
4.0884	22.251
4.0852	22.243
4.0820	22.236
4.0788	22.229
4.0756	22.222
4.0724	22.215
4.0692	22.208
4.0660	22.200
4.0628	22.191
4.0596	22.183
4.0565	22.174
4.0533	22.165
4.0501	22.156
4.0470	22.147
4.0438	22.137
4.0406	22.126
4.0375	22.114
4.0344	22.101
4.0312	22.087
4.0281	22.074
4.0250	22.059
4.0218	22.044
4.0187	22.027
4.0156	22.007
4.0125	21.983
4.0094	21.955
4.0063	21.923
4.0032	21.888
4.0001	21.852
3.9970	21.817
3.9940	21.785
3.9909	21.756
3.9878	21.732
3.9847	21.713
3.9817	21.699
3.9786	21.690
3.9756	21.686
3.9725	21.687
3.9695	21.692
3.9665	21.701
3.9634	21.713
3.9604	21.728
3.9574	21.745
3.9544	21.763
3.9513	21.781
3.9483	21.798
3.9453	21.814
3.9423	21.827
3.9393	21.838
3.9363	21.846
3.9333	21.850
3.9304	21.850
3.9274	21.848
3.9244	21.843
3.9214	21.836
3.9185	21.829
3.9155	21.822
3.9126	21.816
3.9096	21.810
3.9067	21.807
3.9037	21.804
3.9008	21.802
3.8979	21.799
3.8949	21.795
3.8920	21.790
3.8891	21.783
3.8862	21.775
3.8833	21.766
3.8804	21.757
3.8775	21.748
3.8746	21.739
3.8717	21.730
3.8688	21.722
3.8659	21.715
3.8630	21.708
3.8601	21.701
3.8573	21.696
3.8544	21.691
3.8515	21.686
3.8487	21.682
3.8458	21.677
3.8430	21.672
3.8401	21.668
3.8373	21.663
3.8344	21.659
3.8316	21.656
3.8288	21.654
3.8259	21.653
3.8231	21.653
3.8203	21.653
3.8175	21.652
3.8147	21.649
3.8119	21.645
3.8091	21.639
3.8063	21.632
3.8035	21.625
3.8007	21.617
3.7979	21.608
3.7951	21.600
3.7924	21.592
3.7896	21.584
3.7868	21.576
3.7841	21.568
3.7813	21.560
3.7785	21.551
3.7758	21.540
3.7730	21.529
3.7703	21.518
3.7676	21.506
3.7648	21.496
3.7621	21.486
3.7594	21.477
3.7566	21.469
3.7539	21.461
3.7512	21.453
3.7485	21.443
3.7458	21.433
3.7431	21.421
3.7404	21.408
3.7377	21.394
3.7350	21.380
3.7323	21.365
3.7296	21.351
3.7269	21.336
3.7242	21.323
3.7216	21.310
3.7189	21.298
3.7162	21.286
3.7136	21.276
3.7109	21.265
3.7083	21.254
3.7056	21.243
3.7030	21.230
3.7003	21.218
3.6977	21.204
3.6950	21.190
3.6924	21.175
3.6898	21.162
3.6872	21.149
3.6845	21.136
3.6819	21.124
3.6793	21.113
3.6767	21.102
3.6741	21.090
3.6715	21.077
3.6689	21.064
3.6663	21.049
3.6637	21.034
3.6611	21.019
3.6585	21.004
3.6560	20.990
3.6534	20.976
3.6508	20.962
3.6482	20.948
3.6457	20.934
3.6431	20.920
3.6406	20.906
3.6380	20.891
3.6355	20.876
3.6329	20.861
3.6304	20.845
3.6278	20.829
3.6253	20.812
3.6227	20.796
3.6202	20.781
3.6177	20.766
3.6152	20.751
3.6127	20.737
3.6101	20.723
3.6076	20.709
3.6051	20.696
3.6026	20.683
3.6001	20.670
3.5976	20.657
3.5951	20.643
3.5926	20.629
3.5901	20.614
3.5876	20.597
3.5852	20.579
3.5827	20.560
3.5802	20.542
3.5777	20.523
3.5753	20.505
3.5728	20.487
3.5704	20.469
3.5679	20.452
3.5654	20.434
3.5630	20.415
3.5605	20.396
3.5581	20.377
3.5557	20.358
3.5532	20.340
3.5508	20.323
3.5484	20.306
3.5459	20.290
3.5435	20.275
3.5411	20.259
3.5387	20.244
3.5363	20.228
3.5338	20.213
3.5314	20.197
3.5290	20.180
3.5266	20.163
3.5242	20.144
3.5218	20.124
3.5195	20.105
3.5171	20.086
3.5147	20.068
3.5123	20.050
3.5099	20.032
3.5075	20.014
3.5052	19.992
3.5028	19.968
3.5004	19.941
3.4981	19.913
3.4957	19.885
3.4934	19.857
3.4910	19.831
3.4887	19.806
3.4863	19.782
3.4840	19.758
3.4816	19.736
3.4793	19.716
3.4770	19.699
3.4746	19.685
3.4723	19.675
3.4700	19.668
3.4677	19.661
3.4653	19.654
3.4630	19.646
3.4607	19.635
3.4584	19.621
3.4561	19.607
3.4538	19.591
3.4515	19.576
3.4492	19.561
3.4469	19.546
3.4446	19.531
3.4423	19.515
3.4400	19.498
3.4378	19.480
3.4355	19.462
3.4332	19.442
3.4309	19.421
3.4287	19.398
3.4264	19.375
3.4241	19.350
3.4219	19.324
3.4196	19.297
3.4174	19.270
3.4151	19.243
3.4129	19.215
3.4106	19.188
3.4084	19.162
3.4061	19.135
3.4039	19.110
3.4017	19.086
3.3994	19.061
3.3972	19.035
3.3950	19.009
3.3928	18.981
3.3906	18.952
3.3883	18.922
3.3861	18.894
3.3839	18.867
3.3817	18.842
3.3795	18.819
3.3773	18.796
3.3751	18.773
3.3729	18.747
3.3707	18.719
3.3685	18.688
3.3663	18.654
3.3641	18.618
3.3620	18.582
3.3598	18.547
3.3576	18.514
3.3554	18.483
3.3533	18.455
3.3511	18.429
3.3489	18.407
3.3468	18.388
3.3446	18.372
3.3425	18.358
3.3403	18.346
3.3382	18.333
3.3360	18.318
3.3339	18.301
3.3317	18.281
3.3296	18.257
3.3274	18.232
3.3253	18.205
3.3232	18.180
3.3210	18.155
3.3189	18.132
3.3168	18.111
3.3147	18.090
3.3126	18.069
3.3104	18.048
3.3083	18.027
3.3062	18.007
3.3041	17.985
3.3020	17.965
3.2999	17.946
3.2978	17.927
3.2957	17.908
3.2936	17.889
3.2915	17.869
3.2894	17.848
3.2874	17.825
3.2853	17.802
3.2832	17.778
3.2811	17.755
3.2790	17.733
3.2770	17.713
3.2749	17.694
3.2728	17.676
3.2708	17.659
3.2687	17.640
3.2666	17.621
3.2646	17.601
3.2625	17.579
3.2605	17.556
3.2584	17.532
3.2564	17.507
3.2543	17.481
3.2523	17.454
3.2503	17.427
3.2482	17.402
3.2462	17.377
3.2442	17.353
3.2421	17.329
3.2401	17.305
3.2381	17.279
3.2361	17.250
3.2340	17.218
3.2320	17.184
3.2300	17.148
3.2280	17.110
3.2260	17.072
3.2240	17.034
3.2220	16.999
3.2200	16.965
3.2180	16.934
3.2160	16.905
3.2140	16.877
3.2120	16.849
3.2100	16.822
3.2080	16.793
3.2060	16.763
3.2040	16.734
3.2021	16.705
3.2001	16.679
3.1981	16.654
3.1961	16.632
3.1942	16.611
3.1922	16.592
3.1902	16.573
3.1883	16.553
3.1863	16.534
3.1844	16.514
3.1824	16.494
3.1805	16.474
3.1785	16.453
3.1766	16.433
3.1746	16.413
3.1727	16.395
3.1707	16.378
3.1688	16.362
3.1669	16.347
3.1649	16.332
3.1630	16.316
3.1611	16.298
3.1591	16.279
3.1572	16.259
3.1553	16.240
3.1534	16.222
3.1515	16.205
3.1495	16.190
3.1476	16.174
3.1457	16.159
3.1438	16.142
3.1419	16.124
3.1400	16.105
3.1381	16.086
3.1362	16.068
3.1343	16.051
3.1324	16.035
3.1305	16.019
3.1286	16.004
3.1268	15.989
3.1249	15.973
3.1230	15.956
3.1211	15.939
3.1192	15.920
3.1174	15.902
3.1155	15.884
3.1136	15.867
3.1117	15.852
3.1099	15.837
3.1080	15.825
3.1061	15.813
3.1043	15.802
3.1024	15.791
3.1006	15.780
3.0987	15.769
3.0969	15.758
3.0950	15.746
3.0932	15.734
3.0913	15.721
3.0895	15.708
3.0876	15.693
3.0858	15.677
3.0840	15.661
3.0821	15.646
3.0803	15.632
3.0785	15.621
3.0766	15.613
3.0748	15.608
3.0730	15.606
3.0712	15.606
3.0694	15.604
3.0675	15.602
3.0657	15.597
3.0639	15.588
3.0621	15.577
3.0603	15.565
3.0585	15.552
3.0567	15.538
3.0549	15.525
3.0531	15.512
3.0513	15.499
3.0495	15.484
3.0477	15.470
3.0459	15.455
3.0441	15.441
3.0423	15.429
3.0406	15.419
3.0388	15.411
3.0370	15.406
3.0352	15.402
3.0334	15.397
3.0317	15.391
3.0299	15.381
3.0281	15.369
3.0264	15.352
3.0246	15.334
3.0228	15.312
3.0211	15.288
3.0193	15.263
3.0176	15.237
3.0158	15.212
3.0140	15.187
3.0123	15.164
3.0105	15.141
3.0088	15.119
3.0070	15.097
3.0053	15.074
3.0036	15.050
3.0018	15.025
3.0001	14.999
2.9984	14.973
2.9966	14.948
2.9949	14.923
2.9932	14.898
2.9914	14.873
2.9897	14.848
2.9880	14.821
2.9863	14.793
2.9845	14.763
2.9828	14.731
2.9811	14.697
2.9794	14.663
2.9777	14.629
2.9760	14.597
2.9743	14.565
2.9726	14.535
2.9709	14.506
2.9692	14.476
2.9675	14.446
2.9658	14.414
2.9641	14.381
2.9624	14.347
2.9607	14.315
2.9590	14.283
2.9573	14.251
2.9556	14.219
2.9539	14.186
2.9523	14.150
2.9506	14.114
2.9489	14.078
2.9472	14.045
2.9455	14.015
2.9439	13.989
2.9422	13.968
2.9405	13.949
2.9389	13.931
2.9372	13.913
2.9355	13.894
2.9339	13.875
2.9322	13.856
2.9306	13.840
2.9289	13.828
2.9272	13.820
2.9256	13.817
2.9239	13.820
2.9223	13.828
2.9207	13.842
2.9190	13.859
2.9174	13.878
2.9157	13.899
2.9141	13.921
2.9124	13.942
2.9108	13.963
2.9092	13.984
2.9075	14.007
2.9059	14.030
2.9043	14.055
2.9027	14.080
2.9010	14.104
2.8994	14.125
2.8978	14.142
2.8962	14.155
2.8946	14.162
2.8929	14.166
2.8913	14.169
2.8897	14.172
2.8881	14.177
2.8865	14.182
2.8849	14.187
2.8833	14.190
2.8817	14.189
2.8801	14.181
2.8785	14.168
2.8769	14.151
2.8753	14.132
2.8737	14.115
2.8721	14.102
2.8705	14.095
2.8689	14.092
2.8673	14.093
2.8658	14.095
2.8642	14.098
2.8626	14.099
2.8610	14.098
2.8594	14.095
2.8579	14.091
2.8563	14.085
2.8547	14.079
2.8531	14.073
2.8516	14.066
2.8500	14.058
2.8484	14.047
2.8469	14.034
2.8453	14.017
2.8437	13.997
2.8422	13.974
2.8406	13.950
2.8391	13.926
2.8375	13.903
2.8360	13.881
2.8344	13.859
2.8329	13.836
2.8313	13.809
2.8298	13.775
2.8282	13.734
2.8267	13.685
2.8252	13.631
2.8236	13.573
2.8221	13.513
2.8205	13.455
2.8190	13.398
2.8175	13.342
2.8159	13.286
2.8144	13.226
2.8129	13.162
2.8114	13.091
2.8098	13.014
2.8083	12.931
2.8068	12.846
2.8053	12.759
2.8038	12.672
2.8022	12.585
2.8007	12.498
2.7992	12.407
2.7977	12.310
2.7962	12.204
2.7947	12.088
2.7932	11.961
2.7917	11.825
2.7902	11.681
2.7887	11.532
2.7872	11.380
2.7857	11.228
2.7842	11.076
2.7827	10.925
2.7812	10.775
2.7797	10.625
2.7782	10.477
2.7767	10.332
2.7752	10.193
2.7738	10.061
2.7723	9.9403
2.7708	9.8340
2.7693	9.7440
2.7678	9.6718
2.7664	9.6183
2.7649	9.5828
2.7634	9.5645
2.7619	9.5643
2.7605	9.5832
2.7590	9.6242
2.7575	9.6903
2.7561	9.7845
2.7546	9.9074
2.7531	10.056
2.7517	10.225
2.7502	10.405
2.7488	10.588
2.7473	10.765
2.7458	10.933
2.7444	11.092
2.7429	11.247
2.7415	11.403
2.7400	11.567
2.7386	11.745
2.7371	11.938
2.7357	12.146
2.7343	12.364
2.7328	12.587
2.7314	12.810
2.7299	13.030
2.7285	13.248
2.7271	13.464
2.7256	13.686
2.7242	13.916
2.7228	14.157
2.7213	14.407
2.7199	14.659
2.7185	14.903
2.7171	15.126
2.7156	15.316
2.7142	15.465
2.7128	15.571
2.7114	15.634
2.7100	15.660
2.7085	15.656
2.7071	15.630
2.7057	15.587
2.7043	15.534
2.7029	15.480
2.7015	15.435
2.7001	15.411
2.6987	15.425
2.6973	15.489
2.6959	15.618
2.6945	15.820
2.6931	16.095
2.6917	16.437
2.6903	16.831
2.6889	17.257
2.6875	17.688
2.6861	18.101
2.6847	18.473
2.6833	18.789
2.6819	19.042
2.6805	19.231
2.6791	19.361
2.6778	19.443
2.6764	19.486
2.6750	19.502
2.6736	19.499
2.6722	19.490
2.6709	19.481
2.6695	19.482
2.6681	19.499
2.6667	19.534
2.6654	19.586
2.6640	19.650
2.6626	19.717
2.6613	19.781
2.6599	19.836
2.6585	19.877
2.6572	19.907
2.6558	19.927
2.6545	19.941
2.6531	19.952
2.6517	19.962
2.6504	19.972
2.6490	19.982
2.6477	19.991
2.6463	19.998
2.6450	20.006
2.6436	20.014
2.6423	20.020
2.6409	20.026
2.6396	20.026
2.6382	20.018
2.6369	20.002
2.6356	19.977
2.6342	19.946
2.6329	19.916
2.6315	19.893
2.6302	19.881
2.6289	19.881
2.6275	19.890
2.6262	19.903
2.6249	19.912
2.6236	19.914
2.6222	19.907
2.6209	19.896
2.6196	19.888
2.6183	19.887
2.6169	19.897
2.6156	19.915
2.6143	19.935
2.6130	19.948
2.6117	19.949
2.6103	19.937
2.6090	19.916
2.6077	19.896
2.6064	19.883
2.6051	19.883
2.6038	19.893
2.6025	19.903
2.6012	19.905
2.5999	19.892
2.5986	19.864
2.5973	19.830
2.5960	19.800
2.5947	19.786
2.5934	19.792
2.5921	19.817
2.5908	19.852
2.5895	19.887
2.5882	19.912
2.5869	19.926
2.5856	19.930
2.5843	19.930
2.5830	19.930
2.5817	19.933
2.5805	19.940
2.5792	19.947
2.5779	19.950
2.5766	19.949
2.5753	19.945
2.5741	19.939
2.5728	19.936
2.5715	19.936
2.5702	19.940
2.5690	19.946
2.5677	19.951
2.5664	19.952
2.5651	19.951
2.5639	19.949
2.5626	19.949
2.5613	19.955
2.5601	19.966
2.5588	19.983
2.5575	20.001
2.5563	20.017
2.5550	20.027
2.5538	20.031
2.5525	20.030
2.5513	20.026
2.5500	20.021
2.5487	20.018
2.5475	20.017
2.5462	20.020
2.5450	20.024
2.5437	20.029
2.5425	20.033
2.5413	20.036
2.5400	20.037
2.5388	20.035
2.5375	20.033
2.5363	20.030
2.5350	20.027
2.5338	20.025
2.5326	20.024
2.5313	20.024
2.5301	20.025
2.5289	20.027
2.5276	20.030
2.5264	20.032
2.5252	20.035
2.5239	20.037
2.5227	20.038
2.5215	20.037
2.5202	20.037
2.5190	20.037
2.5178	20.037
2.5166	20.038
2.5154	20.041
2.5141	20.045
2.5129	20.049
2.5117	20.052
2.5105	20.055
2.5093	20.056
2.5081	20.055
2.5068	20.054
2.5056	20.051
2.5044	20.048
2.5032	20.045
2.5020	20.040
2.5008	20.036
2.4996	20.031
2.4984	20.028
2.4972	20.026
2.4960	20.026
2.4948	20.026
2.4936	20.026
2.4924	20.026
2.4912	20.024
2.4900	20.023
2.4888	20.022
2.4876	20.023
2.4864	20.025
2.4852	20.028
2.4840	20.033
2.4828	20.036
2.4816	20.039
2.4805	20.039
2.4793	20.038
2.4781	20.036
2.4769	20.033
2.4757	20.030
2.4745	20.027
2.4734	20.025
2.4722	20.024
2.4710	20.022
2.4698	20.021
2.4686	20.019
2.4675	20.017
2.4663	20.014
2.4651	20.010
2.4640	20.006
2.4628	20.001
2.4616	19.996
2.4604	19.991
2.4593	19.986
2.4581	19.981
2.4569	19.977
2.4558	19.974
2.4546	19.973
2.4535	19.972
2.4523	19.973
2.4511	19.975
2.4500	19.976
2.4488	19.977
2.4477	19.977
2.4465	19.977
2.4454	19.977
2.4442	19.977
2.4431	19.978
2.4419	19.979
2.4408	19.980
2.4396	19.981
2.4385	19.982
2.4373	19.982
2.4362	19.982
2.4350	19.982
2.4339	19.981
2.4327	19.981
2.4316	19.982
2.4305	19.983
2.4293	19.984
2.4282	19.986
2.4270	19.986
2.4259	19.987
2.4248	19.988
2.4236	19.989
2.4225	19.992
2.4214	19.996
2.4202	20.000
2.4191	20.005
2.4180	20.009
2.4169	20.011
2.4157	20.012
2.4146	20.011
2.4135	20.008
2.4124	20.004
2.4112	19.999
2.4101	19.994
2.4090	19.989
2.4079	19.985
2.4068	19.982
2.4056	19.982
2.4045	19.983
2.4034	19.986
2.4023	19.990
2.4012	19.993
2.4001	19.994
2.3990	19.994
2.3979	19.992
2.3967	19.990
2.3956	19.987
2.3945	19.985
2.3934	19.983
2.3923	19.981
2.3912	19.978
2.3901	19.973
2.3890	19.967
2.3879	19.959
2.3868	19.950
2.3857	19.940
2.3846	19.933
2.3835	19.928
2.3824	19.927
2.3813	19.930
2.3802	19.935
2.3791	19.941
2.3781	19.946
2.3770	19.947
2.3759	19.945
2.3748	19.940
2.3737	19.934
2.3726	19.929
2.3715	19.927
2.3704	19.927
2.3694	19.930
2.3683	19.933
2.3672	19.936
2.3661	19.938
2.3650	19.938
2.3640	19.937
2.3629	19.935
2.3618	19.934
2.3607	19.933
2.3597	19.932
2.3586	19.932
2.3575	19.931
2.3564	19.929
2.3554	19.926
2.3543	19.921
2.3532	19.916
2.3522	19.911
2.3511	19.906
2.3500	19.903
2.3490	19.899
2.3479	19.896
2.3468	19.894
2.3458	19.892
2.3447	19.891
2.3436	19.891
2.3426	19.892
2.3415	19.895
2.3405	19.898
2.3394	19.900
2.3384	19.900
2.3373	19.897
2.3363	19.892
2.3352	19.886
2.3342	19.879
2.3331	19.873
2.3321	19.867
2.3310	19.862
2.3300	19.858
2.3289	19.855
2.3279	19.853
2.3268	19.851
2.3258	19.851
2.3247	19.852
2.3237	19.854
2.3226	19.857
2.3216	19.860
2.3206	19.863
2.3195	19.866
2.3185	19.870
2.3175	19.875
2.3164	19.881
2.3154	19.890
2.3144	19.899
2.3133	19.909
2.3123	19.919
2.3113	19.929
2.3102	19.939
2.3092	19.949
2.3082	19.959
2.3071	19.967
2.3061	19.974
2.3051	19.979
2.3041	19.982
2.3030	19.982
2.3020	19.981
2.3010	19.980
2.3000	19.979
2.2990	19.980
2.2979	19.982
2.2969	19.984
2.2959	19.988
2.2949	19.993
2.2939	19.998
2.2929	20.003
2.2918	20.009
2.2908	20.015
2.2898	20.020
2.2888	20.023
2.2878	20.024
2.2868	20.023
2.2858	20.021
2.2848	20.018
2.2838	20.015
2.2828	20.014
2.2818	20.014
2.2808	20.017
2.2798	20.020
2.2787	20.025
2.2777	20.029
2.2767	20.033
2.2757	20.037
2.2747	20.040
2.2738	20.042
2.2728	20.044
2.2718	20.044
2.2708	20.044
2.2698	20.042
2.2688	20.040
2.2678	20.038
2.2668	20.035
2.2658	20.030
2.2648	20.024
2.2638	20.017
2.2628	20.008
2.2618	19.999
2.2609	19.991
2.2599	19.985
2.2589	19.983
2.2579	19.983
2.2569	19.987
2.2559	19.993
2.2550	19.999
2.2540	20.003
2.2530	20.004
2.2520	20.001
2.2510	19.996
2.2501	19.989
2.2491	19.983
2.2481	19.979
2.2471	19.979
2.2462	19.983
2.2452	19.991
2.2442	19.999
2.2433	20.006
2.2423	20.010
2.2413	20.011
2.2403	20.008
2.2394	20.000
2.2384	19.992
2.2374	19.981
2.2365	19.971
2.2355	19.962
2.2345	19.956
2.2336	19.953
2.2326	19.955
2.2317	19.960
2.2307	19.969
2.2297	19.980
2.2288	19.991
2.2278	19.998
2.2269	20.001
2.2259	20.000
2.2250	19.996
2.2240	19.989
2.2231	19.983
2.2221	19.980
2.2211	19.979
2.2202	19.981
2.2192	19.985
2.2183	19.990
2.2173	19.996
2.2164	20.002
2.2155	20.007
2.2145	20.010
2.2136	20.010
2.2126	20.007
2.2117	20.001
2.2107	19.993
2.2098	19.986
2.2088	19.981
2.2079	19.981
2.2070	19.986
2.2060	19.996
2.2051	20.009
2.2041	20.023
2.2032	20.036
2.2023	20.046
2.2013	20.054
2.2004	20.057
2.1995	20.056
2.1985	20.054
2.1976	20.049
2.1967	20.045
2.1957	20.043
2.1948	20.042
2.1939	20.042
2.1930	20.044
2.1920	20.046
2.1911	20.048
2.1902	20.050
2.1893	20.052
2.1883	20.054
2.1874	20.058
2.1865	20.063
2.1856	20.070
2.1846	20.077
2.1837	20.086
2.1828	20.093
2.1819	20.099
2.1810	20.104
2.1800	20.106
2.1791	20.107
2.1782	20.108
2.1773	20.108
2.1764	20.108
2.1755	20.110
2.1746	20.111
2.1736	20.114
2.1727	20.116
2.1718	20.118
2.1709	20.119
2.1700	20.118
2.1691	20.117
2.1682	20.114
2.1673	20.110
2.1664	20.108
2.1655	20.107
2.1646	20.109
2.1637	20.113
2.1628	20.120
2.1619	20.128
2.1610	20.136
2.1601	20.144
2.1592	20.149
2.1583	20.153
2.1574	20.155
2.1565	20.155
2.1556	20.153
2.1547	20.148
2.1538	20.140
2.1529	20.128
2.1520	20.115
2.1511	20.101
2.1502	20.090
2.1493	20.085
2.1484	20.087
2.1475	20.095
2.1466	20.109
2.1458	20.125
2.1449	20.139
2.1440	20.149
2.1431	20.153
2.1422	20.152
2.1413	20.147
2.1404	20.140
2.1396	20.135
2.1387	20.132
2.1378	20.132
2.1369	20.136
2.1360	20.143
2.1352	20.151
2.1343	20.159
2.1334	20.165
2.1325	20.169
2.1316	20.171
2.1308	20.170
2.1299	20.168
2.1290	20.164
2.1281	20.160
2.1273	20.156
2.1264	20.153
2.1255	20.150
2.1247	20.149
2.1238	20.149
2.1229	20.150
2.1220	20.152
2.1212	20.153
2.1203	20.154
2.1194	20.154
2.1186	20.153
2.1177	20.152
2.1168	20.151
2.1160	20.152
2.1151	20.154
2.1143	20.158
2.1134	20.163
2.1125	20.169
2.1117	20.173
2.1108	20.175
2.1100	20.174
2.1091	20.171
2.1082	20.168
2.1074	20.165
2.1065	20.164
2.1057	20.165
2.1048	20.166
2.1040	20.167
2.1031	20.168
2.1023	20.168
2.1014	20.168
2.1005	20.170
2.0997	20.173
2.0988	20.177
2.0980	20.180
2.0971	20.180
2.0963	20.176
2.0955	20.168
2.0946	20.159
2.0938	20.150
2.0929	20.146
2.0921	20.148
2.0912	20.156
2.0904	20.166
2.0895	20.175
2.0887	20.179
2.0879	20.175
2.0870	20.167
2.0862	20.159
2.0853	20.150
2.0845	20.155
2.0837	20.165
2.0828	20.166
2.0820	20.204
2.0812	20.160
2.0803	20.127
2.0795	20.166
2.0760	20.166
2.0720	20.166
2.0680	20.152
2.0640	20.152
2.0600	20.232
2.0560	20.246
2.0520	20.232
2.0480	20.187
2.0440	20.078
2.0400	20.064
2.0360	20.114
2.0320	20.042
2.0280	19.999
2.0240	20.013
2.0200	20.136
2.0160	20.028
2.0120	19.891
2.0080	19.956
2.0040	19.927
2.0000	19.913
1.9960	19.871
1.9920	19.885
1.9880	19.857
1.9840	19.857
1.9800	19.828
1.9760	19.786
1.9720	19.772
1.9680	19.758
1.9640	19.822
1.9600	19.772
1.9560	19.786
1.9520	19.772
1.9480	19.758
1.9440	19.758
1.9400	19.772
1.9360	19.736
1.9320	19.600
1.9280	19.584
1.9240	19.532
1.9200	19.626
1.9160	19.518
1.9120	19.612
1.9080	19.612
1.9040	19.600
1.9000	19.680
1.8960	19.725
1.8920	19.838
1.8880	19.805
1.8840	19.750
1.8800	19.915
1.8760	20.055
1.8720	20.134
1.8680	19.885
1.8640	19.842
1.8600	19.992
1.8560	20.005
1.8520	19.977
1.8480	19.909
1.8440	19.929
1.8400	19.978
1.8360	20.020
1.8320	20.056
1.8280	19.888
1.8240	19.958
1.8200	19.862
1.8160	19.938
1.8120	20.076
1.8080	19.883
1.8040	19.924
1.8000	19.924
1.7960	19.856
1.7920	19.883
1.7880	19.897
1.7840	19.897
1.7800	20.104
1.7760	20.076
1.7720	19.869
1.7680	19.936
1.7640	19.936
1.7600	19.856
1.7560	20.021
1.7520	19.979
1.7480	19.774
1.7440	19.993
1.7400	20.021
1.7360	20.145
1.7320	20.187
1.7280	20.215
1.7240	20.306
1.7200	20.277
1.7160	20.297
1.7120	20.401
1.7080	20.202
1.7040	20.241
1.7000	20.092
1.6960	20.223
1.6920	20.092
1.6880	20.209
1.6840	20.112
1.6800	20.481
1.6760	20.495
1.6720	20.415
1.6680	20.119
1.6640	20.223
1.6600	20.237
1.6560	20.209
1.6520	20.140
1.6480	20.359
1.6440	20.486
1.6400	20.519
1.6360	20.519
1.6320	20.472
1.6280	20.533
1.6240	20.505
1.6200	20.387
1.6160	20.154
1.6120	20.140
1.6080	20.223
1.6040	20.472
1.6000	20.486
1.5960	20.443
1.5920	20.486
1.5880	20.561
1.5840	20.665
1.5800	20.723
1.5760	20.622
1.5720	20.594
1.5680	20.538
1.5640	20.351
1.5600	20.282
1.5560	20.344
1.5520	20.399
1.5480	20.543
1.5440	20.529
1.5400	20.637
1.5360	20.585
1.5320	20.627
1.5280	20.820
1.5240	20.867
1.5200	20.810
1.5160	20.782
1.5120	20.557
1.5080	20.684
1.5040	20.679
1.5000	20.640
1.4960	20.669
1.4920	20.617
1.4880	20.561
1.4840	20.712
1.4800	20.656
1.4760	20.450
1.4720	20.436
1.4680	20.783
1.4640	20.840
1.4600	20.873
1.4560	20.948
1.4520	20.816
1.4480	20.684
1.4440	20.830
1.4400	20.820
1.4360	20.849
1.4320	20.877
1.4280	20.939
1.4240	20.896
1.4200	20.972
1.4160	20.972
1.4120	21.043
1.4080	21.136
1.4040	21.027
1.4000	20.762
1.3960	20.959
1.3920	20.992
1.3880	20.906
1.3840	20.801
1.3800	21.065
1.3760	21.229
1.3720	21.171
1.3680	21.250
1.3640	21.352
1.3600	21.346
1.3560	21.135
1.3520	21.279
1.3480	21.304
1.3440	21.454
1.3400	21.382
1.3360	21.411
1.3320	21.497
1.3280	21.526
1.3240	21.460
1.3200	21.644
1.3160	21.550
1.3120	21.714
1.3080	21.714
1.3040	21.685
1.3000	21.685
1.2960	21.685
1.2920	21.728
1.2880	21.758
1.2840	21.831
1.2800	21.754
1.2760	21.843
1.2720	21.752
1.2680	21.797
1.2640	21.743
1.2600	21.743
1.2560	21.714
1.2520	21.714
1.2480	21.790
1.2440	21.973
1.2400	22.073
1.2360	22.087
1.2320	22.102
1.2280	22.162
1.2240	22.193
1.2200	22.178
1.2160	22.208
1.2120	22.435
1.2080	22.374
1.2040	22.464
1.2000	22.464
1.1960	22.458
1.1920	22.593
1.1880	22.506
1.1840	22.491
1.1800	22.566
1.1760	22.610
1.1720	22.580
1.1680	22.670
1.1640	22.590
1.1600	22.625
1.1560	22.701
1.1520	22.680
1.1480	22.838
1.1440	22.944
1.1400	23.141
1.1360	23.013
1.1320	22.966
1.1280	22.801
1.1240	23.028
1.1200	23.036
1.1160	23.143
1.1120	23.236
1.1080	23.220
1.1040	23.067
1.1000	23.284
1.0960	23.478
1.0920	23.383
1.0880	23.431
1.0840	23.526
1.0800	23.533
1.0760	23.762
1.0720	23.616
1.0680	23.751
1.0640	23.776
1.0600	23.749
1.0560	23.623
1.0520	23.413
1.0480	23.599
1.0440	23.987
1.0400	24.249
1.0360	24.512
1.0320	24.421
1.0280	24.265
1.0240	24.388
1.0200	24.388
1.0160	24.405
1.0120	24.380
1.0080	24.355
1.0040	24.570
1.0000	24.487
0.99600	24.658
0.99200	24.683
0.98800	24.837
0.98400	24.878
0.98000	24.710
0.97600	24.839
0.97200	24.610
0.96800	24.856
0.96400	24.923
0.96000	24.675
0.95600	24.963
0.95200	24.822
0.94800	24.822
0.94400	24.822
0.94000	24.878
0.93600	24.755
0.93200	24.861
0.92800	24.760
0.92400	24.947
0.92000	24.760
0.91600	24.824
0.91200	24.807
0.90800	24.840
0.90400	24.718
0.90000	24.751
0.89600	24.734
0.89200	24.734
0.88800	24.751
0.88400	24.605
0.88000	24.596
0.87600	24.646
0.87200	24.674
0.86800	24.641
0.86400	24.601
0.86000	24.799
0.85600	24.595
0.85200	24.430
0.84800	24.811
0.84400	24.480
0.84000	24.389
0.83600	24.565
0.83200	24.612
0.82800	24.685
0.82400	24.635
0.82000	24.828
0.81600	24.683
0.81200	24.509
0.80800	24.903
0.80400	24.959
0.80000	24.908
0.79900	24.908
0.79800	24.908
0.79700	24.887
0.79600	24.930
0.79500	24.930
0.79400	25.003
0.79300	24.789
0.79200	24.811
0.79100	24.884
0.79000	24.733
0.78900	24.811
0.78800	24.962
0.78700	24.984
0.78600	24.822
0.78500	24.811
0.78400	25.003
0.78300	25.003
0.78200	24.703
0.78100	24.894
0.78000	24.906
0.77900	25.069
0.77800	25.025
0.77700	24.884
0.77600	24.822
0.77500	24.776
0.77400	24.582
0.77300	24.582
0.77200	24.848
0.77100	24.561
0.77000	24.308
0.76900	24.358
0.76800	24.558
0.76700	24.687
0.76600	24.590
0.76500	24.676
0.76400	24.788
0.76300	24.665
0.76200	24.528
0.76100	24.854
0.76000	24.504
0.75900	24.536
0.75800	24.536
0.75700	24.633
0.75600	24.719
0.75500	24.708
0.75400	24.920
0.75300	24.558
0.75200	24.676
0.75100	24.676
0.75000	24.536
0.74900	24.622
0.74800	24.428
0.74700	24.525
0.74600	24.385
0.74500	24.525
0.74400	24.594
0.74300	24.108
0.74200	24.573
0.74100	24.713
0.74000	24.618
0.73900	24.514
0.73800	24.319
0.73700	24.234
0.73600	24.358
0.73500	24.137
0.73400	24.222
0.73300	24.487
0.73200	24.528
0.73100	24.301
0.73000	24.143
0.72900	24.271
0.72800	24.433
0.72700	24.411
0.72600	24.476
0.72500	24.476
0.72400	24.195
0.72300	24.195
0.72200	24.225
0.72100	24.314
0.72000	24.329
0.71900	24.553
0.71800	24.477
0.71700	24.551
0.71600	24.366
0.71500	24.236
0.71400	24.236
0.71300	24.281
0.71200	24.396
0.71100	24.148
0.71000	24.431
0.70900	24.366
0.70800	24.213
0.70700	23.986
0.70600	24.127
0.70500	24.148
0.70400	24.213
0.70300	24.146
0.70200	24.244
0.70100	24.052
0.70000	24.256
0.69900	24.552
0.69800	24.421
0.69700	24.600
0.69600	24.410
0.69500	24.454
0.69400	24.555
0.69300	24.432
0.69200	24.266
0.69100	24.354
0.69000	24.532
0.68900	24.600
0.68800	24.555
0.68700	24.354
0.68600	24.455
0.68500	24.399
0.68400	24.455
0.68300	24.455
0.68200	24.132
0.68100	24.232
0.68000	24.500
0.67900	24.522
0.67800	24.500
0.67700	24.254
0.67600	24.354
0.67500	24.522
0.67400	24.623
0.67300	24.623
0.67200	24.432
0.67100	24.567
0.67000	24.746
0.66900	24.668
0.66800	24.444
0.66700	24.243
0.66600	24.522
0.66500	24.399
0.66400	24.332
0.66300	24.510
0.66200	24.511
0.66100	24.511
0.66000	24.366
0.65900	24.480
0.65800	24.480
0.65700	24.434
0.65600	24.422
0.65500	24.645
0.65400	24.600
0.65300	24.355
0.65200	24.455
0.65100	24.510
0.65000	24.365
0.64900	24.200
0.64800	24.299
0.64700	24.444
0.64600	24.581
0.64500	24.681
0.64400	24.581
0.64300	24.334
0.64200	24.221
0.64100	24.199
0.64000	24.558
0.63900	24.716
0.63800	24.344
0.63700	24.232
0.63600	24.066
0.63500	24.432
0.63400	24.555
0.63300	24.532
0.63200	24.210
0.63100	24.321
0.63000	24.555
0.62900	24.510
0.62800	24.388
0.62700	24.487
0.62600	24.310
0.62500	24.322
0.62400	24.400
0.62300	24.332
0.62200	24.288
0.62100	24.464
0.62000	24.646
0.61900	24.806
0.61800	24.923
0.61700	24.954
0.61600	24.783
0.61500	24.838
0.61400	24.746
0.61300	24.655
0.61200	24.737
0.61100	24.884
0.61000	24.760
0.60900	24.737
0.60800	24.815
0.60700	24.613
0.60600	24.657
0.60500	24.736
0.60400	24.635
0.60300	24.783
0.60200	24.548
0.60100	24.662
0.60000	24.698
0.59900	24.665
0.59800	24.721
0.59700	24.735
0.59600	24.805
0.59500	24.701
0.59400	24.665
0.59300	24.852
0.59200	24.912
0.59100	24.888
0.59000	24.885
0.58900	24.921
0.58800	24.912
0.58700	24.658
0.58600	24.705
0.58500	24.819
0.58400	24.619
0.58300	24.976
0.58200	24.871
0.58100	24.847
0.58000	24.921
0.57900	24.865
0.57800	24.944
0.57700	24.747
0.57600	24.645
0.57500	24.668
0.57400	24.724
0.57300	24.583
0.57200	24.581
0.57100	24.571
0.57000	24.480
0.56900	24.355
0.56800	24.558
0.56700	24.547
0.56600	24.876
0.56500	24.650
0.56400	24.604
0.56300	24.899
0.56200	24.673
0.56100	24.571
0.56000	24.769
0.55900	24.756
0.55800	24.756
0.55700	25.007
0.55600	24.965
0.55500	24.922
0.55400	24.965
0.55300	24.964
0.55200	24.931
0.55100	24.996
0.55000	24.664
0.54900	24.892
0.54800	24.762
0.54700	24.840
0.54600	24.849
0.54500	24.992
0.54400	24.706
0.54300	24.835
0.54200	24.958
0.54100	24.857
0.54000	24.958
0.53900	25.010
0.53800	25.033
0.53700	24.865
0.53600	24.865
0.53500	24.944
0.53400	24.988
0.53300	24.770
0.53200	24.719
0.53100	24.698
0.53000	24.641
0.52900	24.449
0.52800	24.576
0.52700	24.655
0.52600	24.655
0.52500	24.655
0.52400	24.799
0.52300	24.634
0.52200	24.756
0.52100	24.735
0.52000	24.762
0.51900	24.639
0.51800	24.576
0.51700	24.597
0.51600	24.777
0.51500	24.842
0.51400	24.576
0.51300	24.496
0.51200	24.070
0.51100	24.349
0.51000	24.533
0.50900	24.391
0.50800	24.597
0.50700	24.624
0.50600	24.399
0.50500	24.336
0.50400	24.378
0.50300	24.585
0.50200	24.602
0.50100	24.893
0.50000	24.710
0.49900	24.396
0.49800	24.437
0.49700	24.357
0.49600	24.274
0.49500	24.336
0.49400	24.395
0.49300	24.458
0.49200	24.564
0.49100	24.670
0.49000	24.462
0.48900	24.359
0.48800	24.379
0.48700	24.356
0.48600	24.296
0.48500	24.051
0.48400	24.358
0.48300	24.421
0.48200	24.418
0.48100	24.316
0.48000	24.194
0.47900	24.338
0.47800	24.503
0.47700	24.173
0.47600	24.255
0.47500	24.214
0.47400	24.235
0.47300	23.885
0.47200	24.151
0.47100	24.192
0.47000	24.192
0.46900	23.949
0.46800	24.273
0.46700	24.089
0.46600	24.008
0.46500	24.170
0.46400	24.292
0.46300	24.374
0.46200	24.333
0.46100	24.129
0.46000	24.053
0.45900	24.324
0.45800	24.249
0.45700	24.312
0.45600	24.355
0.45500	24.188
0.45400	24.164
0.45300	24.288
0.45200	24.164
0.45100	24.081
0.45000	24.288
0.44900	24.352
0.44800	24.182
0.44700	24.203
0.44600	24.222
0.44500	24.012
0.44400	24.429
0.44300	23.901
0.44200	23.875
0.44100	24.178
0.44000	23.962
0.43900	24.211
0.43800	24.294
0.43700	24.164
0.43600	24.273
0.43500	24.106
0.43400	23.996
0.43300	24.076
0.43200	24.201
0.43100	24.262
0.43000	24.199
0.42900	24.255
0.42800	24.193
0.42700	24.051
0.42600	24.152
0.42500	23.893
0.42400	23.932
0.42300	24.149
0.42200	23.756
0.42100	23.683
0.42000	23.936
0.41900	23.723
0.41800	23.855
0.41700	23.555
0.41600	23.444
0.41500	23.536
0.41400	23.718
0.41300	23.635
0.41200	23.403
0.41100	23.414
0.41000	23.199
0.40900	23.365
0.40800	23.527
0.40700	23.546
0.40600	23.472
0.40500	23.434
0.40400	23.490
0.40300	23.490
0.40200	23.509
0.40100	23.452
0.40000	23.459
