Name: Rhyolitic obsidian
Type: Rocks
Class: Igneous
Subclass: Intermediate
Particle Size: 0-75 micrometers
Sample No.: Obsidian.H1
Owner: JHU
Wavelength range: All
Origin: Mono Lake, California  via Smithsonian (Cat. No.:  NMNH 
111123-60)
Description: The sample from which the powder was derived is a black 
homogenous glass with good conchoidal fracture.




Measurement: Directional (10 degree) hemispherical reflectance
First Column: X
Second Column: Y
X Units: Wavelength (micrometers)
Y Units: Reflectance (percent)
First X Value: 14.0112
Last X Value: 0.4000
Number of X Values: 2844
Additional information: obsidi1a.txt

14.011	1.5000
13.973	1.4644
13.936	1.0650
13.899	0.6769
13.861	0.5625
13.824	0.8325
13.788	1.6387
13.751	0.5587
13.715	0.0000
13.679	0.6769
13.643	0.4031
13.607	0.5419
13.571	0.9084
13.536	0.8184
13.500	0.6047
13.465	0.8747
13.430	1.0332
13.396	1.0613
13.361	0.8634
13.327	0.7322
13.293	0.8259
13.259	0.9553
13.225	0.9413
13.191	0.7538
13.158	0.6867
13.124	0.7912
13.091	0.7294
13.058	0.7875
13.026	1.1119
12.993	1.2010
12.960	0.8906
12.928	0.9670
12.896	1.0303
12.864	1.0819
12.832	1.1395
12.800	1.0036
12.769	0.9722
12.737	0.9846
12.706	0.9733
12.675	0.9304
12.644	0.8337
12.614	0.9145
12.583	1.0437
12.552	0.9459
12.522	1.0711
12.492	1.1187
12.462	0.9468
12.432	0.9237
12.402	0.9678
12.373	0.9501
12.343	0.8486
12.314	0.9921
12.285	1.1039
12.256	1.0127
12.227	1.0781
12.198	1.1751
12.169	1.2262
12.141	1.3493
12.113	1.4662
12.084	1.4264
12.056	1.5504
12.028	1.7386
12.000	1.8904
11.973	2.0494
11.945	2.2257
11.918	2.4857
11.890	2.8636
11.863	3.2055
11.836	3.5751
11.809	4.0214
11.782	4.4657
11.755	4.9083
11.729	5.3011
11.702	5.6592
11.676	5.9226
11.650	6.1101
11.624	6.2573
11.598	6.4579
11.572	6.5896
11.546	6.6790
11.520	6.6862
11.495	6.6558
11.469	6.6567
11.444	6.6750
11.419	6.6706
11.394	6.5930
11.369	6.5496
11.344	6.5081
11.319	6.4289
11.294	6.3013
11.270	6.2028
11.245	6.1228
11.221	6.0374
11.197	5.9020
11.173	5.7951
11.149	5.6885
11.125	5.5460
11.101	5.4471
11.077	5.3254
11.054	5.1354
11.030	5.0053
11.007	4.9519
10.983	4.8455
10.960	4.6436
10.937	4.4964
10.914	4.4053
10.891	4.2584
10.868	4.0924
10.846	3.9499
10.823	3.8426
10.800	3.7106
10.778	3.6007
10.755	3.5147
10.733	3.3875
10.711	3.2611
10.689	3.1641
10.667	3.0553
10.645	2.9850
10.623	2.9372
10.602	2.8303
10.580	2.6930
10.558	2.6543
10.537	2.5797
10.516	2.5031
10.494	2.4499
10.473	2.4075
10.452	2.3984
10.431	2.3864
10.410	2.3431
10.389	2.2668
10.368	2.2043
10.348	2.2059
10.327	2.2247
10.306	2.2034
10.286	2.1823
10.266	2.1921
10.245	2.1875
10.225	2.1441
10.205	2.1169
10.185	2.1514
10.165	2.1806
10.145	2.1483
10.125	2.1642
10.106	2.2104
10.086	2.1947
10.066	2.1670
10.047	2.2195
10.027	2.2420
10.008	2.2301
9.9887	2.2099
9.9695	2.2298
9.9504	2.2387
9.9313	2.2624
9.9123	2.3044
9.8934	2.3151
9.8746	2.3397
9.8558	2.3548
9.8371	2.3364
9.8185	2.3290
9.7999	2.3831
9.7814	2.4026
9.7630	2.4143
9.7447	2.4541
9.7264	2.4660
9.7082	2.4813
9.6900	2.5099
9.6719	2.4563
9.6539	2.4459
9.6360	2.5390
9.6181	2.5805
9.6003	2.5917
9.5825	2.6213
9.5649	2.6628
9.5472	2.6756
9.5297	2.6937
9.5122	2.7132
9.4948	2.7358
9.4774	2.7530
9.4601	2.7659
9.4429	2.8143
9.4257	2.8831
9.4086	2.9057
9.3916	2.9018
9.3746	2.9004
9.3577	2.9062
9.3408	2.9341
9.3240	2.9782
9.3073	3.0636
9.2906	3.0971
9.2740	3.0719
9.2574	3.0886
9.2409	3.1488
9.2245	3.1690
9.2081	3.1441
9.1918	3.1399
9.1755	3.1886
9.1593	3.1842
9.1431	3.1509
9.1270	3.1280
9.1110	3.1336
9.0950	3.1174
9.0791	3.0701
9.0632	3.0253
9.0474	2.9820
9.0316	2.9304
9.0159	2.8763
9.0003	2.8284
8.9847	2.7553
8.9691	2.7106
8.9536	2.6613
8.9382	2.6023
8.9228	2.5092
8.9075	2.4769
8.8922	2.4300
8.8770	2.3532
8.8618	2.3292
8.8467	2.2982
8.8316	2.2980
8.8166	2.2878
8.8016	2.2088
8.7867	2.1867
8.7718	2.1766
8.7570	2.1312
8.7422	2.0960
8.7275	2.0696
8.7129	2.0512
8.6982	2.0644
8.6837	2.0655
8.6692	2.0229
8.6547	1.9945
8.6403	1.9737
8.6259	1.9594
8.6116	1.9784
8.5973	1.9572
8.5830	1.9143
8.5688	1.9361
8.5547	1.9584
8.5406	1.9357
8.5266	1.9071
8.5126	1.9135
8.4986	1.9260
8.4847	1.9239
8.4708	1.9139
8.4570	1.8966
8.4432	1.8797
8.4295	1.8708
8.4158	1.8951
8.4022	1.9228
8.3886	1.9158
8.3750	1.8689
8.3615	1.8678
8.3481	1.9047
8.3347	1.9303
8.3213	1.9476
8.3079	1.9556
8.2946	1.9453
8.2814	1.9333
8.2682	1.9286
8.2550	1.9423
8.2419	1.9891
8.2288	2.0058
8.2158	2.0088
8.2028	1.9971
8.1898	2.0058
8.1769	2.0377
8.1640	2.0478
8.1512	2.0292
8.1384	1.9976
8.1256	2.0039
8.1129	2.0175
8.1002	2.0081
8.0876	2.0304
8.0750	2.0337
8.0624	2.0109
8.0499	1.9798
8.0374	1.9488
8.0250	1.9425
8.0126	1.9067
8.0002	1.8445
7.9879	1.7918
7.9756	1.7356
7.9634	1.6596
7.9512	1.5680
7.9390	1.4724
7.9268	1.3933
7.9147	1.3104
7.9027	1.2132
7.8906	1.1301
7.8786	1.0413
7.8667	0.9727
7.8548	0.8998
7.8429	0.8187
7.8310	0.7312
7.8192	0.6400
7.8075	0.5810
7.7957	0.5433
7.7840	0.5058
7.7723	0.4667
7.7607	0.4278
7.7491	0.3917
7.7375	0.3494
7.7260	0.3166
7.7145	0.3021
7.7031	0.2885
7.6916	0.2660
7.6802	0.2437
7.6689	0.2553
7.6575	0.2210
7.6462	0.1831
7.6350	0.1816
7.6238	0.1833
7.6126	0.1959
7.6014	0.1844
7.5903	0.1847
7.5792	0.1891
7.5681	0.1987
7.5571	0.2218
7.5461	0.2283
7.5351	0.2353
7.5242	0.2405
7.5133	0.2398
7.5024	0.2670
7.4916	0.3014
7.4807	0.2986
7.4700	0.2909
7.4592	0.3283
7.4485	0.3732
7.4378	0.3891
7.4272	0.4062
7.4165	0.4382
7.4059	0.4664
7.3954	0.4819
7.3848	0.5107
7.3743	0.5634
7.3639	0.6143
7.3534	0.6872
7.3430	0.7353
7.3326	0.7500
7.3223	0.7659
7.3119	0.8192
7.3016	0.8625
7.2914	0.8918
7.2811	0.9586
7.2709	1.0322
7.2607	1.0572
7.2506	1.0711
7.2404	1.1386
7.2303	1.2122
7.2203	1.2701
7.2102	1.3333
7.2002	1.3774
7.1902	1.4351
7.1803	1.5028
7.1703	1.5586
7.1604	1.6242
7.1506	1.6812
7.1407	1.7491
7.1309	1.8283
7.1211	1.9021
7.1113	1.9767
7.1016	2.0553
7.0919	2.1195
7.0822	2.1982
7.0725	2.2525
7.0629	2.3117
7.0533	2.3960
7.0437	2.4865
7.0341	2.5807
7.0246	2.6508
7.0151	2.7155
7.0056	2.7921
6.9962	2.8852
6.9867	2.9707
6.9773	3.0340
6.9679	3.1310
6.9586	3.2168
6.9493	3.2888
6.9400	3.3595
6.9307	3.4270
6.9214	3.4999
6.9122	3.5997
6.9030	3.6954
6.8938	3.7816
6.8847	3.8496
6.8755	3.9255
6.8664	4.0169
6.8573	4.1060
6.8483	4.1834
6.8393	4.2621
6.8302	4.3233
6.8213	4.3927
6.8123	4.4993
6.8034	4.6101
6.7944	4.6908
6.7855	4.7363
6.7767	4.8302
6.7678	4.9434
6.7590	5.0364
6.7502	5.1028
6.7414	5.1808
6.7327	5.2549
6.7239	5.3112
6.7152	5.3964
6.7065	5.4823
6.6979	5.5577
6.6892	5.6325
6.6806	5.6967
6.6720	5.7806
6.6634	5.8797
6.6549	5.9540
6.6464	5.9927
6.6378	6.0673
6.6294	6.1664
6.6209	6.2296
6.6124	6.2894
6.6040	6.3727
6.5956	6.4476
6.5872	6.5114
6.5789	6.5716
6.5705	6.6480
6.5622	6.7090
6.5539	6.7647
6.5456	6.8306
6.5374	6.8904
6.5292	6.9291
6.5209	6.9659
6.5128	7.0333
6.5046	7.0795
6.4964	7.1057
6.4883	7.1400
6.4802	7.2178
6.4721	7.2921
6.4640	7.3216
6.4560	7.3429
6.4480	7.3901
6.4399	7.4273
6.4320	7.4273
6.4240	7.4444
6.4160	7.4535
6.4081	7.4960
6.4002	7.5590
6.3923	7.5996
6.3844	7.6303
6.3766	7.6301
6.3687	7.6390
6.3609	7.6495
6.3531	7.6704
6.3454	7.6786
6.3376	7.6999
6.3299	7.7489
6.3221	7.7724
6.3144	7.7917
6.3068	7.8225
6.2991	7.8382
6.2914	7.8628
6.2838	7.8752
6.2762	7.8823
6.2686	7.9151
6.2611	7.9563
6.2535	7.9938
6.2460	8.0192
6.2385	8.0646
6.2310	8.1135
6.2235	8.1374
6.2160	8.1516
6.2086	8.1883
6.2011	8.2369
6.1937	8.2685
6.1863	8.2717
6.1790	8.3166
6.1716	8.3883
6.1643	8.4417
6.1570	8.4949
6.1496	8.5643
6.1424	8.6386
6.1351	8.7342
6.1278	8.8139
6.1206	8.8413
6.1134	8.9034
6.1062	9.0155
6.0990	9.1306
6.0918	9.2386
6.0847	9.3335
6.0776	9.4265
6.0704	9.5275
6.0633	9.6370
6.0563	9.7242
6.0492	9.7737
6.0421	9.9089
6.0351	10.058
6.0281	10.165
6.0211	10.263
6.0141	10.374
6.0071	10.477
6.0002	10.571
5.9932	10.675
5.9863	10.753
5.9794	10.840
5.9725	10.935
5.9657	11.026
5.9588	11.126
5.9520	11.194
5.9451	11.253
5.9383	11.297
5.9315	11.392
5.9247	11.515
5.9180	11.582
5.9112	11.636
5.9045	11.679
5.8978	11.705
5.8911	11.776
5.8844	11.801
5.8777	11.826
5.8711	11.902
5.8644	11.932
5.8578	11.964
5.8512	12.020
5.8446	12.059
5.8380	12.079
5.8314	12.081
5.8249	12.048
5.8184	12.073
5.8118	12.116
5.8053	12.138
5.7988	12.160
5.7923	12.163
5.7859	12.159
5.7794	12.146
5.7730	12.114
5.7666	12.089
5.7602	12.090
5.7538	12.100
5.7474	12.082
5.7410	12.061
5.7347	12.054
5.7283	12.033
5.7220	12.002
5.7157	11.989
5.7094	11.959
5.7031	11.929
5.6969	11.920
5.6906	11.905
5.6844	11.874
5.6782	11.835
5.6719	11.812
5.6657	11.773
5.6596	11.723
5.6534	11.705
5.6472	11.690
5.6411	11.639
5.6349	11.618
5.6288	11.618
5.6227	11.579
5.6166	11.528
5.6106	11.507
5.6045	11.497
5.5984	11.464
5.5924	11.432
5.5864	11.408
5.5804	11.373
5.5744	11.357
5.5684	11.355
5.5624	11.339
5.5564	11.315
5.5505	11.288
5.5445	11.264
5.5386	11.252
5.5327	11.252
5.5268	11.248
5.5209	11.247
5.5151	11.266
5.5092	11.257
5.5033	11.248
5.4975	11.253
5.4917	11.241
5.4859	11.256
5.4801	11.273
5.4743	11.288
5.4685	11.297
5.4628	11.316
5.4570	11.340
5.4513	11.369
5.4455	11.405
5.4398	11.445
5.4341	11.478
5.4284	11.512
5.4228	11.552
5.4171	11.616
5.4114	11.670
5.4058	11.720
5.4002	11.799
5.3945	11.898
5.3889	11.979
5.3833	12.032
5.3778	12.112
5.3722	12.222
5.3666	12.325
5.3611	12.412
5.3555	12.524
5.3500	12.626
5.3445	12.734
5.3390	12.864
5.3335	12.977
5.3280	13.083
5.3225	13.213
5.3171	13.351
5.3116	13.484
5.3062	13.605
5.3008	13.726
5.2954	13.849
5.2900	13.992
5.2846	14.135
5.2792	14.264
5.2738	14.389
5.2684	14.513
5.2631	14.625
5.2578	14.759
5.2524	14.880
5.2471	14.979
5.2418	15.070
5.2365	15.176
5.2312	15.272
5.2260	15.377
5.2207	15.487
5.2154	15.573
5.2102	15.640
5.2050	15.737
5.1998	15.826
5.1945	15.911
5.1893	15.971
5.1842	16.045
5.1790	16.125
5.1738	16.215
5.1686	16.269
5.1635	16.332
5.1584	16.409
5.1532	16.475
5.1481	16.530
5.1430	16.639
5.1379	16.738
5.1328	16.789
5.1277	16.868
5.1227	16.991
5.1176	17.086
5.1126	17.177
5.1075	17.280
5.1025	17.389
5.0975	17.501
5.0925	17.627
5.0875	17.745
5.0825	17.868
5.0775	18.016
5.0726	18.153
5.0676	18.298
5.0627	18.463
5.0577	18.637
5.0528	18.815
5.0479	19.001
5.0430	19.183
5.0380	19.368
5.0332	19.554
5.0283	19.784
5.0234	20.018
5.0185	20.226
5.0137	20.468
5.0088	20.714
5.0040	20.980
4.9992	21.237
4.9944	21.507
4.9896	21.815
4.9848	22.102
4.9800	22.383
4.9752	22.703
4.9704	23.019
4.9657	23.323
4.9609	23.657
4.9562	24.003
4.9514	24.350
4.9467	24.704
4.9420	25.072
4.9373	25.436
4.9326	25.792
4.9279	26.160
4.9232	26.536
4.9186	26.899
4.9139	27.264
4.9092	27.637
4.9046	28.018
4.9000	28.385
4.8953	28.760
4.8907	29.133
4.8861	29.472
4.8815	29.817
4.8769	30.177
4.8723	30.519
4.8678	30.851
4.8632	31.168
4.8586	31.476
4.8541	31.764
4.8495	32.039
4.8450	32.323
4.8405	32.559
4.8360	32.817
4.8315	33.084
4.8270	33.318
4.8225	33.523
4.8180	33.726
4.8135	33.928
4.8090	34.118
4.8046	34.300
4.8001	34.453
4.7957	34.616
4.7913	34.767
4.7868	34.898
4.7824	35.016
4.7780	35.144
4.7736	35.276
4.7692	35.381
4.7648	35.485
4.7605	35.600
4.7561	35.678
4.7517	35.755
4.7474	35.849
4.7431	35.925
4.7387	36.019
4.7344	36.092
4.7301	36.175
4.7258	36.266
4.7215	36.318
4.7172	36.357
4.7129	36.447
4.7086	36.524
4.7043	36.591
4.7000	36.643
4.6958	36.685
4.6915	36.756
4.6873	36.825
4.6831	36.873
4.6788	36.920
4.6746	36.976
4.6704	37.027
4.6662	37.087
4.6620	37.140
4.6578	37.200
4.6536	37.255
4.6495	37.309
4.6453	37.373
4.6411	37.439
4.6370	37.480
4.6328	37.534
4.6287	37.578
4.6246	37.618
4.6205	37.702
4.6163	37.770
4.6122	37.796
4.6081	37.836
4.6040	37.903
4.6000	37.995
4.5959	38.041
4.5918	38.076
4.5877	38.135
4.5837	38.205
4.5796	38.276
4.5756	38.322
4.5716	38.394
4.5675	38.466
4.5635	38.534
4.5595	38.588
4.5555	38.650
4.5515	38.730
4.5475	38.824
4.5435	38.887
4.5395	38.944
4.5356	39.031
4.5316	39.119
4.5276	39.181
4.5237	39.237
4.5197	39.314
4.5158	39.409
4.5119	39.520
4.5080	39.624
4.5040	39.687
4.5001	39.754
4.4962	39.856
4.4923	39.973
4.4884	40.053
4.4846	40.152
4.4807	40.256
4.4768	40.317
4.4730	40.404
4.4691	40.523
4.4652	40.616
4.4614	40.723
4.4576	40.804
4.4537	40.891
4.4499	41.007
4.4461	41.117
4.4423	41.215
4.4385	41.328
4.4347	41.452
4.4309	41.566
4.4271	41.653
4.4233	41.756
4.4196	41.867
4.4158	41.989
4.4120	42.127
4.4083	42.237
4.4045	42.346
4.4008	42.457
4.3971	42.563
4.3934	42.680
4.3896	42.805
4.3859	42.909
4.3822	43.007
4.3785	43.114
4.3748	43.231
4.3711	43.331
4.3674	43.433
4.3638	43.555
4.3601	43.661
4.3564	43.792
4.3528	43.911
4.3491	44.013
4.3455	44.104
4.3418	44.224
4.3382	44.322
4.3346	44.410
4.3310	44.535
4.3273	44.643
4.3237	44.742
4.3201	44.839
4.3165	44.941
4.3129	45.048
4.3094	45.130
4.3058	45.231
4.3022	45.333
4.2986	45.417
4.2951	45.528
4.2915	45.627
4.2880	45.694
4.2844	45.766
4.2809	45.849
4.2774	45.937
4.2738	46.031
4.2703	46.110
4.2668	46.186
4.2633	46.222
4.2598	46.268
4.2563	46.352
4.2528	46.432
4.2493	46.541
4.2458	46.652
4.2424	46.756
4.2389	46.857
4.2354	46.951
4.2320	47.043
4.2285	47.134
4.2251	47.220
4.2216	47.326
4.2182	47.430
4.2148	47.510
4.2113	47.584
4.2079	47.662
4.2045	47.724
4.2011	47.806
4.1977	47.895
4.1943	47.987
4.1909	48.060
4.1875	48.138
4.1841	48.233
4.1808	48.297
4.1774	48.348
4.1740	48.409
4.1707	48.491
4.1673	48.559
4.1640	48.614
4.1606	48.701
4.1573	48.762
4.1540	48.807
4.1506	48.881
4.1473	48.963
4.1440	48.999
4.1407	49.059
4.1374	49.134
4.1341	49.184
4.1308	49.226
4.1275	49.278
4.1242	49.336
4.1209	49.393
4.1177	49.464
4.1144	49.524
4.1111	49.555
4.1079	49.594
4.1046	49.659
4.1014	49.720
4.0981	49.756
4.0949	49.796
4.0917	49.827
4.0884	49.854
4.0852	49.899
4.0820	49.961
4.0788	50.022
4.0756	50.059
4.0724	50.090
4.0692	50.100
4.0660	50.120
4.0628	50.150
4.0596	50.190
4.0565	50.238
4.0533	50.253
4.0501	50.271
4.0470	50.308
4.0438	50.329
4.0406	50.340
4.0375	50.356
4.0344	50.391
4.0312	50.405
4.0281	50.434
4.0250	50.477
4.0218	50.473
4.0187	50.475
4.0156	50.493
4.0125	50.518
4.0094	50.549
4.0063	50.559
4.0032	50.529
4.0001	50.543
3.9970	50.609
3.9940	50.604
3.9909	50.586
3.9878	50.623
3.9847	50.656
3.9817	50.656
3.9786	50.651
3.9756	50.666
3.9725	50.652
3.9695	50.672
3.9665	50.694
3.9634	50.678
3.9604	50.685
3.9574	50.723
3.9544	50.726
3.9513	50.713
3.9483	50.738
3.9453	50.741
3.9423	50.731
3.9393	50.732
3.9363	50.735
3.9333	50.735
3.9304	50.749
3.9274	50.756
3.9244	50.747
3.9214	50.749
3.9185	50.759
3.9155	50.748
3.9126	50.743
3.9096	50.763
3.9067	50.759
3.9037	50.744
3.9008	50.729
3.8979	50.757
3.8949	50.782
3.8920	50.769
3.8891	50.763
3.8862	50.763
3.8833	50.761
3.8804	50.765
3.8775	50.753
3.8746	50.720
3.8717	50.727
3.8688	50.750
3.8659	50.750
3.8630	50.734
3.8601	50.730
3.8573	50.728
3.8544	50.723
3.8515	50.730
3.8487	50.742
3.8458	50.746
3.8430	50.725
3.8401	50.689
3.8373	50.693
3.8344	50.714
3.8316	50.718
3.8288	50.701
3.8259	50.682
3.8231	50.680
3.8203	50.693
3.8175	50.675
3.8147	50.643
3.8119	50.628
3.8091	50.655
3.8063	50.660
3.8035	50.648
3.8007	50.632
3.7979	50.637
3.7951	50.638
3.7924	50.613
3.7896	50.583
3.7868	50.598
3.7841	50.606
3.7813	50.610
3.7785	50.611
3.7758	50.574
3.7730	50.552
3.7703	50.571
3.7676	50.573
3.7648	50.560
3.7621	50.543
3.7594	50.554
3.7566	50.551
3.7539	50.533
3.7512	50.536
3.7485	50.519
3.7458	50.493
3.7431	50.455
3.7404	50.441
3.7377	50.452
3.7350	50.444
3.7323	50.448
3.7296	50.449
3.7269	50.428
3.7242	50.410
3.7216	50.385
3.7189	50.383
3.7162	50.376
3.7136	50.380
3.7109	50.348
3.7083	50.331
3.7056	50.331
3.7030	50.322
3.7003	50.307
3.6977	50.285
3.6950	50.266
3.6924	50.249
3.6898	50.239
3.6872	50.240
3.6845	50.251
3.6819	50.236
3.6793	50.195
3.6767	50.168
3.6741	50.144
3.6715	50.131
3.6689	50.123
3.6663	50.108
3.6637	50.080
3.6611	50.068
3.6585	50.049
3.6560	50.042
3.6534	50.005
3.6508	49.979
3.6482	49.954
3.6457	49.927
3.6431	49.888
3.6406	49.859
3.6380	49.855
3.6355	49.829
3.6329	49.806
3.6304	49.775
3.6278	49.753
3.6253	49.747
3.6227	49.739
3.6202	49.707
3.6177	49.664
3.6152	49.645
3.6127	49.621
3.6101	49.583
3.6076	49.556
3.6051	49.520
3.6026	49.489
3.6001	49.469
3.5976	49.451
3.5951	49.425
3.5926	49.389
3.5901	49.360
3.5876	49.333
3.5852	49.284
3.5827	49.270
3.5802	49.256
3.5777	49.201
3.5753	49.181
3.5728	49.154
3.5704	49.119
3.5679	49.080
3.5654	49.025
3.5630	48.992
3.5605	48.972
3.5581	48.930
3.5557	48.876
3.5532	48.849
3.5508	48.846
3.5484	48.797
3.5459	48.725
3.5435	48.706
3.5411	48.693
3.5387	48.629
3.5363	48.552
3.5338	48.513
3.5314	48.478
3.5290	48.432
3.5266	48.366
3.5242	48.299
3.5218	48.229
3.5195	48.172
3.5171	48.121
3.5147	48.017
3.5123	47.913
3.5099	47.825
3.5075	47.776
3.5052	47.701
3.5028	47.654
3.5004	47.630
3.4981	47.591
3.4957	47.539
3.4934	47.519
3.4910	47.500
3.4887	47.497
3.4863	47.465
3.4840	47.430
3.4816	47.365
3.4793	47.303
3.4770	47.293
3.4746	47.258
3.4723	47.195
3.4700	47.143
3.4677	47.130
3.4653	47.105
3.4630	46.996
3.4607	46.894
3.4584	46.851
3.4561	46.799
3.4538	46.722
3.4515	46.666
3.4492	46.620
3.4469	46.526
3.4446	46.459
3.4423	46.407
3.4400	46.355
3.4378	46.276
3.4355	46.170
3.4332	46.058
3.4309	45.943
3.4287	45.857
3.4264	45.748
3.4241	45.652
3.4219	45.592
3.4196	45.521
3.4174	45.434
3.4151	45.364
3.4129	45.325
3.4106	45.306
3.4084	45.295
3.4061	45.290
3.4039	45.279
3.4017	45.272
3.3994	45.270
3.3972	45.214
3.3950	45.154
3.3928	45.133
3.3906	45.078
3.3883	45.021
3.3861	44.981
3.3839	44.920
3.3817	44.834
3.3795	44.788
3.3773	44.722
3.3751	44.686
3.3729	44.670
3.3707	44.613
3.3685	44.515
3.3663	44.486
3.3641	44.456
3.3620	44.361
3.3598	44.286
3.3576	44.258
3.3554	44.202
3.3533	44.127
3.3511	44.059
3.3489	43.994
3.3468	43.944
3.3446	43.892
3.3425	43.835
3.3403	43.761
3.3382	43.688
3.3360	43.625
3.3339	43.561
3.3317	43.461
3.3296	43.385
3.3274	43.332
3.3253	43.273
3.3232	43.196
3.3210	43.133
3.3189	43.048
3.3168	42.954
3.3147	42.890
3.3126	42.822
3.3104	42.764
3.3083	42.680
3.3062	42.607
3.3041	42.530
3.3020	42.447
3.2999	42.365
3.2978	42.289
3.2957	42.244
3.2936	42.178
3.2915	42.083
3.2894	42.013
3.2874	41.905
3.2853	41.832
3.2832	41.779
3.2811	41.731
3.2790	41.676
3.2770	41.561
3.2749	41.458
3.2728	41.398
3.2708	41.324
3.2687	41.243
3.2666	41.172
3.2646	41.098
3.2625	41.027
3.2605	40.979
3.2584	40.887
3.2564	40.799
3.2543	40.721
3.2523	40.611
3.2503	40.549
3.2482	40.481
3.2462	40.398
3.2442	40.342
3.2421	40.286
3.2401	40.165
3.2381	40.066
3.2361	40.012
3.2340	39.946
3.2320	39.840
3.2300	39.780
3.2280	39.718
3.2260	39.607
3.2240	39.503
3.2220	39.451
3.2200	39.391
3.2180	39.297
3.2160	39.210
3.2140	39.135
3.2120	39.076
3.2100	39.002
3.2080	38.926
3.2060	38.826
3.2040	38.747
3.2021	38.679
3.2001	38.606
3.1981	38.534
3.1961	38.480
3.1942	38.370
3.1922	38.281
3.1902	38.232
3.1883	38.175
3.1863	38.086
3.1844	37.978
3.1824	37.897
3.1805	37.867
3.1785	37.792
3.1766	37.712
3.1746	37.635
3.1727	37.551
3.1707	37.473
3.1688	37.428
3.1669	37.395
3.1649	37.306
3.1630	37.202
3.1611	37.125
3.1591	37.054
3.1572	36.977
3.1553	36.913
3.1534	36.862
3.1515	36.802
3.1495	36.724
3.1476	36.648
3.1457	36.599
3.1438	36.537
3.1419	36.438
3.1400	36.384
3.1381	36.347
3.1362	36.281
3.1343	36.196
3.1324	36.111
3.1305	36.041
3.1286	36.001
3.1268	35.963
3.1249	35.899
3.1230	35.795
3.1211	35.724
3.1192	35.668
3.1174	35.624
3.1155	35.551
3.1136	35.497
3.1117	35.448
3.1099	35.360
3.1080	35.315
3.1061	35.312
3.1043	35.260
3.1024	35.169
3.1006	35.119
3.0987	35.088
3.0969	35.021
3.0950	34.942
3.0932	34.843
3.0913	34.802
3.0895	34.788
3.0876	34.754
3.0858	34.686
3.0840	34.616
3.0821	34.539
3.0803	34.515
3.0785	34.449
3.0766	34.380
3.0748	34.350
3.0730	34.326
3.0712	34.274
3.0694	34.222
3.0675	34.174
3.0657	34.117
3.0639	34.084
3.0621	34.072
3.0603	34.004
3.0585	33.947
3.0567	33.894
3.0549	33.840
3.0531	33.779
3.0513	33.729
3.0495	33.700
3.0477	33.663
3.0459	33.628
3.0441	33.583
3.0423	33.527
3.0406	33.484
3.0388	33.443
3.0370	33.391
3.0352	33.363
3.0334	33.358
3.0317	33.300
3.0299	33.197
3.0281	33.160
3.0264	33.129
3.0246	33.094
3.0228	33.041
3.0211	32.982
3.0193	32.921
3.0176	32.872
3.0158	32.837
3.0140	32.824
3.0123	32.767
3.0105	32.692
3.0088	32.661
3.0070	32.576
3.0053	32.495
3.0036	32.495
3.0018	32.521
3.0001	32.461
2.9984	32.380
2.9966	32.342
2.9949	32.296
2.9932	32.220
2.9914	32.192
2.9897	32.169
2.9880	32.131
2.9863	32.074
2.9845	32.014
2.9828	31.959
2.9811	31.972
2.9794	31.920
2.9777	31.869
2.9760	31.863
2.9743	31.822
2.9726	31.735
2.9709	31.678
2.9692	31.660
2.9675	31.599
2.9658	31.559
2.9641	31.501
2.9624	31.452
2.9607	31.434
2.9590	31.375
2.9573	31.309
2.9556	31.307
2.9539	31.282
2.9523	31.237
2.9506	31.183
2.9489	31.129
2.9472	31.061
2.9455	31.037
2.9439	31.017
2.9422	31.009
2.9405	30.994
2.9389	30.919
2.9372	30.836
2.9355	30.776
2.9339	30.754
2.9322	30.764
2.9306	30.755
2.9289	30.715
2.9272	30.659
2.9256	30.647
2.9239	30.592
2.9223	30.490
2.9207	30.451
2.9190	30.423
2.9174	30.412
2.9157	30.371
2.9141	30.315
2.9124	30.281
2.9108	30.262
2.9092	30.274
2.9075	30.216
2.9059	30.140
2.9043	30.100
2.9027	30.081
2.9010	30.015
2.8994	29.992
2.8978	29.982
2.8962	29.929
2.8946	29.945
2.8929	29.895
2.8913	29.845
2.8897	29.840
2.8881	29.774
2.8865	29.694
2.8849	29.651
2.8833	29.648
2.8817	29.639
2.8801	29.630
2.8785	29.579
2.8769	29.523
2.8753	29.495
2.8737	29.456
2.8721	29.421
2.8705	29.397
2.8689	29.391
2.8673	29.338
2.8658	29.264
2.8642	29.199
2.8626	29.169
2.8610	29.171
2.8594	29.122
2.8579	29.062
2.8563	29.055
2.8547	29.083
2.8531	29.041
2.8516	28.997
2.8500	28.965
2.8484	28.909
2.8469	28.872
2.8453	28.875
2.8437	28.866
2.8422	28.827
2.8406	28.790
2.8391	28.759
2.8375	28.668
2.8360	28.645
2.8344	28.658
2.8329	28.665
2.8313	28.639
2.8298	28.571
2.8282	28.545
2.8267	28.552
2.8252	28.535
2.8236	28.523
2.8221	28.504
2.8205	28.464
2.8190	28.397
2.8175	28.388
2.8159	28.390
2.8144	28.365
2.8129	28.343
2.8114	28.320
2.8098	28.291
2.8083	28.324
2.8068	28.321
2.8053	28.284
2.8038	28.245
2.8022	28.223
2.8007	28.271
2.7992	28.285
2.7977	28.297
2.7962	28.290
2.7947	28.240
2.7932	28.249
2.7917	28.307
2.7902	28.331
2.7887	28.301
2.7872	28.306
2.7857	28.372
2.7842	28.397
2.7827	28.427
2.7812	28.518
2.7797	28.577
2.7782	28.599
2.7767	28.663
2.7752	28.715
2.7738	28.764
2.7723	28.836
2.7708	28.899
2.7693	29.001
2.7678	29.147
2.7664	29.280
2.7649	29.371
2.7634	29.468
2.7619	29.581
2.7605	29.751
2.7590	29.956
2.7575	30.115
2.7561	30.184
2.7546	30.363
2.7531	30.648
2.7517	30.867
2.7502	31.105
2.7488	31.366
2.7473	31.655
2.7458	31.898
2.7444	32.174
2.7429	32.496
2.7415	32.759
2.7400	33.018
2.7386	33.463
2.7371	33.933
2.7357	34.303
2.7343	34.646
2.7328	35.044
2.7314	35.506
2.7299	35.999
2.7285	36.498
2.7271	36.963
2.7256	37.335
2.7242	37.789
2.7228	38.407
2.7213	38.895
2.7199	39.324
2.7185	39.973
2.7171	40.572
2.7156	41.124
2.7142	41.599
2.7128	42.092
2.7114	42.512
2.7100	42.977
2.7085	43.522
2.7071	44.030
2.7057	44.486
2.7043	44.879
2.7029	45.215
2.7015	45.542
2.7001	45.915
2.6987	46.239
2.6973	46.513
2.6959	46.725
2.6945	46.887
2.6931	47.080
2.6917	47.423
2.6903	47.679
2.6889	47.818
2.6875	47.959
2.6861	48.111
2.6847	48.201
2.6833	48.283
2.6819	48.442
2.6805	48.565
2.6791	48.579
2.6778	48.626
2.6764	48.669
2.6750	48.775
2.6736	48.910
2.6722	48.987
2.6709	48.853
2.6695	48.966
2.6681	49.311
2.6667	49.380
2.6654	49.471
2.6640	49.625
2.6626	49.822
2.6613	49.883
2.6599	49.955
2.6585	49.988
2.6572	50.008
2.6558	50.036
2.6545	50.029
2.6531	50.015
2.6517	50.062
2.6504	50.122
2.6490	50.180
2.6477	50.185
2.6463	50.196
2.6450	50.202
2.6436	50.229
2.6423	50.214
2.6409	50.186
2.6396	50.209
2.6382	50.263
2.6369	50.275
2.6356	50.261
2.6342	50.217
2.6329	50.249
2.6315	50.175
2.6302	50.028
2.6289	50.135
2.6275	50.212
2.6262	50.154
2.6249	50.223
2.6236	50.248
2.6222	50.241
2.6209	50.147
2.6196	50.059
2.6183	50.101
2.6169	50.052
2.6156	50.088
2.6143	50.162
2.6130	50.179
2.6117	50.209
2.6103	50.197
2.6090	50.182
2.6077	50.159
2.6064	50.054
2.6051	49.984
2.6038	50.029
2.6025	50.057
2.6012	50.147
2.5999	50.130
2.5986	50.128
2.5973	50.136
2.5960	49.957
2.5947	49.744
2.5934	49.863
2.5921	50.024
2.5908	50.061
2.5895	50.035
2.5882	50.006
2.5869	49.984
2.5856	49.974
2.5843	49.933
2.5830	49.939
2.5817	49.996
2.5805	49.984
2.5792	49.987
2.5779	49.991
2.5766	49.990
2.5753	49.988
2.5741	49.950
2.5728	49.903
2.5715	49.933
2.5702	49.906
2.5690	49.845
2.5677	49.898
2.5664	49.979
2.5651	49.933
2.5639	49.840
2.5626	49.825
2.5613	49.822
2.5601	49.888
2.5588	49.922
2.5575	49.870
2.5563	49.852
2.5550	49.897
2.5538	49.906
2.5525	49.829
2.5513	49.846
2.5500	49.847
2.5487	49.853
2.5475	49.852
2.5462	49.894
2.5450	49.854
2.5437	49.807
2.5425	49.812
2.5413	49.874
2.5400	49.898
2.5388	49.908
2.5375	49.874
2.5363	49.860
2.5350	49.864
2.5338	49.832
2.5326	49.844
2.5313	49.871
2.5301	49.887
2.5289	49.822
2.5276	49.768
2.5264	49.857
2.5252	49.916
2.5239	49.873
2.5227	49.843
2.5215	49.830
2.5202	49.846
2.5190	49.816
2.5178	49.824
2.5166	49.811
2.5154	49.871
2.5141	49.859
2.5129	49.849
2.5117	49.896
2.5105	49.870
2.5093	49.796
2.5081	49.774
2.5068	49.743
2.5056	49.807
2.5044	49.859
2.5032	49.845
2.5020	49.836
2.5008	49.854
2.4996	49.865
2.4984	49.756
2.4972	49.751
2.4960	49.835
2.4948	49.830
2.4936	49.869
2.4924	49.858
2.4912	49.799
2.4900	49.776
2.4888	49.881
2.4876	49.924
2.4864	49.854
2.4852	49.780
2.4840	49.732
2.4828	49.706
2.4816	49.785
2.4805	49.838
2.4793	49.831
2.4781	49.825
2.4769	49.873
2.4757	49.856
2.4745	49.786
2.4734	49.798
2.4722	49.906
2.4710	49.923
2.4698	49.870
2.4686	49.832
2.4675	49.833
2.4663	49.817
2.4651	49.845
2.4640	49.786
2.4628	49.702
2.4616	49.800
2.4604	49.842
2.4593	49.823
2.4581	49.929
2.4569	49.926
2.4558	49.872
2.4546	49.842
2.4535	49.875
2.4523	49.859
2.4511	49.849
2.4500	49.842
2.4488	49.878
2.4477	49.888
2.4465	49.856
2.4454	49.931
2.4442	49.898
2.4431	49.837
2.4419	49.845
2.4408	49.896
2.4396	49.855
2.4385	49.855
2.4373	49.923
2.4362	49.935
2.4350	49.974
2.4339	49.986
2.4327	49.924
2.4316	49.923
2.4305	49.910
2.4293	49.891
2.4282	49.938
2.4270	49.946
2.4259	49.907
2.4248	49.930
2.4236	49.928
2.4225	49.883
2.4214	49.887
2.4202	49.950
2.4191	49.933
2.4180	49.914
2.4169	49.871
2.4157	49.894
2.4146	49.943
2.4135	49.949
2.4124	49.860
2.4112	49.856
2.4101	49.874
2.4090	49.870
2.4079	49.814
2.4068	49.811
2.4056	49.905
2.4045	49.972
2.4034	49.896
2.4023	49.866
2.4012	49.920
2.4001	49.965
2.3990	49.932
2.3979	49.895
2.3967	49.921
2.3956	49.898
2.3945	49.858
2.3934	49.891
2.3923	49.887
2.3912	49.849
2.3901	49.854
2.3890	49.871
2.3879	49.811
2.3868	49.825
2.3857	49.831
2.3846	49.829
2.3835	49.724
2.3824	49.723
2.3813	49.830
2.3802	49.853
2.3791	49.834
2.3781	49.803
2.3770	49.809
2.3759	49.785
2.3748	49.750
2.3737	49.824
2.3726	49.847
2.3715	49.737
2.3704	49.734
2.3694	49.797
2.3683	49.761
2.3672	49.772
2.3661	49.784
2.3650	49.834
2.3640	49.813
2.3629	49.849
2.3618	49.872
2.3607	49.825
2.3597	49.778
2.3586	49.774
2.3575	49.828
2.3564	49.871
2.3554	49.846
2.3543	49.791
2.3532	49.769
2.3522	49.741
2.3511	49.718
2.3500	49.702
2.3490	49.625
2.3479	49.668
2.3468	49.728
2.3458	49.671
2.3447	49.659
2.3436	49.690
2.3426	49.682
2.3415	49.635
2.3405	49.647
2.3394	49.688
2.3384	49.690
2.3373	49.673
2.3363	49.636
2.3352	49.658
2.3342	49.625
2.3331	49.571
2.3321	49.559
2.3310	49.596
2.3300	49.680
2.3289	49.672
2.3279	49.587
2.3268	49.625
2.3258	49.612
2.3247	49.614
2.3237	49.623
2.3226	49.591
2.3216	49.536
2.3206	49.515
2.3195	49.531
2.3185	49.527
2.3175	49.537
2.3164	49.489
2.3154	49.560
2.3144	49.552
2.3133	49.494
2.3123	49.520
2.3113	49.545
2.3102	49.533
2.3092	49.488
2.3082	49.479
2.3071	49.500
2.3061	49.496
2.3051	49.449
2.3041	49.444
2.3030	49.559
2.3020	49.552
2.3010	49.488
2.3000	49.464
2.2990	49.471
2.2979	49.460
2.2969	49.428
2.2959	49.418
2.2949	49.416
2.2939	49.398
2.2929	49.381
2.2918	49.341
2.2908	49.352
2.2898	49.374
2.2888	49.420
2.2878	49.399
2.2868	49.347
2.2858	49.356
2.2848	49.314
2.2838	49.321
2.2828	49.319
2.2818	49.258
2.2808	49.285
2.2798	49.325
2.2787	49.283
2.2777	49.256
2.2767	49.243
2.2757	49.290
2.2747	49.270
2.2738	49.235
2.2728	49.234
2.2718	49.222
2.2708	49.210
2.2698	49.206
2.2688	49.208
2.2678	49.215
2.2668	49.155
2.2658	49.139
2.2648	49.249
2.2638	49.278
2.2628	49.325
2.2618	49.302
2.2609	49.237
2.2599	49.161
2.2589	49.138
2.2579	49.155
2.2569	49.211
2.2559	49.132
2.2550	49.114
2.2540	49.110
2.2530	49.144
2.2520	49.209
2.2510	49.180
2.2501	49.170
2.2491	49.073
2.2481	49.051
2.2471	49.083
2.2462	49.138
2.2452	49.162
2.2442	49.168
2.2433	49.101
2.2423	49.020
2.2413	49.016
2.2403	49.079
2.2394	49.141
2.2384	49.154
2.2374	49.104
2.2365	49.091
2.2355	49.051
2.2345	49.003
2.2336	49.089
2.2326	49.118
2.2317	49.035
2.2307	48.968
2.2297	48.957
2.2288	48.937
2.2278	48.963
2.2269	49.008
2.2259	49.009
2.2250	48.993
2.2240	49.054
2.2231	49.025
2.2221	48.986
2.2211	48.974
2.2202	48.922
2.2192	48.970
2.2183	49.019
2.2173	49.015
2.2164	48.961
2.2155	48.975
2.2145	49.002
2.2136	48.972
2.2126	49.015
2.2117	49.066
2.2107	49.037
2.2098	49.001
2.2088	48.975
2.2079	48.995
2.2070	48.985
2.2060	49.041
2.2051	49.031
2.2041	49.005
2.2032	49.051
2.2023	49.078
2.2013	49.060
2.2004	49.100
2.1995	49.136
2.1985	49.118
2.1976	49.147
2.1967	49.260
2.1957	49.250
2.1948	49.194
2.1939	49.178
2.1930	49.185
2.1920	49.236
2.1911	49.293
2.1902	49.288
2.1893	49.265
2.1883	49.329
2.1874	49.369
2.1865	49.377
2.1856	49.389
2.1846	49.442
2.1837	49.460
2.1828	49.439
2.1819	49.506
2.1810	49.520
2.1800	49.514
2.1791	49.557
2.1782	49.529
2.1773	49.509
2.1764	49.625
2.1755	49.707
2.1746	49.713
2.1736	49.718
2.1727	49.722
2.1718	49.658
2.1709	49.661
2.1700	49.788
2.1691	49.808
2.1682	49.818
2.1673	49.811
2.1664	49.784
2.1655	49.773
2.1646	49.744
2.1637	49.777
2.1628	49.780
2.1619	49.806
2.1610	49.770
2.1601	49.828
2.1592	49.857
2.1583	49.805
2.1574	49.811
2.1565	49.901
2.1556	49.957
2.1547	49.875
2.1538	49.892
2.1529	49.968
2.1520	49.948
2.1511	49.938
2.1502	49.933
2.1493	49.963
2.1484	49.939
2.1475	49.919
2.1466	49.912
2.1458	49.959
2.1449	49.998
2.1440	50.035
2.1431	49.991
2.1422	49.957
2.1413	50.017
2.1404	49.945
2.1396	49.901
2.1387	49.965
2.1378	49.954
2.1369	49.964
2.1360	49.979
2.1352	50.002
2.1343	50.073
2.1334	50.062
2.1325	49.984
2.1316	50.026
2.1308	50.083
2.1299	50.066
2.1290	50.069
2.1281	50.102
2.1273	50.117
2.1264	50.039
2.1255	50.062
2.1247	50.022
2.1238	50.023
2.1229	50.102
2.1220	50.096
2.1212	50.084
2.1203	50.104
2.1194	50.043
2.1186	50.036
2.1177	50.111
2.1168	50.168
2.1160	50.099
2.1151	50.124
2.1143	50.127
2.1134	50.086
2.1125	50.035
2.1117	50.067
2.1108	50.140
2.1100	50.178
2.1091	50.130
2.1082	50.088
2.1074	50.083
2.1065	50.172
2.1057	50.180
2.1048	50.135
2.1040	50.132
2.1031	50.189
2.1023	50.195
2.1014	50.160
2.1005	50.142
2.0997	50.135
2.0988	50.116
2.0980	50.138
2.0971	50.131
2.0963	50.145
2.0955	50.259
2.0946	50.311
2.0938	50.217
2.0929	50.169
2.0921	50.216
2.0912	50.220
2.0904	50.192
2.0895	50.189
2.0887	50.181
2.0879	50.164
2.0870	50.125
2.0862	50.147
2.0853	50.163
2.0845	50.224
2.0837	50.316
2.0828	50.246
2.0820	50.237
2.0812	50.253
2.0803	50.230
2.0795	50.296
2.0760	50.296
2.0720	50.256
2.0680	50.159
2.0640	50.252
2.0600	50.252
2.0560	50.682
2.0520	50.393
2.0480	50.102
2.0440	50.281
2.0400	50.146
2.0360	49.770
2.0320	49.400
2.0280	49.678
2.0240	49.675
2.0200	49.482
2.0160	49.482
2.0120	49.074
2.0080	49.026
2.0040	49.112
2.0000	49.388
1.9960	49.297
1.9920	48.933
1.9880	48.931
1.9840	48.877
1.9800	48.831
1.9760	48.961
1.9720	49.110
1.9680	49.107
1.9640	49.060
1.9600	48.518
1.9560	48.113
1.9520	48.024
1.9480	47.980
1.9440	47.844
1.9400	47.661
1.9360	47.240
1.9320	46.648
1.9280	47.384
1.9240	47.201
1.9200	46.649
1.9160	46.407
1.9120	46.684
1.9080	46.548
1.9040	46.422
1.9000	46.388
1.8960	46.310
1.8920	46.455
1.8880	46.857
1.8840	47.135
1.8800	47.124
1.8760	47.435
1.8720	47.660
1.8680	47.479
1.8640	47.788
1.8600	47.886
1.8560	47.883
1.8520	48.104
1.8480	48.104
1.8440	48.069
1.8400	48.205
1.8360	48.205
1.8320	48.425
1.8280	48.292
1.8240	48.112
1.8200	48.244
1.8160	48.110
1.8120	47.966
1.8080	47.888
1.8040	47.977
1.8000	48.065
1.7960	48.277
1.7920	48.110
1.7880	47.800
1.7840	47.668
1.7800	47.624
1.7760	47.977
1.7720	48.021
1.7680	48.021
1.7640	48.288
1.7600	48.245
1.7560	48.288
1.7520	48.245
1.7480	48.378
1.7440	48.244
1.7400	47.890
1.7360	48.069
1.7320	48.203
1.7280	48.203
1.7240	48.292
1.7200	48.648
1.7160	48.468
1.7120	48.245
1.7080	48.032
1.7040	47.756
1.7000	47.712
1.6960	47.712
1.6920	47.668
1.6880	47.756
1.6840	47.932
1.6800	47.888
1.6760	47.712
1.6720	47.668
1.6680	47.668
1.6640	47.624
1.6600	47.668
1.6560	47.458
1.6520	47.678
1.6480	47.678
1.6440	47.634
1.6400	47.590
1.6360	47.536
1.6320	47.546
1.6280	47.767
1.6240	47.668
1.6200	47.413
1.6160	47.325
1.6120	47.149
1.6080	47.325
1.6040	47.500
1.6000	47.589
1.5960	47.457
1.5920	47.678
1.5880	47.193
1.5840	47.019
1.5800	46.757
1.5760	46.973
1.5720	46.931
1.5680	47.019
1.5640	46.994
1.5600	47.194
1.5560	47.020
1.5520	46.952
1.5480	46.949
1.5440	47.037
1.5400	46.994
1.5360	46.952
1.5320	46.952
1.5280	47.126
1.5240	47.037
1.5200	47.082
1.5160	46.951
1.5120	46.645
1.5080	46.382
1.5040	46.289
1.5000	46.367
1.4960	46.558
1.4920	46.515
1.4880	46.517
1.4840	46.560
1.4800	46.438
1.4760	46.339
1.4720	46.339
1.4680	46.220
1.4640	46.177
1.4600	46.005
1.4560	46.132
1.4520	46.299
1.4480	45.901
1.4440	45.894
1.4400	45.756
1.4360	45.705
1.4320	45.794
1.4280	45.588
1.4240	45.546
1.4200	45.504
1.4160	45.233
1.4120	45.303
1.4080	45.478
1.4040	45.266
1.4000	45.252
1.3960	45.303
1.3920	45.266
1.3880	45.393
1.3840	45.478
1.3800	45.649
1.3760	45.520
1.3720	45.592
1.3680	45.569
1.3640	45.725
1.3600	45.534
1.3560	45.534
1.3520	45.611
1.3480	45.502
1.3440	45.727
1.3400	45.530
1.3360	45.393
1.3320	45.137
1.3280	45.096
1.3240	45.004
1.3200	45.163
1.3160	45.329
1.3120	45.216
1.3080	45.076
1.3040	45.029
1.3000	45.070
1.2960	45.023
1.2920	45.059
1.2880	44.918
1.2840	44.948
1.2800	44.757
1.2760	44.799
1.2720	44.919
1.2680	44.889
1.2640	44.509
1.2600	44.468
1.2560	44.331
1.2520	44.155
1.2480	44.230
1.2440	44.223
1.2400	44.299
1.2360	44.128
1.2320	44.109
1.2280	44.237
1.2240	44.361
1.2200	44.674
1.2160	44.799
1.2120	44.433
1.2080	44.494
1.2040	44.412
1.2000	44.371
1.1960	44.338
1.1920	44.219
1.1880	44.138
1.1840	44.146
1.1800	43.951
1.1760	44.153
1.1720	44.193
1.1680	44.039
1.1640	44.071
1.1600	44.152
1.1560	44.225
1.1520	43.951
1.1480	43.862
1.1440	43.558
1.1400	43.750
1.1360	44.262
1.1320	43.750
1.1280	44.058
1.1240	43.824
1.1200	43.638
1.1160	43.695
1.1120	43.655
1.1080	43.617
1.1040	43.745
1.1000	43.825
1.0960	43.794
1.0920	43.745
1.0880	43.754
1.0840	43.745
1.0800	43.844
1.0760	43.804
1.0720	43.901
1.0680	43.804
1.0640	43.878
1.0600	43.958
1.0560	43.958
1.0520	44.078
1.0480	43.950
1.0440	43.958
1.0400	43.759
1.0360	44.095
1.0320	44.432
1.0280	44.288
1.0240	44.450
1.0200	44.255
1.0160	44.473
1.0120	44.480
1.0080	44.432
1.0040	44.551
1.0000	44.437
0.9960	44.437
0.9920	44.638
0.9880	44.536
0.9840	44.698
0.9800	44.739
0.9760	44.776
0.9720	44.614
0.9680	44.736
0.9640	44.953
0.9600	44.654
0.9560	44.817
0.9520	44.953
0.9480	44.953
0.9440	45.042
0.9400	45.174
0.9360	45.256
0.9320	45.133
0.9280	44.969
0.9240	45.315
0.9200	45.403
0.9160	45.139
0.9120	45.139
0.9080	45.688
0.9040	45.444
0.9000	45.393
0.8960	45.605
0.8920	45.605
0.8880	45.730
0.8840	45.688
0.8800	45.756
0.8760	45.579
0.8720	45.798
0.8680	45.621
0.8640	45.705
0.8600	45.957
0.8560	45.826
0.8520	45.826
0.8480	45.779
0.8440	45.695
0.8400	45.569
0.8360	45.831
0.8320	45.574
0.8280	45.705
0.8240	45.798
0.8200	45.933
0.8160	45.677
0.8120	45.863
0.8080	45.867
0.8040	45.789
0.8000	45.715
0.7990	44.825
0.7980	44.825
0.7970	44.546
0.7960	44.733
0.7950	44.825
0.7940	45.016
0.7930	45.110
0.7920	45.064
0.7910	44.826
0.7900	44.731
0.7890	45.016
0.7880	45.206
0.7870	45.114
0.7860	44.870
0.7850	44.725
0.7840	44.631
0.7830	45.058
0.7820	45.254
0.7810	45.489
0.7800	45.393
0.7790	45.297
0.7780	45.110
0.7770	44.963
0.7760	45.063
0.7750	45.110
0.7740	45.107
0.7730	44.868
0.7720	44.959
0.7710	45.007
0.7700	45.102
0.7690	45.197
0.7680	45.341
0.7670	45.102
0.7660	45.293
0.7650	45.102
0.7640	45.334
0.7630	45.485
0.7620	45.389
0.7610	45.342
0.7600	45.150
0.7590	45.102
0.7580	45.526
0.7570	45.389
0.7560	45.006
0.7550	44.862
0.7540	44.819
0.7530	45.197
0.7520	45.293
0.7510	45.197
0.7500	45.153
0.7490	45.094
0.7480	44.624
0.7470	44.768
0.7460	44.671
0.7450	45.149
0.7440	45.293
0.7430	45.479
0.7420	45.198
0.7410	45.430
0.7400	45.341
0.7390	45.526
0.7380	45.054
0.7370	45.245
0.7360	45.238
0.7350	45.100
0.7340	44.908
0.7330	44.815
0.7320	44.624
0.7310	44.663
0.7300	44.901
0.7290	45.005
0.7280	45.093
0.7270	45.621
0.7260	45.624
0.7250	45.245
0.7240	45.286
0.7230	45.238
0.7220	45.141
0.7210	45.334
0.7200	45.382
0.7190	45.142
0.7180	44.898
0.7170	44.475
0.7160	44.471
0.7150	44.661
0.7140	44.475
0.7130	44.570
0.7120	44.613
0.7110	44.852
0.7100	44.857
0.7090	44.715
0.7080	44.572
0.7070	44.512
0.7060	44.708
0.7050	44.562
0.7040	44.467
0.7030	44.608
0.7020	44.944
0.7010	44.990
0.7000	45.135
0.6990	44.947
0.6980	44.394
0.6970	44.596
0.6960	44.844
0.6950	44.741
0.6940	44.741
0.6930	44.940
0.6920	44.990
0.6910	45.138
0.6900	45.237
0.6890	45.336
0.6880	45.138
0.6870	44.743
0.6860	44.989
0.6850	44.990
0.6840	44.694
0.6830	44.694
0.6820	44.939
0.6810	44.743
0.6800	44.840
0.6790	44.742
0.6780	44.643
0.6770	44.247
0.6760	44.443
0.6750	44.492
0.6740	45.088
0.6730	44.988
0.6720	44.889
0.6710	44.989
0.6700	44.543
0.6690	44.443
0.6680	44.346
0.6670	44.344
0.6660	44.246
0.6650	44.149
0.6640	44.292
0.6630	44.490
0.6620	44.491
0.6610	44.491
0.6600	44.392
0.6590	44.393
0.6580	44.393
0.6570	44.393
0.6560	44.247
0.6550	44.094
0.6540	44.094
0.6530	43.752
0.6520	43.792
0.6510	44.238
0.6500	44.339
0.6490	44.292
0.6480	44.294
0.6470	44.094
0.6460	44.044
0.6450	43.945
0.6440	44.342
0.6430	44.392
0.6420	43.949
0.6410	44.093
0.6400	44.093
0.6390	44.040
0.6380	43.991
0.6370	43.995
0.6360	43.993
0.6350	43.845
0.6340	43.995
0.6330	43.995
0.6320	44.044
0.6310	43.748
0.6300	43.547
0.6290	43.840
0.6280	43.496
0.6270	43.940
0.6260	44.038
0.6250	44.038
0.6240	43.740
0.6230	43.989
0.6220	43.738
0.6210	43.589
0.6200	43.489
0.6190	43.438
0.6180	43.784
0.6170	43.787
0.6160	43.838
0.6150	43.641
0.6140	43.489
0.6130	43.492
0.6120	43.492
0.6110	43.190
0.6100	43.238
0.6090	43.432
0.6080	43.286
0.6070	43.238
0.6060	43.286
0.6050	43.186
0.6040	43.082
0.6030	43.130
0.6020	42.929
0.6010	42.729
0.6000	42.969
0.5990	43.220
0.5980	43.216
0.5970	43.213
0.5960	43.111
0.5950	43.209
0.5940	43.054
0.5930	43.209
0.5920	43.152
0.5910	43.356
0.5900	43.458
0.5890	43.406
0.5880	42.847
0.5870	42.949
0.5860	42.849
0.5850	42.805
0.5840	43.152
0.5830	43.149
0.5820	42.802
0.5810	43.111
0.5800	42.917
0.5790	42.763
0.5780	42.917
0.5770	42.763
0.5760	43.111
0.5750	43.213
0.5740	43.066
0.5730	43.182
0.5720	42.942
0.5710	42.942
0.5700	42.894
0.5690	42.595
0.5680	42.453
0.5670	42.638
0.5660	42.628
0.5650	42.327
0.5640	42.385
0.5630	42.427
0.5620	42.475
0.5610	42.422
0.5600	42.311
0.5590	42.407
0.5580	41.623
0.5570	41.671
0.5560	41.249
0.5550	41.057
0.5540	40.965
0.5530	40.865
0.5520	41.001
0.5510	40.801
0.5500	40.773
0.5490	40.856
0.5480	41.321
0.5470	40.951
0.5460	40.898
0.5450	40.659
0.5440	41.033
0.5430	41.326
0.5420	41.035
0.5410	41.070
0.5400	40.697
0.5390	40.929
0.5380	41.259
0.5370	41.281
0.5360	41.131
0.5350	41.259
0.5340	41.109
0.5330	41.109
0.5320	40.878
0.5310	40.816
0.5300	40.861
0.5290	41.003
0.5280	40.861
0.5270	40.736
0.5260	40.736
0.5250	41.156
0.5240	41.064
0.5230	40.840
0.5220	40.514
0.5210	40.514
0.5200	40.609
0.5190	40.787
0.5180	40.493
0.5170	40.691
0.5160	40.878
0.5150	40.772
0.5140	40.549
0.5130	40.833
0.5120	40.878
0.5110	40.929
0.5100	40.602
0.5090	40.398
0.5080	40.065
0.5070	40.294
0.5060	40.623
0.5050	40.442
0.5040	40.712
0.5030	40.471
0.5020	40.011
0.5010	40.090
0.5000	40.132
0.4990	39.935
0.4980	40.446
0.4970	40.588
0.4960	40.500
0.4950	40.111
0.4940	39.850
0.4930	40.032
0.4920	39.967
0.4910	40.065
0.4900	40.198
0.4890	39.961
0.4880	39.904
0.4870	40.057
0.4860	40.135
0.4850	39.863
0.4840	39.863
0.4830	40.037
0.4820	39.820
0.4810	39.961
0.4800	39.712
0.4790	39.765
0.4780	39.941
0.4770	39.897
0.4760	39.799
0.4750	39.312
0.4740	39.649
0.4730	39.596
0.4720	39.608
0.4710	39.706
0.4700	39.608
0.4690	39.608
0.4680	39.716
0.4670	39.651
0.4660	39.554
0.4650	39.499
0.4640	39.402
0.4630	39.119
0.4620	39.286
0.4610	39.090
0.4600	39.232
0.4590	40.195
0.4580	40.102
0.4570	40.207
0.4560	39.951
0.4550	39.894
0.4540	39.751
0.4530	39.894
0.4520	40.068
0.4510	39.967
0.4500	39.998
0.4490	39.981
0.4480	40.155
0.4470	39.997
0.4460	39.722
0.4450	39.447
0.4440	39.414
0.4430	39.559
0.4420	40.112
0.4410	39.461
0.4400	39.520
0.4390	39.174
0.4380	39.403
0.4370	39.413
0.4360	39.311
0.4350	39.585
0.4340	39.250
0.4330	39.064
0.4320	39.030
0.4310	39.277
0.4300	39.317
0.4290	39.249
0.4280	38.940
0.4270	39.194
0.4260	38.718
0.4250	38.537
0.4240	38.531
0.4230	38.760
0.4220	38.475
0.4210	38.165
0.4200	38.658
0.4190	38.448
0.4180	38.552
0.4170	38.407
0.4160	38.424
0.4150	38.199
0.4140	37.915
0.4130	37.975
0.4120	38.036
0.4110	38.037
0.4100	38.015
0.4090	38.015
0.4080	37.813
0.4070	37.870
0.4060	37.380
0.4050	37.707
0.4040	37.930
0.4030	37.685
0.4020	37.868
0.4010	37.844
0.4000	37.348
