Name: Basalt
Type: Rocks
Class: Igneous
Subclass: Mafic
Particle Size: 0-75 micrometers
Sample No.: Basalt.H10
Owner: JHU
Wavelength range: All
Origin: from Kilauea, via Rosalind Helz, USGS, Reston, VA (Cat. No. KI 
81-1-273.6)
Description: The sample from which the powder was derived is light gray 
porphyritic rock with green olivine phenocrysts 1-2 mm in size making up 
about 3% of the rock; set in a gray, very fine-grained groundmass.



Measurement: Directional (10 degree) hemispherical reflectance
First Column: X
Second Column: Y
X Units: Wavelength (micrometers)
Y Units: Reflectance (percent)
First X Value: 14.0112
Last X Value: 0.4000
Number of X Values: 2844
Additional information: basa10a.txt

14.011	1.4460
13.973	1.1855
13.936	1.4738
13.899	1.6462
13.861	1.6237
13.824	1.9894
13.788	1.8712
13.751	1.9374
13.715	2.1379
13.679	2.0779
13.643	1.9425
13.607	1.7700
13.571	1.5253
13.536	1.4449
13.500	1.5039
13.465	1.7545
13.430	2.1375
13.396	2.3543
13.361	2.2772
13.327	1.9345
13.293	1.9659
13.259	2.3102
13.225	2.3418
13.191	2.2694
13.158	2.2763
13.124	2.3693
13.091	2.3981
13.058	2.3142
13.026	2.2922
12.993	2.6137
12.960	2.6194
12.928	2.5237
12.896	2.6166
12.864	2.5355
12.832	2.5101
12.800	2.6006
12.769	2.7182
12.737	2.6873
12.706	2.6128
12.675	2.6901
12.644	2.8572
12.614	2.8873
12.583	2.8671
12.552	2.9667
12.522	3.1327
12.492	3.2011
12.462	3.0764
12.432	3.1361
12.402	3.1657
12.373	3.2496
12.343	3.4148
12.314	3.4141
12.285	3.3535
12.256	3.4980
12.227	3.5704
12.198	3.4976
12.169	3.4164
12.141	3.4160
12.113	3.3494
12.084	3.3133
12.056	3.2948
12.028	3.2459
12.000	3.2393
11.973	3.1233
11.945	3.0384
11.918	3.0220
11.890	2.9117
11.863	2.8568
11.836	2.8751
11.809	2.9060
11.782	2.9641
11.755	3.0075
11.729	2.9941
11.702	3.0052
11.676	3.0110
11.650	3.0382
11.624	3.0325
11.598	2.9707
11.572	3.0255
11.546	3.1664
11.520	3.1802
11.495	3.1847
11.469	3.2920
11.444	3.3832
11.419	3.3951
11.394	3.4214
11.369	3.4376
11.344	3.4470
11.319	3.4122
11.294	3.4507
11.270	3.5044
11.245	3.4696
11.221	3.4078
11.197	3.4310
11.173	3.4910
11.149	3.4720
11.125	3.4859
11.101	3.4842
11.077	3.4836
11.054	3.4629
11.030	3.4298
11.007	3.4797
10.983	3.5241
10.960	3.5332
10.937	3.5412
10.914	3.4971
10.891	3.4730
10.868	3.4769
10.846	3.4709
10.823	3.4535
10.800	3.4748
10.778	3.4823
10.755	3.4910
10.733	3.4932
10.711	3.4519
10.689	3.4460
10.667	3.4298
10.645	3.4085
10.623	3.3492
10.602	3.3335
10.580	3.3197
10.558	3.2896
10.537	3.2920
10.516	3.2075
10.494	3.0849
10.473	3.0182
10.452	2.9852
10.431	3.0340
10.410	3.0543
10.389	2.9988
10.368	2.9796
10.348	3.0122
10.327	2.9859
10.306	2.9177
10.286	2.8906
10.266	2.8868
10.245	2.9187
10.225	2.8739
10.205	2.6436
10.185	2.6529
10.165	2.7372
10.145	2.7637
10.125	2.7377
10.106	2.7220
10.086	2.7447
10.066	2.7753
10.047	2.7028
10.027	2.6444
10.008	2.6651
9.9887	2.6821
9.9695	2.6754
9.9504	2.6346
9.9313	2.6412
9.9123	2.6857
9.8934	2.6662
9.8746	2.5910
9.8558	2.5758
9.8371	2.6634
9.8185	2.6555
9.7999	2.6428
9.7814	2.6083
9.7630	2.5810
9.7447	2.5701
9.7264	2.5514
9.7082	2.5563
9.6900	2.5739
9.6719	2.5964
9.6539	2.5685
9.6360	2.5263
9.6181	2.5242
9.6003	2.5167
9.5825	2.4349
9.5649	2.3899
9.5472	2.4335
9.5297	2.4764
9.5122	2.4485
9.4948	2.3972
9.4774	2.4499
9.4601	2.4958
9.4429	2.4673
9.4257	2.4581
9.4086	2.4982
9.3916	2.4766
9.3746	2.4371
9.3577	2.4410
9.3408	2.4532
9.3240	2.3995
9.3073	2.4112
9.2906	2.4642
9.2740	2.3941
9.2574	2.3449
9.2409	2.3867
9.2245	2.3850
9.2081	2.4684
9.1918	2.5327
9.1755	2.4052
9.1593	2.3506
9.1431	2.2919
9.1270	2.2530
9.1110	2.2353
9.0950	2.2638
9.0791	2.3100
9.0632	2.2868
9.0474	2.2584
9.0316	2.2449
9.0159	2.1947
9.0003	2.1736
8.9847	2.2275
8.9691	2.2249
8.9536	2.1488
8.9382	2.0829
8.9228	2.0574
8.9075	2.1014
8.8922	2.0198
8.8770	1.8904
8.8618	1.8886
8.8467	1.8743
8.8316	1.7852
8.8166	1.7096
8.8016	1.6896
8.7867	1.6714
8.7718	1.6233
8.7570	1.6348
8.7422	1.6265
8.7275	1.5197
8.7129	1.5068
8.6982	1.4953
8.6837	1.4920
8.6692	1.4653
8.6547	1.4154
8.6403	1.3974
8.6259	1.4306
8.6116	1.4128
8.5973	1.3764
8.5830	1.3444
8.5688	1.2853
8.5547	1.2977
8.5406	1.3549
8.5266	1.3683
8.5126	1.3289
8.4986	1.3265
8.4847	1.3244
8.4708	1.2878
8.4570	1.2504
8.4432	1.2457
8.4295	1.2878
8.4158	1.2917
8.4022	1.2579
8.3886	1.2556
8.3750	1.2637
8.3615	1.2213
8.3481	1.1964
8.3347	1.1653
8.3213	1.1533
8.3079	1.1606
8.2946	1.1351
8.2814	1.0788
8.2682	1.0786
8.2550	1.0491
8.2419	1.0143
8.2288	0.9715
8.2158	0.9722
8.2028	0.9846
8.1898	0.9761
8.1769	0.9795
8.1640	0.9804
8.1512	1.0114
8.1384	1.0392
8.1256	1.0572
8.1129	1.0620
8.1002	1.0938
8.0876	1.1834
8.0750	1.2232
8.0624	1.2431
8.0499	1.3221
8.0374	1.4016
8.0250	1.4613
8.0126	1.5335
8.0002	1.6099
7.9879	1.7616
7.9756	1.8553
7.9634	1.9127
7.9512	2.0205
7.9390	2.1298
7.9268	2.2184
7.9147	2.3582
7.9027	2.4844
7.8906	2.5673
7.8786	2.7018
7.8667	2.8545
7.8548	2.9486
7.8429	3.0208
7.8310	3.1868
7.8192	3.3740
7.8075	3.5083
7.7957	3.6356
7.7840	3.7927
7.7723	3.9408
7.7607	4.0894
7.7491	4.2342
7.7375	4.3852
7.7260	4.5225
7.7145	4.6818
7.7031	4.8176
7.6916	4.9732
7.6802	5.1755
7.6689	5.3363
7.6575	5.4703
7.6462	5.6226
7.6350	5.7516
7.6238	5.8945
7.6126	6.0543
7.6014	6.2285
7.5903	6.3963
7.5792	6.5351
7.5681	6.6836
7.5571	6.8590
7.5461	7.0013
7.5351	7.1548
7.5242	7.3104
7.5133	7.4545
7.5024	7.6397
7.4916	7.8185
7.4807	7.9816
7.4700	8.1161
7.4592	8.2716
7.4485	8.4689
7.4378	8.6339
7.4272	8.7579
7.4165	8.9088
7.4059	9.0537
7.3954	9.1835
7.3848	9.3504
7.3743	9.5102
7.3639	9.6194
7.3534	9.7213
7.3430	9.8934
7.3326	10.048
7.3223	10.159
7.3119	10.284
7.3016	10.418
7.2914	10.535
7.2811	10.645
7.2709	10.732
7.2607	10.828
7.2506	10.944
7.2404	11.071
7.2303	11.190
7.2203	11.305
7.2102	11.398
7.2002	11.496
7.1902	11.610
7.1803	11.706
7.1703	11.802
7.1604	11.940
7.1506	12.055
7.1407	12.143
7.1309	12.260
7.1211	12.373
7.1113	12.510
7.1016	12.608
7.0919	12.689
7.0822	12.827
7.0725	12.944
7.0629	13.021
7.0533	13.151
7.0437	13.278
7.0341	13.377
7.0246	13.458
7.0151	13.576
7.0056	13.715
6.9962	13.803
6.9867	13.887
6.9773	14.013
6.9679	14.099
6.9586	14.204
6.9493	14.286
6.9400	14.338
6.9307	14.433
6.9214	14.561
6.9122	14.651
6.9030	14.715
6.8938	14.778
6.8847	14.832
6.8755	14.891
6.8664	14.941
6.8573	15.000
6.8483	15.064
6.8393	15.125
6.8302	15.186
6.8213	15.212
6.8123	15.223
6.8034	15.278
6.7944	15.327
6.7855	15.347
6.7767	15.347
6.7678	15.413
6.7590	15.477
6.7502	15.442
6.7414	15.423
6.7327	15.427
6.7239	15.419
6.7152	15.398
6.7065	15.416
6.6979	15.416
6.6892	15.382
6.6806	15.349
6.6720	15.342
6.6634	15.340
6.6549	15.366
6.6464	15.369
6.6378	15.340
6.6294	15.366
6.6209	15.413
6.6124	15.402
6.6040	15.410
6.5956	15.420
6.5872	15.389
6.5789	15.404
6.5705	15.441
6.5622	15.420
6.5539	15.408
6.5456	15.436
6.5374	15.425
6.5292	15.424
6.5209	15.430
6.5128	15.451
6.5046	15.458
6.4964	15.457
6.4883	15.513
6.4802	15.561
6.4721	15.578
6.4640	15.636
6.4560	15.670
6.4480	15.705
6.4399	15.756
6.4320	15.790
6.4240	15.860
6.4160	15.904
6.4081	15.932
6.4002	15.989
6.3923	16.086
6.3844	16.150
6.3766	16.215
6.3687	16.287
6.3609	16.356
6.3531	16.407
6.3454	16.451
6.3376	16.484
6.3299	16.578
6.3221	16.643
6.3144	16.657
6.3068	16.678
6.2991	16.747
6.2914	16.799
6.2838	16.832
6.2762	16.880
6.2686	16.937
6.2611	16.970
6.2535	17.007
6.2460	17.049
6.2385	17.097
6.2310	17.150
6.2235	17.183
6.2160	17.209
6.2086	17.283
6.2011	17.351
6.1937	17.368
6.1863	17.390
6.1790	17.416
6.1716	17.459
6.1643	17.480
6.1570	17.519
6.1496	17.555
6.1424	17.549
6.1351	17.574
6.1278	17.622
6.1206	17.565
6.1134	17.538
6.1062	17.539
6.0990	17.516
6.0918	17.494
6.0847	17.497
6.0776	17.481
6.0704	17.460
6.0633	17.450
6.0563	17.394
6.0492	17.358
6.0421	17.390
6.0351	17.390
6.0281	17.384
6.0211	17.419
6.0141	17.483
6.0071	17.533
6.0002	17.612
5.9932	17.711
5.9863	17.780
5.9794	17.861
5.9725	17.976
5.9657	18.081
5.9588	18.185
5.9520	18.308
5.9451	18.434
5.9383	18.508
5.9315	18.587
5.9247	18.701
5.9180	18.812
5.9112	18.913
5.9045	19.030
5.8978	19.118
5.8911	19.204
5.8844	19.263
5.8777	19.336
5.8711	19.462
5.8644	19.566
5.8578	19.646
5.8512	19.716
5.8446	19.816
5.8380	19.924
5.8314	20.009
5.8249	20.080
5.8184	20.180
5.8118	20.283
5.8053	20.374
5.7988	20.480
5.7923	20.580
5.7859	20.679
5.7794	20.760
5.7730	20.842
5.7666	20.912
5.7602	20.974
5.7538	21.045
5.7474	21.104
5.7410	21.162
5.7347	21.185
5.7283	21.187
5.7220	21.196
5.7157	21.189
5.7094	21.169
5.7031	21.180
5.6969	21.177
5.6906	21.167
5.6844	21.176
5.6782	21.167
5.6719	21.146
5.6657	21.143
5.6596	21.189
5.6534	21.224
5.6472	21.257
5.6411	21.295
5.6349	21.369
5.6288	21.450
5.6227	21.542
5.6166	21.621
5.6106	21.726
5.6045	21.847
5.5984	21.943
5.5924	22.028
5.5864	22.117
5.5804	22.211
5.5744	22.295
5.5684	22.368
5.5624	22.465
5.5564	22.535
5.5505	22.580
5.5445	22.627
5.5386	22.694
5.5327	22.743
5.5268	22.771
5.5209	22.794
5.5151	22.829
5.5092	22.875
5.5033	22.867
5.4975	22.896
5.4917	22.956
5.4859	22.983
5.4801	23.005
5.4743	23.032
5.4685	23.064
5.4628	23.092
5.4570	23.146
5.4513	23.185
5.4455	23.211
5.4398	23.276
5.4341	23.337
5.4284	23.410
5.4228	23.472
5.4171	23.487
5.4114	23.512
5.4058	23.611
5.4002	23.670
5.3945	23.688
5.3889	23.742
5.3833	23.799
5.3778	23.829
5.3722	23.865
5.3666	23.922
5.3611	23.981
5.3555	24.022
5.3500	24.068
5.3445	24.114
5.3390	24.174
5.3335	24.212
5.3280	24.220
5.3225	24.240
5.3171	24.285
5.3116	24.316
5.3062	24.355
5.3008	24.400
5.2954	24.434
5.2900	24.476
5.2846	24.514
5.2792	24.577
5.2738	24.644
5.2684	24.679
5.2631	24.758
5.2578	24.825
5.2524	24.913
5.2471	25.014
5.2418	25.094
5.2365	25.165
5.2312	25.256
5.2260	25.339
5.2207	25.410
5.2154	25.509
5.2102	25.632
5.2050	25.708
5.1998	25.763
5.1945	25.871
5.1893	25.972
5.1842	26.032
5.1790	26.120
5.1738	26.216
5.1686	26.298
5.1635	26.388
5.1584	26.465
5.1532	26.558
5.1481	26.658
5.1430	26.733
5.1379	26.810
5.1328	26.893
5.1277	26.984
5.1227	27.086
5.1176	27.163
5.1126	27.198
5.1075	27.291
5.1025	27.427
5.0975	27.478
5.0925	27.520
5.0875	27.632
5.0825	27.729
5.0775	27.799
5.0726	27.901
5.0676	28.016
5.0627	28.144
5.0577	28.274
5.0528	28.411
5.0479	28.561
5.0430	28.688
5.0380	28.815
5.0332	28.975
5.0283	29.150
5.0234	29.287
5.0185	29.428
5.0137	29.591
5.0088	29.721
5.0040	29.847
4.9992	29.981
4.9944	30.154
4.9896	30.304
4.9848	30.414
4.9800	30.561
4.9752	30.711
4.9704	30.876
4.9657	31.066
4.9609	31.205
4.9562	31.320
4.9514	31.447
4.9467	31.593
4.9420	31.725
4.9373	31.910
4.9326	32.082
4.9279	32.235
4.9232	32.415
4.9186	32.572
4.9139	32.741
4.9092	32.905
4.9046	33.054
4.9000	33.188
4.8953	33.350
4.8907	33.537
4.8861	33.689
4.8815	33.836
4.8769	33.964
4.8723	34.091
4.8678	34.232
4.8632	34.376
4.8586	34.516
4.8541	34.662
4.8495	34.809
4.8450	34.970
4.8405	35.128
4.8360	35.254
4.8315	35.370
4.8270	35.507
4.8225	35.632
4.8180	35.755
4.8135	35.857
4.8090	35.982
4.8046	36.129
4.8001	36.259
4.7957	36.368
4.7913	36.474
4.7868	36.603
4.7824	36.722
4.7780	36.823
4.7736	36.940
4.7692	37.078
4.7648	37.202
4.7605	37.331
4.7561	37.478
4.7517	37.614
4.7474	37.740
4.7431	37.865
4.7387	37.986
4.7344	38.131
4.7301	38.284
4.7258	38.397
4.7215	38.529
4.7172	38.693
4.7129	38.839
4.7086	38.970
4.7043	39.116
4.7000	39.257
4.6958	39.376
4.6915	39.515
4.6873	39.637
4.6831	39.769
4.6788	39.924
4.6746	40.058
4.6704	40.166
4.6662	40.294
4.6620	40.429
4.6578	40.574
4.6536	40.723
4.6495	40.848
4.6453	40.986
4.6411	41.137
4.6370	41.260
4.6328	41.383
4.6287	41.526
4.6246	41.661
4.6205	41.791
4.6163	41.915
4.6122	42.058
4.6081	42.175
4.6040	42.302
4.6000	42.436
4.5959	42.550
4.5918	42.699
4.5877	42.817
4.5837	42.927
4.5796	43.045
4.5756	43.145
4.5716	43.254
4.5675	43.401
4.5635	43.522
4.5595	43.619
4.5555	43.714
4.5515	43.799
4.5475	43.935
4.5435	44.091
4.5395	44.227
4.5356	44.293
4.5316	44.358
4.5276	44.463
4.5237	44.541
4.5197	44.642
4.5158	44.740
4.5119	44.828
4.5080	44.922
4.5040	44.980
4.5001	45.037
4.4962	45.141
4.4923	45.209
4.4884	45.260
4.4846	45.360
4.4807	45.451
4.4768	45.490
4.4730	45.536
4.4691	45.586
4.4652	45.642
4.4614	45.700
4.4576	45.772
4.4537	45.837
4.4499	45.886
4.4461	45.930
4.4423	45.991
4.4385	46.047
4.4347	46.078
4.4309	46.145
4.4271	46.220
4.4233	46.277
4.4196	46.339
4.4158	46.379
4.4120	46.427
4.4083	46.492
4.4045	46.525
4.4008	46.559
4.3971	46.647
4.3934	46.670
4.3896	46.696
4.3859	46.748
4.3822	46.789
4.3785	46.859
4.3748	46.935
4.3711	46.957
4.3674	46.974
4.3638	47.025
4.3601	47.088
4.3564	47.123
4.3528	47.148
4.3491	47.171
4.3455	47.224
4.3418	47.296
4.3382	47.353
4.3346	47.409
4.3310	47.416
4.3273	47.440
4.3237	47.486
4.3201	47.537
4.3165	47.589
4.3129	47.636
4.3094	47.668
4.3058	47.694
4.3022	47.712
4.2986	47.751
4.2951	47.794
4.2915	47.842
4.2880	47.873
4.2844	47.904
4.2809	47.932
4.2774	47.949
4.2738	47.981
4.2703	48.053
4.2668	48.092
4.2633	48.119
4.2598	48.162
4.2563	48.214
4.2528	48.228
4.2493	48.240
4.2458	48.250
4.2424	48.289
4.2389	48.333
4.2354	48.347
4.2320	48.375
4.2285	48.432
4.2251	48.455
4.2216	48.493
4.2182	48.541
4.2148	48.536
4.2113	48.544
4.2079	48.613
4.2045	48.640
4.2011	48.640
4.1977	48.663
4.1943	48.680
4.1909	48.706
4.1875	48.751
4.1841	48.798
4.1808	48.780
4.1774	48.756
4.1740	48.794
4.1707	48.848
4.1673	48.867
4.1640	48.901
4.1606	48.933
4.1573	48.928
4.1540	48.911
4.1506	48.934
4.1473	48.958
4.1440	48.991
4.1407	48.990
4.1374	49.025
4.1341	49.036
4.1308	49.036
4.1275	49.059
4.1242	49.103
4.1209	49.077
4.1177	49.090
4.1144	49.152
4.1111	49.159
4.1079	49.150
4.1046	49.148
4.1014	49.170
4.0981	49.180
4.0949	49.192
4.0917	49.179
4.0884	49.177
4.0852	49.180
4.0820	49.179
4.0788	49.196
4.0756	49.214
4.0724	49.240
4.0692	49.240
4.0660	49.254
4.0628	49.259
4.0596	49.251
4.0565	49.280
4.0533	49.283
4.0501	49.286
4.0470	49.278
4.0438	49.279
4.0406	49.288
4.0375	49.298
4.0344	49.324
4.0312	49.308
4.0281	49.298
4.0250	49.321
4.0218	49.316
4.0187	49.308
4.0156	49.338
4.0125	49.341
4.0094	49.328
4.0063	49.341
4.0032	49.346
4.0001	49.353
3.9970	49.402
3.9940	49.419
3.9909	49.378
3.9878	49.376
3.9847	49.397
3.9817	49.434
3.9786	49.441
3.9756	49.439
3.9725	49.424
3.9695	49.435
3.9665	49.443
3.9634	49.409
3.9604	49.436
3.9574	49.472
3.9544	49.459
3.9513	49.467
3.9483	49.487
3.9453	49.463
3.9423	49.462
3.9393	49.451
3.9363	49.455
3.9333	49.473
3.9304	49.469
3.9274	49.449
3.9244	49.443
3.9214	49.459
3.9185	49.474
3.9155	49.500
3.9126	49.491
3.9096	49.508
3.9067	49.528
3.9037	49.513
3.9008	49.473
3.8979	49.466
3.8949	49.475
3.8920	49.489
3.8891	49.501
3.8862	49.488
3.8833	49.470
3.8804	49.465
3.8775	49.475
3.8746	49.481
3.8717	49.474
3.8688	49.464
3.8659	49.445
3.8630	49.458
3.8601	49.475
3.8573	49.485
3.8544	49.476
3.8515	49.470
3.8487	49.459
3.8458	49.456
3.8430	49.476
3.8401	49.465
3.8373	49.443
3.8344	49.452
3.8316	49.446
3.8288	49.459
3.8259	49.460
3.8231	49.427
3.8203	49.411
3.8175	49.418
3.8147	49.417
3.8119	49.397
3.8091	49.397
3.8063	49.398
3.8035	49.418
3.8007	49.429
3.7979	49.439
3.7951	49.427
3.7924	49.373
3.7896	49.377
3.7868	49.407
3.7841	49.402
3.7813	49.355
3.7785	49.331
3.7758	49.331
3.7730	49.356
3.7703	49.320
3.7676	49.359
3.7648	49.387
3.7621	49.312
3.7594	49.286
3.7566	49.305
3.7539	49.304
3.7512	49.285
3.7485	49.255
3.7458	49.271
3.7431	49.281
3.7404	49.286
3.7377	49.284
3.7350	49.257
3.7323	49.244
3.7296	49.227
3.7269	49.197
3.7242	49.210
3.7216	49.221
3.7189	49.188
3.7162	49.213
3.7136	49.237
3.7109	49.197
3.7083	49.149
3.7056	49.146
3.7030	49.169
3.7003	49.175
3.6977	49.134
3.6950	49.109
3.6924	49.097
3.6898	49.077
3.6872	49.056
3.6845	49.069
3.6819	49.075
3.6793	49.094
3.6767	49.081
3.6741	49.054
3.6715	49.057
3.6689	49.022
3.6663	49.007
3.6637	49.008
3.6611	48.977
3.6585	48.964
3.6560	48.947
3.6534	48.935
3.6508	48.955
3.6482	48.952
3.6457	48.948
3.6431	48.953
3.6406	48.888
3.6380	48.844
3.6355	48.833
3.6329	48.871
3.6304	48.868
3.6278	48.815
3.6253	48.805
3.6227	48.801
3.6202	48.782
3.6177	48.774
3.6152	48.752
3.6127	48.751
3.6101	48.752
3.6076	48.759
3.6051	48.750
3.6026	48.711
3.6001	48.664
3.5976	48.679
3.5951	48.642
3.5926	48.584
3.5901	48.589
3.5876	48.583
3.5852	48.594
3.5827	48.588
3.5802	48.556
3.5777	48.543
3.5753	48.529
3.5728	48.546
3.5704	48.500
3.5679	48.475
3.5654	48.489
3.5630	48.473
3.5605	48.454
3.5581	48.425
3.5557	48.420
3.5532	48.406
3.5508	48.368
3.5484	48.363
3.5459	48.378
3.5435	48.324
3.5411	48.292
3.5387	48.293
3.5363	48.242
3.5338	48.223
3.5314	48.246
3.5290	48.219
3.5266	48.201
3.5242	48.170
3.5218	48.128
3.5195	48.121
3.5171	48.090
3.5147	48.012
3.5123	47.986
3.5099	47.988
3.5075	47.938
3.5052	47.900
3.5028	47.834
3.5004	47.779
3.4981	47.762
3.4957	47.746
3.4934	47.766
3.4910	47.759
3.4887	47.765
3.4863	47.793
3.4840	47.772
3.4816	47.747
3.4793	47.742
3.4770	47.727
3.4746	47.741
3.4723	47.753
3.4700	47.759
3.4677	47.713
3.4653	47.660
3.4630	47.699
3.4607	47.719
3.4584	47.675
3.4561	47.627
3.4538	47.574
3.4515	47.546
3.4492	47.571
3.4469	47.577
3.4446	47.502
3.4423	47.437
3.4400	47.412
3.4378	47.370
3.4355	47.342
3.4332	47.326
3.4309	47.281
3.4287	47.254
3.4264	47.224
3.4241	47.191
3.4219	47.105
3.4196	46.987
3.4174	46.914
3.4151	46.901
3.4129	46.889
3.4106	46.910
3.4084	46.933
3.4061	46.965
3.4039	46.998
3.4017	46.993
3.3994	47.000
3.3972	46.973
3.3950	46.980
3.3928	47.022
3.3906	47.006
3.3883	46.987
3.3861	46.961
3.3839	46.883
3.3817	46.861
3.3795	46.868
3.3773	46.852
3.3751	46.815
3.3729	46.800
3.3707	46.806
3.3685	46.832
3.3663	46.855
3.3641	46.833
3.3620	46.834
3.3598	46.804
3.3576	46.802
3.3554	46.862
3.3533	46.847
3.3511	46.817
3.3489	46.799
3.3468	46.803
3.3446	46.779
3.3425	46.787
3.3403	46.810
3.3382	46.797
3.3360	46.797
3.3339	46.769
3.3317	46.738
3.3296	46.719
3.3274	46.721
3.3253	46.728
3.3232	46.729
3.3210	46.672
3.3189	46.625
3.3168	46.612
3.3147	46.614
3.3126	46.601
3.3104	46.597
3.3083	46.545
3.3062	46.492
3.3041	46.514
3.3020	46.503
3.2999	46.453
3.2978	46.461
3.2957	46.458
3.2936	46.393
3.2915	46.351
3.2894	46.337
3.2874	46.303
3.2853	46.309
3.2832	46.328
3.2811	46.304
3.2790	46.275
3.2770	46.266
3.2749	46.230
3.2728	46.187
3.2708	46.154
3.2687	46.103
3.2666	46.079
3.2646	46.067
3.2625	46.033
3.2605	46.044
3.2584	45.994
3.2564	45.944
3.2543	45.938
3.2523	45.943
3.2503	45.971
3.2482	45.925
3.2462	45.884
3.2442	45.891
3.2421	45.852
3.2401	45.826
3.2381	45.827
3.2361	45.811
3.2340	45.769
3.2320	45.723
3.2300	45.677
3.2280	45.634
3.2260	45.629
3.2240	45.602
3.2220	45.567
3.2200	45.554
3.2180	45.498
3.2160	45.470
3.2140	45.484
3.2120	45.437
3.2100	45.387
3.2080	45.378
3.2060	45.400
3.2040	45.386
3.2021	45.355
3.2001	45.305
3.1981	45.284
3.1961	45.265
3.1942	45.212
3.1922	45.170
3.1902	45.174
3.1883	45.163
3.1863	45.134
3.1844	45.115
3.1824	45.137
3.1805	45.135
3.1785	45.118
3.1766	45.131
3.1746	45.099
3.1727	44.976
3.1707	44.940
3.1688	44.990
3.1669	44.957
3.1649	44.900
3.1630	44.901
3.1611	44.914
3.1591	44.886
3.1572	44.848
3.1553	44.767
3.1534	44.719
3.1515	44.741
3.1495	44.740
3.1476	44.754
3.1457	44.714
3.1438	44.637
3.1419	44.608
3.1400	44.596
3.1381	44.601
3.1362	44.570
3.1343	44.513
3.1324	44.535
3.1305	44.535
3.1286	44.463
3.1268	44.429
3.1249	44.462
3.1230	44.475
3.1211	44.417
3.1192	44.428
3.1174	44.413
3.1155	44.400
3.1136	44.344
3.1117	44.294
3.1099	44.276
3.1080	44.240
3.1061	44.239
3.1043	44.273
3.1024	44.223
3.1006	44.183
3.0987	44.167
3.0969	44.089
3.0950	44.045
3.0932	44.038
3.0913	44.064
3.0895	44.077
3.0876	44.061
3.0858	44.026
3.0840	44.004
3.0821	44.006
3.0803	43.982
3.0785	43.932
3.0766	43.939
3.0748	43.922
3.0730	43.866
3.0712	43.833
3.0694	43.850
3.0675	43.839
3.0657	43.863
3.0639	43.854
3.0621	43.796
3.0603	43.720
3.0585	43.738
3.0567	43.703
3.0549	43.643
3.0531	43.607
3.0513	43.631
3.0495	43.651
3.0477	43.602
3.0459	43.585
3.0441	43.632
3.0423	43.608
3.0406	43.518
3.0388	43.462
3.0370	43.495
3.0352	43.540
3.0334	43.523
3.0317	43.513
3.0299	43.492
3.0281	43.391
3.0264	43.323
3.0246	43.373
3.0228	43.400
3.0211	43.358
3.0193	43.281
3.0176	43.254
3.0158	43.246
3.0140	43.237
3.0123	43.254
3.0105	43.232
3.0088	43.137
3.0070	43.109
3.0053	43.148
3.0036	43.158
3.0018	43.103
3.0001	43.031
2.9984	43.025
2.9966	43.008
2.9949	42.992
2.9932	42.992
2.9914	43.051
2.9897	43.029
2.9880	42.929
2.9863	42.901
2.9845	42.880
2.9828	42.834
2.9811	42.814
2.9794	42.837
2.9777	42.792
2.9760	42.744
2.9743	42.746
2.9726	42.751
2.9709	42.752
2.9692	42.751
2.9675	42.701
2.9658	42.688
2.9641	42.628
2.9624	42.590
2.9607	42.588
2.9590	42.628
2.9573	42.604
2.9556	42.575
2.9539	42.572
2.9523	42.550
2.9506	42.477
2.9489	42.463
2.9472	42.528
2.9455	42.496
2.9439	42.393
2.9422	42.400
2.9405	42.444
2.9389	42.488
2.9372	42.439
2.9355	42.396
2.9339	42.347
2.9322	42.406
2.9306	42.411
2.9289	42.367
2.9272	42.361
2.9256	42.384
2.9239	42.334
2.9223	42.323
2.9207	42.323
2.9190	42.290
2.9174	42.277
2.9157	42.296
2.9141	42.261
2.9124	42.243
2.9108	42.248
2.9092	42.215
2.9075	42.160
2.9059	42.200
2.9043	42.264
2.9027	42.246
2.9010	42.189
2.8994	42.179
2.8978	42.153
2.8962	42.137
2.8946	42.117
2.8929	42.090
2.8913	42.097
2.8897	42.107
2.8881	42.055
2.8865	42.069
2.8849	42.121
2.8833	42.063
2.8817	42.047
2.8801	42.070
2.8785	42.050
2.8769	42.043
2.8753	42.043
2.8737	41.980
2.8721	42.009
2.8705	42.080
2.8689	42.013
2.8673	41.945
2.8658	41.953
2.8642	41.962
2.8626	41.980
2.8610	41.951
2.8594	41.893
2.8579	41.926
2.8563	41.921
2.8547	41.935
2.8531	41.938
2.8516	41.868
2.8500	41.875
2.8484	41.864
2.8469	41.818
2.8453	41.874
2.8437	41.884
2.8422	41.839
2.8406	41.809
2.8391	41.802
2.8375	41.817
2.8360	41.861
2.8344	41.901
2.8329	41.902
2.8313	41.885
2.8298	41.838
2.8282	41.811
2.8267	41.899
2.8252	41.912
2.8236	41.844
2.8221	41.833
2.8205	41.930
2.8190	41.920
2.8175	41.864
2.8159	41.929
2.8144	41.893
2.8129	41.839
2.8114	41.902
2.8098	42.021
2.8083	42.043
2.8068	41.956
2.8053	41.911
2.8038	41.938
2.8022	42.008
2.8007	42.069
2.7992	42.070
2.7977	42.099
2.7962	42.112
2.7947	42.143
2.7932	42.222
2.7917	42.249
2.7902	42.284
2.7887	42.312
2.7872	42.280
2.7857	42.366
2.7842	42.468
2.7827	42.517
2.7812	42.504
2.7797	42.502
2.7782	42.551
2.7767	42.630
2.7752	42.697
2.7738	42.707
2.7723	42.741
2.7708	42.796
2.7693	42.902
2.7678	42.966
2.7664	42.930
2.7649	43.021
2.7634	43.136
2.7619	43.174
2.7605	43.239
2.7590	43.280
2.7575	43.293
2.7561	43.311
2.7546	43.403
2.7531	43.538
2.7517	43.629
2.7502	43.670
2.7488	43.685
2.7473	43.712
2.7458	43.747
2.7444	43.865
2.7429	43.998
2.7415	44.032
2.7400	44.044
2.7386	44.144
2.7371	44.209
2.7357	44.267
2.7343	44.349
2.7328	44.390
2.7314	44.388
2.7299	44.440
2.7285	44.519
2.7271	44.593
2.7256	44.634
2.7242	44.695
2.7228	44.716
2.7213	44.696
2.7199	44.688
2.7185	44.743
2.7171	44.778
2.7156	44.794
2.7142	44.818
2.7128	44.866
2.7114	44.874
2.7100	44.923
2.7085	45.001
2.7071	44.980
2.7057	44.948
2.7043	44.975
2.7029	45.021
2.7015	44.999
2.7001	44.975
2.6987	45.007
2.6973	45.000
2.6959	45.031
2.6945	45.075
2.6931	45.008
2.6917	44.990
2.6903	44.988
2.6889	44.982
2.6875	45.027
2.6861	45.006
2.6847	44.939
2.6833	44.929
2.6819	44.951
2.6805	44.882
2.6791	44.860
2.6778	44.869
2.6764	44.861
2.6750	44.870
2.6736	44.898
2.6722	44.934
2.6709	44.891
2.6695	44.879
2.6681	44.874
2.6667	44.891
2.6654	44.847
2.6640	44.772
2.6626	44.826
2.6613	44.843
2.6599	44.808
2.6585	44.766
2.6572	44.785
2.6558	44.735
2.6545	44.743
2.6531	44.738
2.6517	44.691
2.6504	44.672
2.6490	44.651
2.6477	44.622
2.6463	44.620
2.6450	44.580
2.6436	44.524
2.6423	44.488
2.6409	44.477
2.6396	44.466
2.6382	44.487
2.6369	44.442
2.6356	44.405
2.6342	44.385
2.6329	44.389
2.6315	44.383
2.6302	44.285
2.6289	44.281
2.6275	44.340
2.6262	44.344
2.6249	44.292
2.6236	44.232
2.6222	44.214
2.6209	44.159
2.6196	44.113
2.6183	44.115
2.6169	44.042
2.6156	44.024
2.6143	44.091
2.6130	44.033
2.6117	43.943
2.6103	43.932
2.6090	43.917
2.6077	43.853
2.6064	43.807
2.6051	43.783
2.6038	43.838
2.6025	43.860
2.6012	43.786
2.5999	43.770
2.5986	43.760
2.5973	43.733
2.5960	43.663
2.5947	43.570
2.5934	43.534
2.5921	43.542
2.5908	43.547
2.5895	43.524
2.5882	43.516
2.5869	43.514
2.5856	43.458
2.5843	43.405
2.5830	43.393
2.5817	43.361
2.5805	43.306
2.5792	43.312
2.5779	43.309
2.5766	43.293
2.5753	43.250
2.5741	43.199
2.5728	43.161
2.5715	43.179
2.5702	43.127
2.5690	43.079
2.5677	43.092
2.5664	43.100
2.5651	43.044
2.5639	42.999
2.5626	42.923
2.5613	42.867
2.5601	42.866
2.5588	42.881
2.5575	42.906
2.5563	42.856
2.5550	42.795
2.5538	42.754
2.5525	42.719
2.5513	42.686
2.5500	42.631
2.5487	42.621
2.5475	42.597
2.5462	42.539
2.5450	42.504
2.5437	42.461
2.5425	42.396
2.5413	42.430
2.5400	42.438
2.5388	42.402
2.5375	42.337
2.5363	42.330
2.5350	42.366
2.5338	42.300
2.5326	42.242
2.5313	42.253
2.5301	42.215
2.5289	42.195
2.5276	42.168
2.5264	42.121
2.5252	42.076
2.5239	42.088
2.5227	42.066
2.5215	42.017
2.5202	42.009
2.5190	42.028
2.5178	41.996
2.5166	41.935
2.5154	41.875
2.5141	41.891
2.5129	41.855
2.5117	41.794
2.5105	41.750
2.5093	41.702
2.5081	41.697
2.5068	41.685
2.5056	41.662
2.5044	41.639
2.5032	41.577
2.5020	41.577
2.5008	41.592
2.4996	41.534
2.4984	41.473
2.4972	41.475
2.4960	41.503
2.4948	41.504
2.4936	41.483
2.4924	41.416
2.4912	41.352
2.4900	41.342
2.4888	41.341
2.4876	41.265
2.4864	41.273
2.4852	41.256
2.4840	41.174
2.4828	41.176
2.4816	41.201
2.4805	41.140
2.4793	41.030
2.4781	41.036
2.4769	41.090
2.4757	41.069
2.4745	41.035
2.4734	40.996
2.4722	40.947
2.4710	40.962
2.4698	40.936
2.4686	40.867
2.4675	40.802
2.4663	40.758
2.4651	40.777
2.4640	40.802
2.4628	40.783
2.4616	40.709
2.4604	40.705
2.4593	40.711
2.4581	40.721
2.4569	40.701
2.4558	40.617
2.4546	40.555
2.4535	40.519
2.4523	40.492
2.4511	40.468
2.4500	40.423
2.4488	40.382
2.4477	40.342
2.4465	40.382
2.4454	40.394
2.4442	40.329
2.4431	40.291
2.4419	40.301
2.4408	40.289
2.4396	40.237
2.4385	40.221
2.4373	40.180
2.4362	40.180
2.4350	40.164
2.4339	40.138
2.4327	40.097
2.4316	40.063
2.4305	40.024
2.4293	39.999
2.4282	39.973
2.4270	39.924
2.4259	39.944
2.4248	39.950
2.4236	39.929
2.4225	39.898
2.4214	39.876
2.4202	39.878
2.4191	39.882
2.4180	39.848
2.4169	39.777
2.4157	39.783
2.4146	39.756
2.4135	39.777
2.4124	39.755
2.4112	39.750
2.4101	39.742
2.4090	39.674
2.4079	39.652
2.4068	39.673
2.4056	39.645
2.4045	39.525
2.4034	39.489
2.4023	39.512
2.4012	39.491
2.4001	39.495
2.3990	39.563
2.3979	39.536
2.3967	39.497
2.3956	39.509
2.3945	39.483
2.3934	39.411
2.3923	39.366
2.3912	39.360
2.3901	39.403
2.3890	39.367
2.3879	39.312
2.3868	39.254
2.3857	39.264
2.3846	39.214
2.3835	39.205
2.3824	39.212
2.3813	39.129
2.3802	39.118
2.3791	39.160
2.3781	39.135
2.3770	39.054
2.3759	39.066
2.3748	39.116
2.3737	39.079
2.3726	39.085
2.3715	39.092
2.3704	39.076
2.3694	39.073
2.3683	39.006
2.3672	38.968
2.3661	38.963
2.3650	39.043
2.3640	39.022
2.3629	38.915
2.3618	38.935
2.3607	38.967
2.3597	38.898
2.3586	38.826
2.3575	38.767
2.3564	38.782
2.3554	38.805
2.3543	38.800
2.3532	38.780
2.3522	38.780
2.3511	38.777
2.3500	38.716
2.3490	38.709
2.3479	38.743
2.3468	38.810
2.3458	38.821
2.3447	38.741
2.3436	38.645
2.3426	38.692
2.3415	38.743
2.3405	38.730
2.3394	38.644
2.3384	38.578
2.3373	38.616
2.3363	38.655
2.3352	38.656
2.3342	38.586
2.3331	38.569
2.3321	38.585
2.3310	38.489
2.3300	38.481
2.3289	38.495
2.3279	38.546
2.3268	38.580
2.3258	38.528
2.3247	38.503
2.3237	38.466
2.3226	38.466
2.3216	38.444
2.3206	38.375
2.3195	38.439
2.3185	38.426
2.3175	38.387
2.3164	38.409
2.3154	38.385
2.3144	38.330
2.3133	38.276
2.3123	38.352
2.3113	38.394
2.3102	38.286
2.3092	38.254
2.3082	38.306
2.3071	38.402
2.3061	38.379
2.3051	38.275
2.3041	38.215
2.3030	38.213
2.3020	38.252
2.3010	38.192
2.3000	38.144
2.2990	38.163
2.2979	38.202
2.2969	38.168
2.2959	38.111
2.2949	38.210
2.2939	38.216
2.2929	38.114
2.2918	38.123
2.2908	38.159
2.2898	38.095
2.2888	38.134
2.2878	38.182
2.2868	38.125
2.2858	38.019
2.2848	38.015
2.2838	38.016
2.2828	38.017
2.2818	38.073
2.2808	38.106
2.2798	38.088
2.2787	38.045
2.2777	37.952
2.2767	37.967
2.2757	37.998
2.2747	37.986
2.2738	38.035
2.2728	38.026
2.2718	37.960
2.2708	37.952
2.2698	37.915
2.2688	37.900
2.2678	37.939
2.2668	37.958
2.2658	37.990
2.2648	37.989
2.2638	37.925
2.2628	37.908
2.2618	37.869
2.2609	37.838
2.2599	37.866
2.2589	37.910
2.2579	37.849
2.2569	37.803
2.2559	37.782
2.2550	37.813
2.2540	37.876
2.2530	37.870
2.2520	37.835
2.2510	37.819
2.2501	37.839
2.2491	37.792
2.2481	37.808
2.2471	37.906
2.2462	37.859
2.2452	37.752
2.2442	37.782
2.2433	37.760
2.2423	37.785
2.2413	37.792
2.2403	37.749
2.2394	37.771
2.2384	37.770
2.2374	37.746
2.2365	37.765
2.2355	37.794
2.2345	37.776
2.2336	37.806
2.2326	37.772
2.2317	37.675
2.2307	37.657
2.2297	37.728
2.2288	37.774
2.2278	37.742
2.2269	37.688
2.2259	37.689
2.2250	37.671
2.2240	37.704
2.2231	37.702
2.2221	37.704
2.2211	37.675
2.2202	37.687
2.2192	37.650
2.2183	37.650
2.2173	37.662
2.2164	37.671
2.2155	37.693
2.2145	37.653
2.2136	37.678
2.2126	37.696
2.2117	37.703
2.2107	37.691
2.2098	37.590
2.2088	37.626
2.2079	37.641
2.2070	37.634
2.2060	37.661
2.2051	37.682
2.2041	37.641
2.2032	37.714
2.2023	37.754
2.2013	37.675
2.2004	37.600
2.1995	37.623
2.1985	37.699
2.1976	37.725
2.1967	37.641
2.1957	37.614
2.1948	37.648
2.1939	37.644
2.1930	37.610
2.1920	37.708
2.1911	37.645
2.1902	37.548
2.1893	37.607
2.1883	37.658
2.1874	37.646
2.1865	37.674
2.1856	37.674
2.1846	37.705
2.1837	37.660
2.1828	37.578
2.1819	37.599
2.1810	37.648
2.1800	37.728
2.1791	37.704
2.1782	37.639
2.1773	37.681
2.1764	37.695
2.1755	37.604
2.1746	37.526
2.1736	37.590
2.1727	37.579
2.1718	37.575
2.1709	37.626
2.1700	37.578
2.1691	37.606
2.1682	37.688
2.1673	37.667
2.1664	37.595
2.1655	37.559
2.1646	37.573
2.1637	37.590
2.1628	37.561
2.1619	37.585
2.1610	37.575
2.1601	37.553
2.1592	37.609
2.1583	37.667
2.1574	37.673
2.1565	37.660
2.1556	37.669
2.1547	37.632
2.1538	37.555
2.1529	37.554
2.1520	37.556
2.1511	37.543
2.1502	37.570
2.1493	37.630
2.1484	37.596
2.1475	37.582
2.1466	37.642
2.1458	37.664
2.1449	37.600
2.1440	37.568
2.1431	37.572
2.1422	37.571
2.1413	37.625
2.1404	37.601
2.1396	37.596
2.1387	37.610
2.1378	37.616
2.1369	37.631
2.1360	37.599
2.1352	37.540
2.1343	37.579
2.1334	37.611
2.1325	37.635
2.1316	37.691
2.1308	37.693
2.1299	37.685
2.1290	37.619
2.1281	37.661
2.1273	37.628
2.1264	37.515
2.1255	37.488
2.1247	37.551
2.1238	37.595
2.1229	37.666
2.1220	37.638
2.1212	37.546
2.1203	37.562
2.1194	37.542
2.1186	37.600
2.1177	37.678
2.1168	37.634
2.1160	37.583
2.1151	37.599
2.1143	37.625
2.1134	37.627
2.1125	37.641
2.1117	37.582
2.1108	37.595
2.1100	37.548
2.1091	37.599
2.1082	37.629
2.1074	37.607
2.1065	37.623
2.1057	37.632
2.1048	37.672
2.1040	37.727
2.1031	37.677
2.1023	37.635
2.1014	37.605
2.1005	37.521
2.0997	37.572
2.0988	37.618
2.0980	37.659
2.0971	37.680
2.0963	37.689
2.0955	37.682
2.0946	37.664
2.0938	37.667
2.0929	37.705
2.0921	37.754
2.0912	37.720
2.0904	37.634
2.0895	37.634
2.0887	37.603
2.0879	37.613
2.0870	37.699
2.0862	37.708
2.0853	37.682
2.0845	37.647
2.0837	37.665
2.0828	37.644
2.0820	37.640
2.0812	37.657
2.0803	37.648
2.0795	37.645
2.0760	37.645
2.0720	37.916
2.0680	37.951
2.0640	37.858
2.0600	37.581
2.0560	37.817
2.0520	37.887
2.0480	37.439
2.0440	37.382
2.0400	37.502
2.0360	37.573
2.0320	37.242
2.0280	37.298
2.0240	37.150
2.0200	36.984
2.0160	37.075
2.0120	36.946
2.0080	36.984
2.0040	36.874
2.0000	36.929
1.9960	36.929
1.9920	36.929
1.9880	36.965
1.9840	36.684
1.9800	36.477
1.9760	36.458
1.9720	36.457
1.9680	36.584
1.9640	36.557
1.9600	36.557
1.9560	36.457
1.9520	36.566
1.9480	36.465
1.9440	36.510
1.9400	36.490
1.9360	36.418
1.9320	36.269
1.9280	36.101
1.9240	36.177
1.9200	36.122
1.9160	36.344
1.9120	36.344
1.9080	36.446
1.9040	36.408
1.9000	36.475
1.8960	36.423
1.8920	36.221
1.8880	36.283
1.8840	36.152
1.8800	36.194
1.8760	36.379
1.8720	36.457
1.8680	36.293
1.8640	36.076
1.8600	35.925
1.8560	35.879
1.8520	35.927
1.8480	36.194
1.8440	36.230
1.8400	36.131
1.8360	36.131
1.8320	36.178
1.8280	36.382
1.8240	36.099
1.8200	35.933
1.8160	36.032
1.8120	36.120
1.8080	35.955
1.8040	36.006
1.8000	35.830
1.7960	35.985
1.7920	35.907
1.7880	35.918
1.7840	35.944
1.7800	35.815
1.7760	35.741
1.7720	35.590
1.7680	35.502
1.7640	35.516
1.7600	35.541
1.7560	35.604
1.7520	35.630
1.7480	35.744
1.7440	35.667
1.7400	35.896
1.7360	36.089
1.7320	36.204
1.7280	36.204
1.7240	36.204
1.7200	36.204
1.7160	35.974
1.7120	36.073
1.7080	35.917
1.7040	35.855
1.7000	35.741
1.6960	35.741
1.6920	35.716
1.6880	35.855
1.6840	35.716
1.6800	35.514
1.6760	35.565
1.6720	35.590
1.6680	35.590
1.6640	35.565
1.6600	35.540
1.6560	35.348
1.6520	35.563
1.6480	35.563
1.6440	35.589
1.6400	35.424
1.6360	35.288
1.6320	35.311
1.6280	35.298
1.6240	35.376
1.6200	35.298
1.6160	35.248
1.6120	35.021
1.6080	35.248
1.6040	35.272
1.6000	35.450
1.5960	35.374
1.5920	35.171
1.5880	35.046
1.5840	34.946
1.5800	34.897
1.5760	35.021
1.5720	34.858
1.5680	34.770
1.5640	34.689
1.5600	34.820
1.5560	34.721
1.5520	34.528
1.5480	34.626
1.5440	34.626
1.5400	34.513
1.5360	34.264
1.5320	34.176
1.5280	34.184
1.5240	34.184
1.5200	34.072
1.5160	33.872
1.5120	33.801
1.5080	33.801
1.5040	33.631
1.5000	33.555
1.4960	33.098
1.4920	33.075
1.4880	33.116
1.4840	33.052
1.4800	32.998
1.4760	32.987
1.4720	32.987
1.4680	32.711
1.4640	32.689
1.4600	32.556
1.4560	32.624
1.4520	32.672
1.4480	32.607
1.4440	32.432
1.4400	32.323
1.4360	32.391
1.4320	32.302
1.4280	31.978
1.4240	31.867
1.4200	31.756
1.4160	31.623
1.4120	31.532
1.4080	31.486
1.4040	31.109
1.4000	31.060
1.3960	31.085
1.3920	31.020
1.3880	30.906
1.3840	30.860
1.3800	30.766
1.3760	30.612
1.3720	30.338
1.3680	30.245
1.3640	30.275
1.3600	30.043
1.3560	30.043
1.3520	30.001
1.3480	29.865
1.3440	29.805
1.3400	29.543
1.3360	29.341
1.3320	29.128
1.3280	29.021
1.3240	28.886
1.3200	28.914
1.3160	28.991
1.3120	28.768
1.3080	28.738
1.3040	28.581
1.3000	28.600
1.2960	28.530
1.2920	28.411
1.2880	28.379
1.2840	28.207
1.2800	28.103
1.2760	27.854
1.2720	27.858
1.2680	27.675
1.2640	27.279
1.2600	27.439
1.2560	27.457
1.2520	27.414
1.2480	27.308
1.2440	27.255
1.2400	27.237
1.2360	27.157
1.2320	26.942
1.2280	26.915
1.2240	26.789
1.2200	26.762
1.2160	26.725
1.2120	26.532
1.2080	26.269
1.2040	26.057
1.2000	26.040
1.1960	25.902
1.1920	25.807
1.1880	25.774
1.1840	25.654
1.1800	25.395
1.1760	25.533
1.1720	25.549
1.1680	25.307
1.1640	25.179
1.1600	25.034
1.1560	25.009
1.1520	25.040
1.1480	24.863
1.1440	24.800
1.1400	24.909
1.1360	24.914
1.1320	24.731
1.1280	24.567
1.1240	24.267
1.1200	24.120
1.1160	24.075
1.1120	23.971
1.1080	23.730
1.1040	23.656
1.1000	23.596
1.0960	23.464
1.0920	23.390
1.0880	23.095
1.0840	23.035
1.0800	22.956
1.0760	22.853
1.0720	22.826
1.0680	22.676
1.0640	22.493
1.0600	22.343
1.0560	22.255
1.0520	22.383
1.0480	22.281
1.0440	22.078
1.0400	22.189
1.0360	22.065
1.0320	22.118
1.0280	22.068
1.0240	22.121
1.0200	22.029
1.0160	21.953
1.0120	21.927
1.0080	22.029
1.0040	22.121
1.0000	22.055
0.9960	22.055
0.9920	22.277
0.9880	22.242
0.9840	22.295
0.9800	22.396
0.9760	22.550
0.9720	22.496
0.9680	22.536
0.9640	22.639
0.9600	22.598
0.9560	22.918
0.9520	22.904
0.9480	22.993
0.9440	22.993
0.9400	23.117
0.9360	23.411
0.9320	23.456
0.9280	23.487
0.9240	23.516
0.9200	23.692
0.9160	23.956
0.9120	23.956
0.9080	24.197
0.9040	24.059
0.9000	24.210
0.8960	24.255
0.8920	24.520
0.8880	24.566
0.8840	24.551
0.8800	24.795
0.8760	24.795
0.8720	24.811
0.8680	24.811
0.8640	24.843
0.8600	25.027
0.8560	25.011
0.8520	24.922
0.8480	25.027
0.8440	24.995
0.8400	24.947
0.8360	25.068
0.8320	25.181
0.8280	25.197
0.8240	25.254
0.8200	25.326
0.8160	25.262
0.8120	25.286
0.8080	25.429
0.8040	25.365
0.8000	25.443
0.7990	25.443
0.7980	25.443
0.7970	25.471
0.7960	25.543
0.7950	25.635
0.7940	25.443
0.7930	25.480
0.7920	25.479
0.7910	25.424
0.7900	25.388
0.7890	25.443
0.7880	25.480
0.7870	25.388
0.7860	25.498
0.7850	25.535
0.7840	25.498
0.7830	25.781
0.7820	25.785
0.7810	25.645
0.7800	25.645
0.7790	25.512
0.7780	25.480
0.7770	25.457
0.7760	25.270
0.7750	25.288
0.7740	25.439
0.7730	25.457
0.7720	25.549
0.7710	25.626
0.7700	25.700
0.7690	25.545
0.7680	25.564
0.7670	25.604
0.7660	25.641
0.7650	25.567
0.7640	25.769
0.7630	25.545
0.7620	25.604
0.7610	25.586
0.7600	25.490
0.7590	25.508
0.7580	25.749
0.7570	25.582
0.7560	25.317
0.7550	25.298
0.7540	25.284
0.7530	25.545
0.7520	25.582
0.7510	25.545
0.7500	25.471
0.7490	25.788
0.7480	25.472
0.7470	25.358
0.7460	25.490
0.7450	25.468
0.7440	25.486
0.7430	25.575
0.7420	25.317
0.7410	25.653
0.7400	25.408
0.7390	25.557
0.7380	25.298
0.7370	25.408
0.7360	25.438
0.7350	25.390
0.7340	25.197
0.7330	25.280
0.7320	25.280
0.7310	25.482
0.7300	25.538
0.7290	25.161
0.7280	25.575
0.7270	25.725
0.7260	25.438
0.7250	25.215
0.7240	25.575
0.7230	25.438
0.7220	25.401
0.7210	25.305
0.7200	25.153
0.7190	25.194
0.7180	25.401
0.7170	25.083
0.7160	25.099
0.7150	25.268
0.7140	24.987
0.7130	25.023
0.7120	25.250
0.7110	25.245
0.7100	24.998
0.7090	24.716
0.7080	24.698
0.7070	25.187
0.7060	25.190
0.7050	24.956
0.7040	24.919
0.7030	25.204
0.7020	25.123
0.7010	25.198
0.7000	25.373
0.6990	24.483
0.6980	25.101
0.6970	25.087
0.6960	25.130
0.6950	25.319
0.6940	25.219
0.6930	25.319
0.6920	25.300
0.6910	25.341
0.6900	25.242
0.6890	24.945
0.6880	25.219
0.6870	25.045
0.6860	25.200
0.6850	24.902
0.6840	24.729
0.6830	24.729
0.6820	25.005
0.6810	24.847
0.6800	24.906
0.6790	24.869
0.6780	24.967
0.6770	24.747
0.6760	24.883
0.6750	24.902
0.6740	25.176
0.6730	24.977
0.6720	25.000
0.6710	25.001
0.6700	24.982
0.6690	24.981
0.6680	24.648
0.6670	24.685
0.6660	24.746
0.6650	24.807
0.6640	24.939
0.6630	24.977
0.6620	24.839
0.6610	24.640
0.6600	24.541
0.6590	24.504
0.6580	24.405
0.6570	24.405
0.6560	24.351
0.6550	24.603
0.6540	24.603
0.6530	24.648
0.6520	24.479
0.6510	24.534
0.6500	24.597
0.6490	24.342
0.6480	24.306
0.6470	24.404
0.6460	24.423
0.6450	24.225
0.6440	24.323
0.6430	24.305
0.6420	24.350
0.6410	24.441
0.6400	24.342
0.6390	24.397
0.6380	24.279
0.6370	24.206
0.6360	24.043
0.6350	24.025
0.6340	24.007
0.6330	24.007
0.6320	23.926
0.6310	23.989
0.6300	24.025
0.6290	23.998
0.6280	24.242
0.6270	24.097
0.6260	24.034
0.6250	24.034
0.6240	23.898
0.6230	24.016
0.6220	24.034
0.6210	24.016
0.6200	23.916
0.6190	23.734
0.6180	23.888
0.6170	23.852
0.6160	23.634
0.6150	23.598
0.6140	23.616
0.6130	23.481
0.6120	23.581
0.6110	23.616
0.6100	23.634
0.6090	23.705
0.6080	23.652
0.6070	23.534
0.6060	23.451
0.6050	23.451
0.6040	23.487
0.6030	23.504
0.6020	23.404
0.6010	23.303
0.6000	23.391
0.5990	23.207
0.5980	23.444
0.5970	23.480
0.5960	23.480
0.5950	23.109
0.5940	23.126
0.5930	23.211
0.5920	23.264
0.5910	23.264
0.5900	23.264
0.5890	23.077
0.5880	23.264
0.5870	23.162
0.5860	23.023
0.5850	22.971
0.5840	23.060
0.5830	23.095
0.5820	23.007
0.5810	22.770
0.5800	22.702
0.5790	22.719
0.5780	22.904
0.5770	22.719
0.5760	22.770
0.5750	22.770
0.5740	22.719
0.5730	22.784
0.5720	22.700
0.5710	22.700
0.5700	22.484
0.5690	22.484
0.5680	22.434
0.5670	22.734
0.5660	22.801
0.5650	22.700
0.5640	22.450
0.5630	22.500
0.5620	22.416
0.5610	22.433
0.5600	22.500
0.5590	22.432
0.5580	22.432
0.5570	22.510
0.5560	22.465
0.5550	22.465
0.5540	22.277
0.5530	22.022
0.5520	22.033
0.5510	22.062
0.5500	22.244
0.5490	22.112
0.5480	22.104
0.5470	22.110
0.5460	22.125
0.5450	22.012
0.5440	21.876
0.5430	21.876
0.5420	21.781
0.5410	21.823
0.5400	21.669
0.5390	21.712
0.5380	21.754
0.5370	21.667
0.5360	21.681
0.5350	21.656
0.5340	21.574
0.5330	21.574
0.5320	21.239
0.5310	21.281
0.5300	21.197
0.5290	21.308
0.5280	21.295
0.5270	21.127
0.5260	21.225
0.5250	21.295
0.5240	21.265
0.5230	21.195
0.5220	21.058
0.5210	21.058
0.5200	21.153
0.5190	21.111
0.5180	21.111
0.5170	20.918
0.5160	21.043
0.5150	20.972
0.5140	20.806
0.5130	20.833
0.5120	20.847
0.5110	20.929
0.5100	20.598
0.5090	20.820
0.5080	20.420
0.5070	20.361
0.5060	20.400
0.5050	20.442
0.5040	20.426
0.5030	20.413
0.5020	20.238
0.5010	20.193
0.5000	20.302
0.4990	20.204
0.4980	20.152
0.4970	20.165
0.4960	20.140
0.4950	19.751
0.4940	19.678
0.4930	19.797
0.4920	19.834
0.4910	19.834
0.4900	19.775
0.4890	19.667
0.4880	19.677
0.4870	19.763
0.4860	19.617
0.4850	19.471
0.4840	19.471
0.4830	19.519
0.4820	19.362
0.4810	19.374
0.4800	19.093
0.4790	19.178
0.4780	19.030
0.4770	19.018
0.4760	19.018
0.4750	18.825
0.4740	18.836
0.4730	18.849
0.4720	18.729
0.4710	18.729
0.4700	18.729
0.4690	18.729
0.4680	18.706
0.4670	18.740
0.4660	18.643
0.4650	18.654
0.4640	18.557
0.4630	18.535
0.4620	18.405
0.4610	18.503
0.4600	18.418
0.4590	18.465
0.4580	18.338
0.4570	18.408
0.4560	18.318
0.4550	18.428
0.4540	18.318
0.4530	18.328
0.4520	18.368
0.4510	18.267
0.4500	18.398
0.4490	18.248
0.4480	18.388
0.4470	18.296
0.4460	18.021
0.4450	18.151
0.4440	17.984
0.4430	17.891
0.4420	18.068
0.4410	18.030
0.4400	18.122
0.4390	18.011
0.4380	18.039
0.4370	17.982
0.4360	17.779
0.4350	17.917
0.4340	17.786
0.4330	17.870
0.4320	18.110
0.4310	17.915
0.4300	17.717
0.4290	17.683
0.4280	17.476
0.4270	17.525
0.4260	17.390
0.4250	17.683
0.4240	17.271
0.4230	17.398
0.4220	17.318
0.4210	17.213
0.4200	17.229
0.4190	17.086
0.4180	17.190
0.4170	17.180
0.4160	17.229
0.4150	17.038
0.4140	16.923
0.4130	16.951
0.4120	17.046
0.4110	16.908
0.4100	16.820
0.4090	16.820
0.4080	16.820
0.4070	16.745
0.4060	16.765
0.4050	16.751
0.4040	16.772
0.4030	16.561
0.4020	16.676
0.4010	16.483
0.4000	16.259
