Name: Banded Hornfels 
Type:  Rocks
Class: Metamorphic 
Subclass: Hornfels 
Particle Size:  0-75 Micrometer
Sample No.:  hornfel1.doc
Owner:  JHU
Wavelength Range:  All
Origin:  Sample No. 470, The Hunt and Salisbury Collection at the U.S. 
Geological Survey, Denver, Co.
Description:  This is a fine-grained to microcrystalline sample showing relict 
bedding.  It consists of a pleochroic greenish brown phase--probably epidote; and 
cordierite or andalusite.  The latter occur as the coarser grains in veins parallel to 
the bedding, as well as finer material along with the epidote in the groundmass.  
In addition there are scattered grains of calcite and opaques, along with veinlets 
of carbonaceous material which again parallel the bedding.  
Measurement:  Directional (10 Degree) Hemispherical Reflectance
First Column:  X
Second Column:  Y  
X Units:  Wavelength (micrometers)
Y Units:  Reflectance (percent)
First X Value: 14.9831
Last X Value:  0.4000
Number of X Values: 2868
Additional Information:  None

14.983	0.74150
14.940	0.89900
14.897	1.0290
14.854	1.1415
14.812	1.2445
14.770	1.3731
14.728	1.5069
14.686	1.6520
14.645	1.7818
14.603	1.8948
14.562	2.0120
14.521	2.1432
14.481	2.2663
14.441	2.3845
14.400	2.4745
14.361	2.5211
14.321	2.5368
14.281	2.5555
14.242	2.5919
14.203	2.6405
14.164	2.6810
14.126	2.7037
14.087	2.6992
14.049	2.6796
14.011	2.6682
13.973	2.6853
13.936	2.7257
13.899	2.7781
13.861	2.8326
13.824	2.8799
13.788	2.9180
13.751	2.9564
13.715	2.9981
13.679	3.0530
13.643	3.1260
13.607	3.2167
13.571	3.3192
13.536	3.4253
13.500	3.5231
13.465	3.6001
13.430	3.6427
13.396	3.6555
13.361	3.6434
13.327	3.6131
13.293	3.5752
13.259	3.5435
13.225	3.5264
13.191	3.5286
13.158	3.5527
13.124	3.5987
13.091	3.6529
13.058	3.7052
13.026	3.7488
12.993	3.7817
12.960	3.8075
12.928	3.8388
12.896	3.8897
12.864	3.9669
12.832	4.0675
12.800	4.1886
12.769	4.3200
12.737	4.4510
12.706	4.5769
12.675	4.7001
12.644	4.8235
12.614	4.9528
12.583	5.0937
12.552	5.2547
12.522	5.4337
12.492	5.6199
12.462	5.8032
12.432	5.9737
12.402	6.1196
12.373	6.2363
12.343	6.3275
12.314	6.4068
12.285	6.4819
12.256	6.5532
12.227	6.6228
12.198	6.6910
12.169	6.7507
12.141	6.7942
12.113	6.8191
12.084	6.8236
12.056	6.8011
12.028	6.7419
12.000	6.6441
11.973	6.5129
11.945	6.3514
11.918	6.1691
11.890	5.9820
11.863	5.8058
11.836	5.6537
11.809	5.5379
11.782	5.4648
11.755	5.4340
11.729	5.4330
11.702	5.4491
11.676	5.4742
11.650	5.5003
11.624	5.5228
11.598	5.5391
11.572	5.5408
11.546	5.5209
11.520	5.4730
11.495	5.3975
11.469	5.3080
11.444	5.2211
11.419	5.1515
11.394	5.1091
11.369	5.0918
11.344	5.0937
11.319	5.1027
11.294	5.1074
11.270	5.1020
11.245	5.0821
11.221	5.0496
11.197	5.0087
11.173	4.9627
11.149	4.9156
11.125	4.8673
11.101	4.8213
11.077	4.7782
11.054	4.7368
11.030	4.6961
11.007	4.6591
10.983	4.6255
10.960	4.5907
10.937	4.5499
10.914	4.5071
10.891	4.4621
10.868	4.4109
10.846	4.3534
10.823	4.2925
10.800	4.2298
10.778	4.1675
10.755	4.1102
10.733	4.0687
10.711	4.0465
10.689	4.0422
10.667	4.0517
10.645	4.0664
10.623	4.0784
10.602	4.0801
10.580	4.0640
10.558	4.0342
10.537	3.9993
10.516	3.9700
10.494	3.9536
10.473	3.9515
10.452	3.9629
10.431	3.9785
10.410	3.9821
10.389	3.9662
10.368	3.9302
10.348	3.8790
10.327	3.8182
10.306	3.7516
10.286	3.6875
10.266	3.6304
10.245	3.5783
10.225	3.5309
10.205	3.4876
10.185	3.4497
10.165	3.4189
10.145	3.3957
10.125	3.3846
10.106	3.3910
10.086	3.4137
10.066	3.4530
10.047	3.5044
10.027	3.5643
10.008	3.6309
9.9887	3.7002
9.9695	3.7680
9.9504	3.8293
9.9313	3.8783
9.9123	3.9129
9.8934	3.9302
9.8746	3.9266
9.8558	3.9046
9.8371	3.8700
9.8185	3.8253
9.7999	3.7777
9.7814	3.7362
9.7630	3.7066
9.7447	3.6915
9.7264	3.6872
9.7082	3.6920
9.6900	3.7050
9.6719	3.7182
9.6539	3.7308
9.6360	3.7415
9.6181	3.7467
9.6003	3.7462
9.5825	3.7422
9.5649	3.7374
9.5472	3.7410
9.5297	3.7580
9.5122	3.7924
9.4948	3.8421
9.4774	3.9051
9.4601	3.9792
9.4429	4.0619
9.4257	4.1459
9.4086	4.2286
9.3916	4.3086
9.3746	4.3783
9.3577	4.4315
9.3408	4.4682
9.3240	4.4926
9.3073	4.5040
9.2906	4.5016
9.2740	4.4884
9.2574	4.4675
9.2409	4.4401
9.2245	4.4109
9.2081	4.3875
9.1918	4.3735
9.1755	4.3669
9.1593	4.3704
9.1431	4.3861
9.1270	4.4100
9.1110	4.4396
9.0950	4.4711
9.0791	4.4997
9.0632	4.5203
9.0474	4.5322
9.0316	4.5390
9.0159	4.5457
9.0003	4.5488
8.9847	4.5443
8.9691	4.5263
8.9536	4.4924
8.9382	4.4441
8.9228	4.3865
8.9075	4.3280
8.8922	4.2759
8.8770	4.2288
8.8618	4.1826
8.8467	4.1365
8.8316	4.0953
8.8166	4.0578
8.8016	4.0218
8.7867	3.9908
8.7718	3.9645
8.7570	3.9361
8.7422	3.9001
8.7275	3.8608
8.7129	3.8284
8.6982	3.8028
8.6837	3.7843
8.6692	3.7808
8.6547	3.7947
8.6403	3.8194
8.6259	3.8494
8.6116	3.8880
8.5973	3.9368
8.5830	3.9887
8.5688	4.0410
8.5547	4.0974
8.5406	4.1564
8.5266	4.2108
8.5126	4.2603
8.4986	4.3086
8.4847	4.3567
8.4708	4.4041
8.4570	4.4569
8.4432	4.5213
8.4295	4.5954
8.4158	4.6755
8.4022	4.7607
8.3886	4.8505
8.3750	4.9407
8.3615	5.0293
8.3481	5.1192
8.3347	5.2071
8.3213	5.2860
8.3079	5.3520
8.2946	5.4086
8.2814	5.4598
8.2682	5.5083
8.2550	5.5619
8.2419	5.6256
8.2288	5.6985
8.2158	5.7762
8.2028	5.8557
8.1898	5.9377
8.1769	6.0199
8.1640	6.1020
8.1512	6.1859
8.1384	6.2728
8.1256	6.3640
8.1129	6.4592
8.1002	6.5607
8.0876	6.6702
8.0750	6.7881
8.0624	6.9169
8.0499	7.0595
8.0374	7.2165
8.0250	7.3863
8.0126	7.5620
8.0002	7.7384
7.9879	7.9096
7.9756	8.0697
7.9634	8.2170
7.9512	8.3553
7.9390	8.4891
7.9268	8.6220
7.9147	8.7577
7.9027	8.9045
7.8906	9.0667
7.8786	9.2396
7.8667	9.4132
7.8548	9.5792
7.8429	9.7317
7.8310	9.8676
7.8192	9.9932
7.8075	10.122
7.7957	10.263
7.7840	10.417
7.7723	10.579
7.7607	10.738
7.7491	10.890
7.7375	11.027
7.7260	11.145
7.7145	11.245
7.7031	11.328
7.6916	11.398
7.6802	11.455
7.6689	11.500
7.6575	11.536
7.6462	11.566
7.6350	11.588
7.6238	11.608
7.6126	11.632
7.6014	11.668
7.5903	11.720
7.5792	11.790
7.5681	11.876
7.5571	11.973
7.5461	12.075
7.5351	12.177
7.5242	12.275
7.5133	12.368
7.5024	12.452
7.4916	12.528
7.4807	12.592
7.4700	12.644
7.4592	12.686
7.4485	12.717
7.4378	12.737
7.4272	12.747
7.4165	12.748
7.4059	12.737
7.3954	12.709
7.3848	12.656
7.3743	12.575
7.3639	12.464
7.3534	12.326
7.3430	12.168
7.3326	11.998
7.3222	11.824
7.3119	11.649
7.3016	11.479
7.2914	11.321
7.2811	11.180
7.2709	11.058
7.2607	10.951
7.2506	10.849
7.2404	10.742
7.2303	10.620
7.2203	10.485
7.2102	10.345
7.2002	10.208
7.1902	10.082
7.1803	9.9733
7.1703	9.8814
7.1604	9.8115
7.1506	9.7698
7.1407	9.7625
7.1309	9.7900
7.1211	9.8466
7.1113	9.9181
7.1016	9.9832
7.0919	10.024
7.0822	10.030
7.0725	10.005
7.0629	9.9593
7.0533	9.9093
7.0437	9.8686
7.0341	9.8442
7.0246	9.8340
7.0151	9.8302
7.0056	9.8226
6.9962	9.8070
6.9867	9.7852
6.9773	9.7618
6.9679	9.7431
6.9586	9.7353
6.9493	9.7405
6.9400	9.7561
6.9307	9.7784
6.9214	9.8028
6.9122	9.8236
6.9030	9.8383
6.8938	9.8485
6.8847	9.8584
6.8755	9.8719
6.8664	9.8958
6.8573	9.9370
6.8483	9.9936
6.8393	10.056
6.8302	10.115
6.8213	10.172
6.8123	10.224
6.8034	10.276
6.7944	10.339
6.7855	10.419
6.7767	10.516
6.7678	10.619
6.7590	10.718
6.7502	10.808
6.7414	10.891
6.7327	10.971
6.7239	11.057
6.7152	11.156
6.7065	11.274
6.6979	11.411
6.6892	11.559
6.6806	11.709
6.6720	11.858
6.6634	12.007
6.6549	12.159
6.6464	12.325
6.6378	12.522
6.6294	12.756
6.6209	13.012
6.6124	13.267
6.6040	13.509
6.5956	13.731
6.5872	13.936
6.5789	14.138
6.5705	14.355
6.5622	14.594
6.5539	14.847
6.5456	15.099
6.5374	15.335
6.5292	15.547
6.5209	15.738
6.5128	15.916
6.5046	16.099
6.4964	16.304
6.4883	16.546
6.4802	16.823
6.4721	17.123
6.4640	17.426
6.4560	17.706
6.4480	17.944
6.4399	18.141
6.4320	18.308
6.4240	18.465
6.4160	18.628
6.4081	18.810
6.4002	19.008
6.3923	19.198
6.3844	19.362
6.3766	19.488
6.3687	19.574
6.3609	19.624
6.3531	19.644
6.3454	19.651
6.3376	19.652
6.3299	19.646
6.3221	19.636
6.3144	19.628
6.3068	19.636
6.2991	19.664
6.2914	19.713
6.2838	19.782
6.2762	19.864
6.2686	19.943
6.2611	20.008
6.2535	20.058
6.2460	20.099
6.2385	20.138
6.2310	20.178
6.2235	20.219
6.2160	20.255
6.2086	20.281
6.2011	20.292
6.1937	20.282
6.1863	20.257
6.1790	20.227
6.1716	20.192
6.1643	20.153
6.1570	20.110
6.1496	20.061
6.1424	19.998
6.1351	19.921
6.1278	19.842
6.1206	19.775
6.1134	19.734
6.1062	19.736
6.0990	19.793
6.0918	19.894
6.0847	20.016
6.0776	20.140
6.0704	20.261
6.0633	20.377
6.0563	20.487
6.0492	20.613
6.0421	20.776
6.0351	20.972
6.0281	21.183
6.0211	21.401
6.0141	21.627
6.0071	21.854
6.0002	22.074
5.9932	22.294
5.9863	22.534
5.9794	22.788
5.9725	23.040
5.9657	23.291
5.9588	23.552
5.9520	23.832
5.9451	24.150
5.9383	24.516
5.9315	24.937
5.9247	25.386
5.9180	25.808
5.9112	26.169
5.9045	26.456
5.8978	26.673
5.8911	26.853
5.8844	27.016
5.8777	27.188
5.8711	27.375
5.8644	27.554
5.8578	27.710
5.8512	27.835
5.8446	27.928
5.8380	28.002
5.8314	28.072
5.8249	28.156
5.8184	28.271
5.8118	28.415
5.8053	28.564
5.7988	28.691
5.7923	28.784
5.7859	28.843
5.7794	28.879
5.7730	28.908
5.7666	28.961
5.7602	29.057
5.7538	29.183
5.7474	29.318
5.7410	29.451
5.7347	29.573
5.7283	29.676
5.7220	29.762
5.7157	29.845
5.7094	29.938
5.7031	30.038
5.6969	30.138
5.6906	30.242
5.6844	30.351
5.6782	30.460
5.6719	30.567
5.6657	30.674
5.6596	30.777
5.6534	30.875
5.6472	30.966
5.6411	31.050
5.6349	31.127
5.6288	31.181
5.6227	31.181
5.6166	31.060
5.6106	30.727
5.6045	30.124
5.5984	29.248
5.5924	28.158
5.5864	26.991
5.5804	25.961
5.5744	25.298
5.5684	25.149
5.5624	25.566
5.5564	26.513
5.5505	27.852
5.5445	29.356
5.5386	30.790
5.5327	31.999
5.5268	32.919
5.5209	33.557
5.5151	33.982
5.5092	34.286
5.5033	34.541
5.4975	34.774
5.4917	34.984
5.4859	35.170
5.4801	35.334
5.4743	35.485
5.4685	35.631
5.4628	35.777
5.4570	35.920
5.4513	36.047
5.4455	36.150
5.4398	36.233
5.4341	36.299
5.4284	36.360
5.4228	36.431
5.4171	36.530
5.4114	36.656
5.4058	36.797
5.4002	36.949
5.3945	37.107
5.3889	37.265
5.3833	37.413
5.3778	37.551
5.3722	37.681
5.3666	37.801
5.3611	37.914
5.3555	38.025
5.3500	38.142
5.3445	38.266
5.3390	38.389
5.3335	38.507
5.3280	38.615
5.3225	38.704
5.3171	38.772
5.3116	38.823
5.3062	38.866
5.3008	38.907
5.2954	38.960
5.2900	39.039
5.2846	39.149
5.2792	39.283
5.2738	39.438
5.2684	39.608
5.2631	39.780
5.2578	39.947
5.2524	40.112
5.2471	40.280
5.2418	40.444
5.2365	40.595
5.2312	40.733
5.2260	40.849
5.2207	40.939
5.2154	41.002
5.2102	41.049
5.2050	41.083
5.1998	41.103
5.1945	41.107
5.1893	41.092
5.1842	41.058
5.1790	41.006
5.1738	40.940
5.1686	40.866
5.1635	40.789
5.1584	40.709
5.1532	40.618
5.1481	40.511
5.1430	40.383
5.1379	40.235
5.1328	40.060
5.1277	39.849
5.1227	39.595
5.1176	39.299
5.1126	38.964
5.1075	38.609
5.1025	38.264
5.0975	37.965
5.0925	37.736
5.0875	37.587
5.0825	37.518
5.0775	37.527
5.0726	37.604
5.0676	37.746
5.0627	37.952
5.0577	38.224
5.0528	38.559
5.0479	38.946
5.0430	39.371
5.0380	39.813
5.0332	40.251
5.0283	40.666
5.0234	41.042
5.0185	41.371
5.0137	41.653
5.0088	41.886
5.0040	42.073
4.9992	42.219
4.9944	42.327
4.9896	42.410
4.9848	42.474
4.9800	42.525
4.9752	42.569
4.9704	42.607
4.9657	42.640
4.9609	42.666
4.9562	42.692
4.9514	42.725
4.9467	42.769
4.9420	42.825
4.9373	42.894
4.9326	42.971
4.9279	43.050
4.9232	43.128
4.9186	43.205
4.9139	43.277
4.9092	43.344
4.9046	43.407
4.9000	43.473
4.8953	43.545
4.8907	43.633
4.8861	43.746
4.8815	43.888
4.8769	44.061
4.8723	44.263
4.8678	44.487
4.8632	44.727
4.8586	44.970
4.8541	45.210
4.8495	45.441
4.8450	45.661
4.8405	45.876
4.8360	46.092
4.8315	46.312
4.8270	46.543
4.8225	46.785
4.8180	47.035
4.8135	47.292
4.8090	47.549
4.8046	47.804
4.8001	48.048
4.7957	48.274
4.7913	48.476
4.7868	48.653
4.7824	48.805
4.7780	48.934
4.7736	49.048
4.7692	49.157
4.7648	49.270
4.7605	49.392
4.7561	49.532
4.7517	49.698
4.7474	49.894
4.7431	50.120
4.7387	50.371
4.7344	50.640
4.7301	50.911
4.7258	51.167
4.7215	51.396
4.7172	51.595
4.7129	51.766
4.7086	51.914
4.7043	52.045
4.7000	52.166
4.6958	52.281
4.6915	52.392
4.6873	52.501
4.6831	52.610
4.6788	52.718
4.6746	52.829
4.6704	52.946
4.6662	53.079
4.6620	53.239
4.6578	53.438
4.6536	53.682
4.6495	53.969
4.6453	54.287
4.6411	54.624
4.6370	54.965
4.6328	55.300
4.6287	55.619
4.6246	55.921
4.6205	56.207
4.6163	56.481
4.6122	56.746
4.6081	57.008
4.6040	57.273
4.6000	57.540
4.5959	57.807
4.5918	58.073
4.5877	58.336
4.5837	58.591
4.5796	58.836
4.5756	59.070
4.5716	59.290
4.5675	59.498
4.5635	59.694
4.5595	59.885
4.5555	60.075
4.5515	60.269
4.5475	60.472
4.5435	60.686
4.5395	60.910
4.5356	61.135
4.5316	61.356
4.5276	61.570
4.5237	61.770
4.5197	61.952
4.5158	62.117
4.5119	62.264
4.5080	62.394
4.5040	62.507
4.5001	62.613
4.4962	62.720
4.4923	62.832
4.4884	62.947
4.4846	63.062
4.4807	63.175
4.4768	63.280
4.4730	63.375
4.4691	63.460
4.4652	63.541
4.4614	63.615
4.4576	63.683
4.4537	63.747
4.4499	63.810
4.4461	63.871
4.4423	63.931
4.4385	63.990
4.4347	64.045
4.4309	64.092
4.4271	64.135
4.4233	64.174
4.4196	64.210
4.4158	64.247
4.4120	64.286
4.4083	64.328
4.4045	64.373
4.4008	64.422
4.3971	64.471
4.3934	64.521
4.3896	64.571
4.3859	64.623
4.3822	64.676
4.3785	64.730
4.3748	64.785
4.3711	64.840
4.3674	64.892
4.3638	64.941
4.3601	64.991
4.3564	65.044
4.3528	65.104
4.3491	65.172
4.3455	65.245
4.3418	65.321
4.3382	65.398
4.3346	65.475
4.3310	65.552
4.3273	65.632
4.3237	65.715
4.3201	65.804
4.3165	65.897
4.3129	65.996
4.3094	66.101
4.3058	66.209
4.3022	66.318
4.2986	66.427
4.2951	66.534
4.2915	66.639
4.2880	66.740
4.2844	66.838
4.2809	66.934
4.2774	67.026
4.2738	67.114
4.2703	67.199
4.2668	67.282
4.2633	67.363
4.2598	67.441
4.2563	67.519
4.2528	67.596
4.2493	67.669
4.2458	67.735
4.2424	67.795
4.2389	67.852
4.2354	67.906
4.2320	67.960
4.2285	68.017
4.2251	68.075
4.2216	68.131
4.2182	68.184
4.2148	68.233
4.2113	68.280
4.2079	68.325
4.2045	68.367
4.2011	68.407
4.1977	68.443
4.1943	68.474
4.1909	68.499
4.1875	68.521
4.1841	68.540
4.1808	68.559
4.1774	68.576
4.1740	68.593
4.1707	68.612
4.1673	68.631
4.1640	68.646
4.1606	68.655
4.1573	68.657
4.1540	68.651
4.1506	68.637
4.1473	68.619
4.1440	68.599
4.1407	68.580
4.1374	68.558
4.1341	68.531
4.1308	68.499
4.1275	68.459
4.1242	68.411
4.1209	68.358
4.1177	68.303
4.1144	68.247
4.1111	68.190
4.1079	68.132
4.1046	68.072
4.1014	68.009
4.0981	67.943
4.0949	67.872
4.0917	67.791
4.0884	67.698
4.0852	67.589
4.0820	67.459
4.0788	67.310
4.0756	67.146
4.0724	66.971
4.0692	66.788
4.0660	66.595
4.0628	66.387
4.0596	66.147
4.0565	65.851
4.0533	65.474
4.0501	64.995
4.0470	64.406
4.0438	63.719
4.0406	62.957
4.0375	62.153
4.0344	61.340
4.0312	60.541
4.0281	59.756
4.0250	58.969
4.0218	58.144
4.0187	57.235
4.0156	56.199
4.0125	55.013
4.0094	53.689
4.0063	52.272
4.0032	50.825
4.0001	49.419
3.9970	48.115
3.9940	46.964
3.9909	46.007
3.9878	45.274
3.9847	44.776
3.9817	44.509
3.9786	44.448
3.9756	44.551
3.9725	44.775
3.9695	45.095
3.9665	45.513
3.9634	46.049
3.9604	46.719
3.9574	47.541
3.9544	48.524
3.9513	49.646
3.9483	50.853
3.9453	52.062
3.9423	53.186
3.9393	54.141
3.9363	54.866
3.9333	55.359
3.9304	55.675
3.9274	55.893
3.9244	56.074
3.9214	56.255
3.9185	56.444
3.9155	56.629
3.9126	56.789
3.9096	56.915
3.9067	57.013
3.9037	57.101
3.9008	57.184
3.8979	57.262
3.8949	57.337
3.8920	57.410
3.8891	57.477
3.8862	57.534
3.8833	57.585
3.8804	57.632
3.8775	57.673
3.8746	57.707
3.8717	57.743
3.8688	57.786
3.8659	57.836
3.8630	57.895
3.8601	57.963
3.8573	58.039
3.8544	58.118
3.8515	58.204
3.8487	58.315
3.8458	58.468
3.8430	58.682
3.8401	58.971
3.8373	59.339
3.8344	59.778
3.8316	60.264
3.8288	60.776
3.8259	61.291
3.8231	61.797
3.8203	62.288
3.8175	62.762
3.8147	63.226
3.8119	63.687
3.8091	64.155
3.8063	64.631
3.8035	65.115
3.8007	65.603
3.7979	66.077
3.7951	66.513
3.7924	66.890
3.7896	67.195
3.7868	67.423
3.7841	67.580
3.7813	67.682
3.7785	67.750
3.7758	67.798
3.7730	67.834
3.7703	67.861
3.7676	67.879
3.7648	67.888
3.7621	67.891
3.7594	67.888
3.7566	67.882
3.7539	67.871
3.7512	67.856
3.7485	67.835
3.7458	67.808
3.7431	67.781
3.7404	67.756
3.7377	67.735
3.7350	67.714
3.7323	67.693
3.7296	67.673
3.7269	67.649
3.7242	67.622
3.7216	67.594
3.7189	67.562
3.7162	67.525
3.7136	67.481
3.7109	67.434
3.7083	67.389
3.7056	67.346
3.7030	67.303
3.7003	67.261
3.6977	67.220
3.6950	67.176
3.6924	67.131
3.6898	67.088
3.6872	67.050
3.6845	67.010
3.6819	66.963
3.6793	66.908
3.6767	66.846
3.6741	66.778
3.6715	66.707
3.6689	66.641
3.6663	66.582
3.6637	66.529
3.6611	66.479
3.6585	66.430
3.6560	66.382
3.6534	66.329
3.6508	66.271
3.6482	66.215
3.6457	66.157
3.6431	66.101
3.6406	66.048
3.6380	65.996
3.6355	65.945
3.6329	65.890
3.6304	65.830
3.6278	65.767
3.6253	65.696
3.6227	65.623
3.6202	65.552
3.6177	65.484
3.6152	65.421
3.6127	65.357
3.6101	65.293
3.6076	65.223
3.6051	65.143
3.6026	65.051
3.6001	64.953
3.5976	64.852
3.5951	64.745
3.5926	64.631
3.5901	64.510
3.5876	64.379
3.5852	64.231
3.5827	64.068
3.5802	63.901
3.5777	63.739
3.5753	63.594
3.5728	63.472
3.5704	63.383
3.5679	63.320
3.5654	63.268
3.5630	63.214
3.5605	63.145
3.5581	63.055
3.5557	62.940
3.5532	62.804
3.5508	62.651
3.5484	62.476
3.5459	62.275
3.5435	62.045
3.5411	61.777
3.5387	61.466
3.5363	61.099
3.5338	60.664
3.5314	60.146
3.5290	59.532
3.5266	58.828
3.5242	58.058
3.5218	57.260
3.5195	56.479
3.5171	55.753
3.5147	55.107
3.5123	54.547
3.5099	54.060
3.5075	53.625
3.5052	53.219
3.5028	52.823
3.5004	52.430
3.4981	52.038
3.4957	51.647
3.4934	51.259
3.4910	50.873
3.4887	50.490
3.4863	50.119
3.4840	49.779
3.4816	49.514
3.4793	49.383
3.4770	49.447
3.4746	49.741
3.4723	50.256
3.4700	50.944
3.4677	51.720
3.4653	52.475
3.4630	53.118
3.4607	53.604
3.4584	53.934
3.4561	54.130
3.4538	54.230
3.4515	54.280
3.4492	54.310
3.4469	54.326
3.4446	54.324
3.4423	54.309
3.4400	54.281
3.4378	54.234
3.4355	54.170
3.4332	54.099
3.4309	54.023
3.4287	53.940
3.4264	53.853
3.4241	53.763
3.4219	53.668
3.4196	53.568
3.4174	53.468
3.4151	53.371
3.4129	53.277
3.4106	53.188
3.4084	53.100
3.4061	53.009
3.4039	52.915
3.4017	52.822
3.3994	52.730
3.3972	52.639
3.3950	52.550
3.3928	52.461
3.3906	52.358
3.3883	52.239
3.3861	52.108
3.3839	51.965
3.3817	51.816
3.3795	51.671
3.3773	51.541
3.3751	51.427
3.3729	51.320
3.3707	51.206
3.3685	51.068
3.3663	50.884
3.3641	50.642
3.3620	50.344
3.3598	50.002
3.3576	49.647
3.3554	49.325
3.3533	49.097
3.3511	49.039
3.3489	49.208
3.3468	49.629
3.3446	50.274
3.3425	51.062
3.3403	51.884
3.3382	52.630
3.3360	53.227
3.3339	53.653
3.3317	53.928
3.3296	54.090
3.3274	54.183
3.3253	54.238
3.3232	54.265
3.3210	54.270
3.3189	54.251
3.3168	54.207
3.3147	54.141
3.3126	54.061
3.3104	53.973
3.3083	53.883
3.3062	53.796
3.3041	53.714
3.3020	53.628
3.2999	53.531
3.2978	53.424
3.2957	53.312
3.2936	53.199
3.2915	53.088
3.2894	52.981
3.2874	52.878
3.2853	52.769
3.2832	52.651
3.2811	52.525
3.2790	52.397
3.2770	52.265
3.2749	52.133
3.2728	52.002
3.2708	51.875
3.2687	51.753
3.2666	51.630
3.2646	51.509
3.2625	51.382
3.2605	51.247
3.2584	51.102
3.2564	50.948
3.2543	50.799
3.2523	50.656
3.2503	50.517
3.2482	50.384
3.2462	50.254
3.2442	50.118
3.2421	49.978
3.2401	49.840
3.2381	49.708
3.2361	49.579
3.2340	49.448
3.2320	49.316
3.2300	49.178
3.2280	49.032
3.2260	48.883
3.2240	48.737
3.2220	48.598
3.2200	48.463
3.2180	48.330
3.2160	48.198
3.2140	48.065
3.2120	47.930
3.2100	47.794
3.2080	47.661
3.2060	47.533
3.2040	47.412
3.2021	47.296
3.2001	47.181
3.1981	47.062
3.1961	46.939
3.1942	46.813
3.1922	46.682
3.1902	46.548
3.1883	46.419
3.1863	46.294
3.1844	46.167
3.1824	46.036
3.1805	45.905
3.1785	45.771
3.1766	45.632
3.1746	45.495
3.1727	45.364
3.1707	45.236
3.1688	45.105
3.1669	44.967
3.1649	44.825
3.1630	44.675
3.1611	44.518
3.1591	44.363
3.1572	44.216
3.1553	44.076
3.1534	43.940
3.1515	43.807
3.1495	43.677
3.1476	43.549
3.1457	43.421
3.1438	43.295
3.1419	43.170
3.1400	43.037
3.1381	42.896
3.1362	42.754
3.1343	42.612
3.1324	42.477
3.1305	42.351
3.1286	42.230
3.1268	42.113
3.1249	41.992
3.1230	41.865
3.1211	41.739
3.1192	41.612
3.1174	41.477
3.1155	41.336
3.1136	41.192
3.1117	41.049
3.1099	40.913
3.1080	40.786
3.1061	40.677
3.1043	40.579
3.1024	40.482
3.1006	40.385
3.0987	40.287
3.0969	40.186
3.0950	40.087
3.0932	39.995
3.0913	39.910
3.0895	39.833
3.0876	39.758
3.0858	39.682
3.0840	39.603
3.0821	39.517
3.0803	39.434
3.0785	39.356
3.0766	39.283
3.0748	39.215
3.0730	39.152
3.0712	39.094
3.0694	39.038
3.0675	38.982
3.0657	38.928
3.0639	38.875
3.0621	38.820
3.0603	38.762
3.0585	38.704
3.0567	38.647
3.0549	38.595
3.0531	38.545
3.0513	38.498
3.0495	38.456
3.0477	38.419
3.0459	38.390
3.0441	38.365
3.0423	38.348
3.0406	38.336
3.0388	38.330
3.0370	38.325
3.0352	38.315
3.0334	38.294
3.0317	38.262
3.0299	38.218
3.0281	38.164
3.0264	38.107
3.0246	38.056
3.0228	38.010
3.0211	37.967
3.0193	37.924
3.0176	37.878
3.0158	37.830
3.0140	37.778
3.0123	37.721
3.0105	37.661
3.0088	37.594
3.0070	37.520
3.0053	37.443
3.0036	37.366
3.0018	37.290
3.0001	37.213
2.9984	37.133
2.9966	37.057
2.9949	36.984
2.9932	36.915
2.9914	36.852
2.9897	36.792
2.9880	36.728
2.9863	36.660
2.9845	36.588
2.9828	36.523
2.9811	36.466
2.9794	36.415
2.9777	36.368
2.9760	36.321
2.9743	36.269
2.9726	36.215
2.9709	36.161
2.9692	36.110
2.9675	36.059
2.9658	36.009
2.9641	35.963
2.9624	35.917
2.9607	35.869
2.9590	35.828
2.9573	35.797
2.9556	35.777
2.9539	35.764
2.9523	35.759
2.9506	35.757
2.9489	35.742
2.9472	35.714
2.9455	35.680
2.9439	35.645
2.9422	35.613
2.9405	35.587
2.9389	35.576
2.9372	35.576
2.9355	35.579
2.9339	35.587
2.9322	35.594
2.9306	35.595
2.9289	35.583
2.9272	35.564
2.9256	35.549
2.9239	35.538
2.9223	35.533
2.9207	35.540
2.9190	35.557
2.9174	35.580
2.9157	35.602
2.9141	35.621
2.9124	35.635
2.9108	35.639
2.9092	35.637
2.9075	35.633
2.9059	35.634
2.9043	35.645
2.9027	35.661
2.9010	35.673
2.8994	35.679
2.8978	35.683
2.8962	35.693
2.8946	35.715
2.8929	35.749
2.8913	35.792
2.8897	35.832
2.8881	35.857
2.8865	35.865
2.8849	35.861
2.8833	35.856
2.8817	35.860
2.8801	35.869
2.8785	35.888
2.8769	35.913
2.8753	35.938
2.8737	35.962
2.8721	35.984
2.8705	36.011
2.8689	36.052
2.8673	36.105
2.8658	36.178
2.8642	36.266
2.8626	36.359
2.8610	36.452
2.8594	36.541
2.8579	36.625
2.8563	36.703
2.8547	36.772
2.8531	36.833
2.8516	36.885
2.8500	36.924
2.8484	36.954
2.8469	36.976
2.8453	36.993
2.8437	37.002
2.8422	37.006
2.8406	37.000
2.8391	36.980
2.8375	36.943
2.8360	36.889
2.8344	36.821
2.8329	36.741
2.8313	36.660
2.8298	36.590
2.8282	36.528
2.8267	36.466
2.8252	36.405
2.8236	36.340
2.8221	36.258
2.8205	36.151
2.8190	36.034
2.8175	35.917
2.8159	35.805
2.8144	35.702
2.8129	35.618
2.8114	35.550
2.8098	35.484
2.8083	35.424
2.8068	35.378
2.8053	35.350
2.8038	35.336
2.8022	35.325
2.8007	35.308
2.7992	35.267
2.7977	35.189
2.7962	35.068
2.7947	34.896
2.7932	34.676
2.7917	34.418
2.7902	34.134
2.7887	33.849
2.7872	33.601
2.7857	33.418
2.7842	33.312
2.7827	33.291
2.7812	33.350
2.7797	33.471
2.7782	33.618
2.7767	33.754
2.7752	33.845
2.7738	33.860
2.7723	33.773
2.7708	33.584
2.7693	33.313
2.7678	32.996
2.7664	32.688
2.7649	32.436
2.7634	32.276
2.7619	32.233
2.7605	32.306
2.7590	32.478
2.7575	32.723
2.7561	33.021
2.7546	33.352
2.7531	33.682
2.7517	33.964
2.7502	34.165
2.7488	34.245
2.7473	34.172
2.7458	33.943
2.7444	33.584
2.7429	33.132
2.7415	32.621
2.7400	32.091
2.7386	31.574
2.7371	31.086
2.7357	30.637
2.7343	30.241
2.7328	29.902
2.7314	29.611
2.7299	29.364
2.7285	29.155
2.7271	28.978
2.7256	28.839
2.7242	28.759
2.7228	28.757
2.7213	28.833
2.7199	28.980
2.7185	29.176
2.7171	29.372
2.7156	29.529
2.7142	29.621
2.7128	29.642
2.7114	29.604
2.7100	29.523
2.7085	29.413
2.7071	29.284
2.7057	29.139
2.7043	28.990
2.7029	28.852
2.7015	28.747
2.7001	28.706
2.6987	28.754
2.6973	28.910
2.6959	29.198
2.6945	29.657
2.6931	30.343
2.6917	31.323
2.6903	32.686
2.6889	34.551
2.6875	37.039
2.6861	40.235
2.6847	44.123
2.6833	48.545
2.6819	53.209
2.6805	57.748
2.6791	61.786
2.6778	65.040
2.6764	67.416
2.6750	69.002
2.6736	69.971
2.6722	70.520
2.6709	70.842
2.6695	71.108
2.6681	71.382
2.6667	71.654
2.6654	71.939
2.6640	72.235
2.6626	72.505
2.6613	72.704
2.6599	72.827
2.6585	72.897
2.6572	72.919
2.6558	72.901
2.6545	72.884
2.6531	72.877
2.6517	72.882
2.6504	72.888
2.6490	72.889
2.6477	72.884
2.6463	72.880
2.6450	72.898
2.6436	72.948
2.6423	73.022
2.6409	73.120
2.6396	73.235
2.6382	73.332
2.6369	73.387
2.6356	73.411
2.6342	73.417
2.6329	73.409
2.6315	73.401
2.6302	73.442
2.6289	73.550
2.6275	73.673
2.6262	73.790
2.6249	73.897
2.6236	73.960
2.6222	73.959
2.6209	73.918
2.6196	73.906
2.6183	73.946
2.6169	74.012
2.6156	74.117
2.6143	74.253
2.6130	74.367
2.6117	74.424
2.6103	74.423
2.6090	74.390
2.6077	74.340
2.6064	74.293
2.6051	74.303
2.6038	74.405
2.6025	74.539
2.6012	74.630
2.5999	74.640
2.5986	74.559
2.5973	74.411
2.5960	74.258
2.5947	74.188
2.5934	74.260
2.5921	74.409
2.5908	74.540
2.5895	74.612
2.5882	74.606
2.5869	74.539
2.5856	74.463
2.5843	74.420
2.5830	74.446
2.5817	74.515
2.5805	74.576
2.5792	74.614
2.5779	74.618
2.5766	74.600
2.5753	74.575
2.5741	74.551
2.5728	74.549
2.5715	74.573
2.5702	74.598
2.5690	74.618
2.5677	74.621
2.5664	74.595
2.5651	74.545
2.5639	74.483
2.5626	74.436
2.5613	74.420
2.5601	74.433
2.5588	74.464
2.5575	74.494
2.5563	74.503
2.5550	74.482
2.5538	74.435
2.5525	74.377
2.5513	74.331
2.5500	74.298
2.5487	74.271
2.5475	74.244
2.5462	74.209
2.5450	74.164
2.5437	74.101
2.5425	74.031
2.5413	73.971
2.5400	73.924
2.5388	73.892
2.5375	73.871
2.5363	73.868
2.5350	73.885
2.5338	73.908
2.5326	73.937
2.5313	73.977
2.5301	74.021
2.5289	74.063
2.5276	74.097
2.5264	74.132
2.5252	74.168
2.5239	74.194
2.5227	74.216
2.5215	74.234
2.5202	74.247
2.5190	74.253
2.5178	74.248
2.5166	74.244
2.5154	74.248
2.5141	74.262
2.5129	74.286
2.5117	74.313
2.5105	74.337
2.5093	74.347
2.5081	74.333
2.5068	74.304
2.5056	74.279
2.5044	74.266
2.5032	74.268
2.5020	74.290
2.5008	74.331
2.4996	74.376
2.4984	74.409
2.4972	74.425
2.4960	74.427
2.4948	74.416
2.4936	74.396
2.4924	74.384
2.4912	74.390
2.4900	74.411
2.4888	74.443
2.4876	74.477
2.4864	74.503
2.4852	74.511
2.4840	74.497
2.4828	74.468
2.4816	74.437
2.4805	74.406
2.4793	74.379
2.4781	74.354
2.4769	74.332
2.4757	74.315
2.4745	74.300
2.4734	74.292
2.4722	74.291
2.4710	74.297
2.4698	74.300
2.4686	74.295
2.4675	74.280
2.4663	74.255
2.4651	74.217
2.4640	74.170
2.4628	74.120
2.4616	74.071
2.4604	74.024
2.4593	73.980
2.4581	73.938
2.4569	73.896
2.4558	73.857
2.4546	73.822
2.4535	73.790
2.4523	73.760
2.4511	73.733
2.4500	73.704
2.4488	73.672
2.4477	73.642
2.4465	73.621
2.4454	73.608
2.4442	73.601
2.4431	73.598
2.4419	73.602
2.4408	73.612
2.4396	73.629
2.4385	73.654
2.4373	73.681
2.4362	73.707
2.4350	73.731
2.4339	73.755
2.4327	73.783
2.4316	73.820
2.4305	73.861
2.4293	73.900
2.4282	73.930
2.4270	73.942
2.4259	73.939
2.4248	73.924
2.4236	73.902
2.4225	73.879
2.4214	73.849
2.4202	73.809
2.4191	73.756
2.4180	73.689
2.4169	73.615
2.4157	73.536
2.4146	73.454
2.4135	73.369
2.4124	73.280
2.4112	73.185
2.4101	73.097
2.4090	73.021
2.4079	72.957
2.4068	72.891
2.4056	72.820
2.4045	72.738
2.4034	72.640
2.4023	72.527
2.4012	72.412
2.4001	72.297
2.3990	72.175
2.3979	72.042
2.3967	71.903
2.3956	71.767
2.3945	71.643
2.3934	71.535
2.3923	71.450
2.3912	71.379
2.3901	71.312
2.3890	71.244
2.3879	71.175
2.3868	71.112
2.3857	71.064
2.3846	71.039
2.3835	71.039
2.3824	71.066
2.3813	71.119
2.3802	71.199
2.3791	71.304
2.3781	71.426
2.3770	71.562
2.3759	71.706
2.3748	71.842
2.3737	71.966
2.3726	72.079
2.3715	72.191
2.3704	72.305
2.3694	72.426
2.3683	72.554
2.3672	72.684
2.3661	72.793
2.3650	72.872
2.3640	72.919
2.3629	72.926
2.3618	72.895
2.3607	72.843
2.3597	72.781
2.3586	72.719
2.3575	72.657
2.3564	72.594
2.3554	72.518
2.3543	72.407
2.3532	72.262
2.3522	72.097
2.3511	71.917
2.3500	71.735
2.3490	71.561
2.3479	71.399
2.3468	71.249
2.3458	71.105
2.3447	70.977
2.3436	70.866
2.3426	70.753
2.3415	70.627
2.3405	70.481
2.3394	70.321
2.3384	70.159
2.3373	70.004
2.3363	69.873
2.3352	69.777
2.3342	69.704
2.3331	69.643
2.3321	69.587
2.3310	69.549
2.3300	69.529
2.3289	69.522
2.3279	69.545
2.3268	69.608
2.3258	69.704
2.3247	69.825
2.3237	69.971
2.3226	70.149
2.3216	70.348
2.3206	70.554
2.3195	70.774
2.3185	71.003
2.3175	71.231
2.3164	71.452
2.3154	71.670
2.3144	71.896
2.3133	72.130
2.3123	72.373
2.3113	72.626
2.3102	72.881
2.3092	73.125
2.3082	73.350
2.3071	73.554
2.3061	73.746
2.3051	73.930
2.3041	74.117
2.3030	74.309
2.3020	74.493
2.3010	74.661
2.3000	74.802
2.2990	74.916
2.2979	75.017
2.2969	75.108
2.2959	75.206
2.2949	75.316
2.2939	75.431
2.2929	75.549
2.2918	75.670
2.2908	75.792
2.2898	75.919
2.2888	76.045
2.2878	76.169
2.2868	76.289
2.2858	76.399
2.2848	76.502
2.2838	76.601
2.2828	76.699
2.2818	76.800
2.2808	76.901
2.2798	76.992
2.2787	77.067
2.2777	77.124
2.2767	77.160
2.2757	77.178
2.2747	77.185
2.2738	77.185
2.2728	77.174
2.2718	77.155
2.2708	77.137
2.2698	77.118
2.2688	77.095
2.2678	77.068
2.2668	77.030
2.2658	76.969
2.2648	76.880
2.2638	76.766
2.2628	76.634
2.2618	76.476
2.2609	76.297
2.2599	76.109
2.2589	75.914
2.2579	75.718
2.2569	75.529
2.2559	75.351
2.2550	75.174
2.2540	74.991
2.2530	74.807
2.2520	74.631
2.2510	74.475
2.2501	74.358
2.2491	74.300
2.2481	74.308
2.2471	74.377
2.2462	74.503
2.2452	74.682
2.2442	74.902
2.2433	75.156
2.2423	75.439
2.2413	75.752
2.2403	76.079
2.2394	76.412
2.2384	76.748
2.2374	77.082
2.2365	77.402
2.2355	77.702
2.2345	77.984
2.2336	78.243
2.2326	78.472
2.2317	78.671
2.2307	78.844
2.2297	79.003
2.2288	79.150
2.2278	79.288
2.2269	79.412
2.2259	79.517
2.2250	79.589
2.2240	79.629
2.2231	79.649
2.2221	79.674
2.2211	79.725
2.2202	79.800
2.2192	79.882
2.2183	79.959
2.2173	80.011
2.2164	80.030
2.2155	80.025
2.2145	80.026
2.2136	80.050
2.2126	80.093
2.2117	80.146
2.2107	80.202
2.2098	80.238
2.2088	80.239
2.2079	80.216
2.2070	80.191
2.2060	80.177
2.2051	80.170
2.2041	80.172
2.2032	80.186
2.2023	80.200
2.2013	80.214
2.2004	80.225
2.1995	80.232
2.1985	80.236
2.1976	80.227
2.1967	80.207
2.1957	80.190
2.1948	80.189
2.1939	80.212
2.1930	80.241
2.1920	80.266
2.1911	80.284
2.1902	80.288
2.1893	80.280
2.1883	80.270
2.1874	80.272
2.1865	80.285
2.1856	80.298
2.1846	80.304
2.1837	80.304
2.1828	80.306
2.1819	80.307
2.1810	80.303
2.1800	80.298
2.1791	80.291
2.1782	80.281
2.1773	80.263
2.1764	80.246
2.1755	80.241
2.1746	80.243
2.1736	80.245
2.1727	80.254
2.1718	80.283
2.1709	80.312
2.1700	80.322
2.1691	80.316
2.1682	80.303
2.1673	80.274
2.1664	80.232
2.1655	80.203
2.1646	80.202
2.1637	80.208
2.1628	80.217
2.1619	80.231
2.1610	80.243
2.1601	80.243
2.1592	80.232
2.1583	80.227
2.1574	80.225
2.1565	80.226
2.1556	80.229
2.1547	80.220
2.1538	80.196
2.1529	80.161
2.1520	80.130
2.1511	80.104
2.1502	80.083
2.1493	80.079
2.1484	80.084
2.1475	80.085
2.1466	80.084
2.1458	80.085
2.1449	80.096
2.1440	80.110
2.1431	80.122
2.1422	80.136
2.1413	80.145
2.1404	80.143
2.1396	80.133
2.1387	80.116
2.1378	80.101
2.1369	80.101
2.1360	80.103
2.1352	80.097
2.1343	80.080
2.1334	80.048
2.1325	80.009
2.1316	79.966
2.1308	79.933
2.1299	79.917
2.1290	79.908
2.1281	79.903
2.1273	79.904
2.1264	79.911
2.1255	79.926
2.1247	79.934
2.1238	79.927
2.1229	79.904
2.1220	79.876
2.1212	79.851
2.1203	79.828
2.1194	79.815
2.1186	79.808
2.1177	79.798
2.1168	79.784
2.1160	79.779
2.1151	79.780
2.1143	79.776
2.1134	79.757
2.1125	79.723
2.1117	79.684
2.1108	79.653
2.1100	79.645
2.1091	79.652
2.1082	79.653
2.1074	79.645
2.1065	79.634
2.1057	79.622
2.1048	79.613
2.1040	79.627
2.1031	79.655
2.1023	79.670
2.1014	79.655
2.1005	79.621
2.0997	79.585
2.0988	79.559
2.0980	79.556
2.0971	79.592
2.0963	79.663
2.0955	79.751
2.0946	79.826
2.0938	79.870
2.0929	79.882
2.0921	79.878
2.0912	79.855
2.0904	79.820
2.0895	79.796
2.0887	79.786
2.0879	79.784
2.0870	79.794
2.0862	79.831
2.0853	79.892
2.0845	79.966
2.0837	79.997
2.0828	79.991
2.0820	80.003
2.0812	79.817
2.0803	79.805
2.0795	79.801
2.0760	79.801
2.0720	79.896
2.0680	79.924
2.0640	80.019
2.0600	79.951
2.0560	80.019
2.0520	80.141
2.0480	79.751
2.0440	79.496
2.0400	79.147
2.0360	79.137
2.0320	78.903
2.0280	78.708
2.0240	78.773
2.0200	78.810
2.0160	78.744
2.0120	78.270
2.0080	78.048
2.0040	78.013
2.0000	77.949
1.9960	77.757
1.9920	77.821
1.9880	77.601
1.9840	77.416
1.9800	76.920
1.9760	76.364
1.9720	76.210
1.9680	76.056
1.9640	76.025
1.9600	76.210
1.9560	76.272
1.9520	76.302
1.9480	76.240
1.9440	76.148
1.9400	76.026
1.9360	75.905
1.9320	75.775
1.9280	75.628
1.9240	75.348
1.9200	75.068
1.9160	74.913
1.9120	74.634
1.9080	74.540
1.9040	74.386
1.9000	74.738
1.8960	75.049
1.8920	75.747
1.8880	75.665
1.8840	75.695
1.8800	76.322
1.8760	76.756
1.8720	76.954
1.8680	76.524
1.8640	75.967
1.8600	75.780
1.8560	75.687
1.8520	76.200
1.8480	76.541
1.8440	76.122
1.8400	76.095
1.8360	75.912
1.8320	76.033
1.8280	75.574
1.8240	75.363
1.8200	75.125
1.8160	75.245
1.8120	74.709
1.8080	74.650
1.8040	74.827
1.8000	74.737
1.7960	74.175
1.7920	74.292
1.7880	74.350
1.7840	74.081
1.7800	74.288
1.7760	74.261
1.7720	74.054
1.7680	73.718
1.7640	73.361
1.7600	73.192
1.7560	73.134
1.7520	73.051
1.7480	72.937
1.7440	73.287
1.7400	72.956
1.7360	73.385
1.7320	73.380
1.7280	73.406
1.7240	73.406
1.7200	73.560
1.7160	73.539
1.7120	73.507
1.7080	73.490
1.7040	73.128
1.7000	72.227
1.6960	73.022
1.6920	72.227
1.6880	72.072
1.6840	71.591
1.6800	72.209
1.6760	71.997
1.6720	71.470
1.6680	71.090
1.6640	71.146
1.6600	71.291
1.6560	70.912
1.6520	70.635
1.6480	70.712
1.6440	71.213
1.6400	70.810
1.6360	70.631
1.6320	70.439
1.6280	70.328
1.6240	70.039
1.6200	69.930
1.6160	69.712
1.6120	69.746
1.6080	70.074
1.6040	69.721
1.6000	69.506
1.5960	69.343
1.5920	69.506
1.5880	69.452
1.5840	69.327
1.5800	69.004
1.5760	68.464
1.5720	68.626
1.5680	68.591
1.5640	68.486
1.5600	68.221
1.5560	67.851
1.5520	68.060
1.5480	67.381
1.5440	66.795
1.5400	66.538
1.5360	67.181
1.5320	67.338
1.5280	67.391
1.5240	66.876
1.5200	66.669
1.5160	66.477
1.5120	66.364
1.5080	66.561
1.5040	66.423
1.5000	66.219
1.4960	65.868
1.4920	65.723
1.4880	65.608
1.4840	65.506
1.4800	65.304
1.4760	65.114
1.4720	64.975
1.4680	65.492
1.4640	65.516
1.4600	64.594
1.4560	64.454
1.4520	63.857
1.4480	63.441
1.4440	63.458
1.4400	63.354
1.4360	63.362
1.4320	63.371
1.4280	63.182
1.4240	62.855
1.4200	62.717
1.4160	62.537
1.4120	62.239
1.4080	62.117
1.4040	61.723
1.4000	61.093
1.3960	60.867
1.3920	59.950
1.3880	59.219
1.3840	59.173
1.3800	59.546
1.3760	59.413
1.3720	59.001
1.3680	59.133
1.3640	59.543
1.3600	59.828
1.3560	59.552
1.3520	59.584
1.3480	59.415
1.3440	59.414
1.3400	59.012
1.3360	58.747
1.3320	58.390
1.3280	58.122
1.3240	57.997
1.3200	57.763
1.3160	57.461
1.3120	57.328
1.3080	57.150
1.3040	56.885
1.3000	56.796
1.2960	56.528
1.2920	56.389
1.2880	56.116
1.2840	55.880
1.2800	55.727
1.2760	55.438
1.2720	55.256
1.2680	55.475
1.2640	55.477
1.2600	55.203
1.2560	54.936
1.2520	54.845
1.2480	54.621
1.2440	54.100
1.2400	53.746
1.2360	53.605
1.2320	53.555
1.2280	53.719
1.2240	53.374
1.2200	53.061
1.2160	52.779
1.2120	52.568
1.2080	52.139
1.2040	52.139
1.2000	52.048
1.1960	51.838
1.1920	51.721
1.1880	51.341
1.1840	51.123
1.1800	51.085
1.1760	50.882
1.1720	50.807
1.1680	50.628
1.1640	50.280
1.1600	50.293
1.1560	50.120
1.1520	49.827
1.1480	50.367
1.1440	50.132
1.1400	49.988
1.1360	49.794
1.1320	49.322
1.1280	49.268
1.1240	49.650
1.1200	49.386
1.1160	49.242
1.1120	49.371
1.1080	49.061
1.1040	48.915
1.1000	48.798
1.0960	49.115
1.0920	48.897
1.0880	49.006
1.0840	49.408
1.0800	48.824
1.0760	48.752
1.0720	48.345
1.0680	48.142
1.0640	48.366
1.0600	48.419
1.0560	48.225
1.0520	48.155
1.0480	47.990
1.0440	48.168
1.0400	48.706
1.0360	48.887
1.0320	48.705
1.0280	48.381
1.0240	48.633
1.0200	48.633
1.0160	48.579
1.0120	48.058
1.0080	48.381
1.0040	48.452
1.0000	48.093
0.99600	48.085
0.99200	48.263
0.98800	48.331
0.98400	47.979
0.98000	47.924
0.97600	47.724
0.97200	47.532
0.96800	47.488
0.96400	47.357
0.96000	47.398
0.95600	47.252
0.95200	47.058
0.94800	47.058
0.94400	47.058
0.94000	46.989
0.93600	46.741
0.93200	46.775
0.92800	46.481
0.92400	46.416
0.92000	46.302
0.91600	46.259
0.91200	46.136
0.90800	46.114
0.90400	46.047
0.90000	45.846
0.89600	45.812
0.89200	45.544
0.88800	45.577
0.88400	45.464
0.88000	45.455
0.87600	45.375
0.87200	45.428
0.86800	45.271
0.86400	45.280
0.86000	45.420
0.85600	44.993
0.85200	44.935
0.84800	45.167
0.84400	45.035
0.84000	44.944
0.83600	45.110
0.83200	44.844
0.82800	44.630
0.82400	44.803
0.82000	45.092
0.81600	44.804
0.81200	44.461
0.80800	44.976
0.80400	44.911
0.80000	44.902
0.79900	45.448
0.79800	45.448
0.79700	45.215
0.79600	45.195
0.79500	45.000
0.79400	45.056
0.79300	45.215
0.79200	45.254
0.79100	45.310
0.79000	45.289
0.78900	44.767
0.78800	44.692
0.78700	44.826
0.78600	44.713
0.78500	44.767
0.78400	44.959
0.78300	44.862
0.78200	44.482
0.78100	44.673
0.78000	45.056
0.77900	45.074
0.77800	44.900
0.77700	44.824
0.77600	44.616
0.77500	44.635
0.77400	44.538
0.77300	44.538
0.77200	44.594
0.77100	44.501
0.77000	44.296
0.76900	44.411
0.76800	44.594
0.76700	44.529
0.76600	44.432
0.76500	44.051
0.76400	44.373
0.76300	44.395
0.76200	44.322
0.76100	44.680
0.76000	44.379
0.75900	44.074
0.75800	43.784
0.75700	43.977
0.75600	43.932
0.75500	43.983
0.75400	44.308
0.75300	43.724
0.75200	43.858
0.75100	43.761
0.75000	43.591
0.74900	43.641
0.74800	43.738
0.74700	43.641
0.74600	43.567
0.74500	43.738
0.74400	43.985
0.74300	43.421
0.74200	43.464
0.74100	43.968
0.74000	44.166
0.73900	43.789
0.73800	43.497
0.73700	43.156
0.73600	43.138
0.73500	43.156
0.73400	43.205
0.73300	43.455
0.73200	43.623
0.73100	43.498
0.73000	43.295
0.72900	43.321
0.72800	43.236
0.72700	43.200
0.72600	43.310
0.72500	43.505
0.72400	43.163
0.72300	43.066
0.72200	42.663
0.72100	43.005
0.72000	43.095
0.71900	43.116
0.71800	42.956
0.71700	43.507
0.71600	43.554
0.71500	43.234
0.71400	43.234
0.71300	43.017
0.71200	43.342
0.71100	43.027
0.71000	43.175
0.70900	43.260
0.70800	43.335
0.70700	43.112
0.70600	42.991
0.70500	43.027
0.70400	43.138
0.70300	43.123
0.70200	43.123
0.70100	42.736
0.70000	42.819
0.69900	43.251
0.69800	43.105
0.69700	43.369
0.69600	43.117
0.69500	43.192
0.69400	43.493
0.69300	43.255
0.69200	43.341
0.69100	43.493
0.69000	43.355
0.68900	43.670
0.68800	43.593
0.68700	43.593
0.68600	43.293
0.68500	43.670
0.68400	43.493
0.68300	43.493
0.68200	43.555
0.68100	43.255
0.68000	43.269
0.67900	43.407
0.67800	43.369
0.67700	43.192
0.67600	43.293
0.67500	43.508
0.67400	43.508
0.67300	43.608
0.67200	43.355
0.67100	43.584
0.67000	43.848
0.66900	43.786
0.66800	43.746
0.66700	43.445
0.66600	43.508
0.66500	43.569
0.66400	43.255
0.66300	43.217
0.66200	43.560
0.66100	43.862
0.66000	43.886
0.65900	43.678
0.65800	43.678
0.65700	43.599
0.65600	43.508
0.65500	43.546
0.65400	43.770
0.65300	44.094
0.65200	43.793
0.65100	43.616
0.65000	43.540
0.64900	43.029
0.64800	43.128
0.64700	43.746
0.64600	44.183
0.64500	44.081
0.64400	44.284
0.64300	44.206
0.64200	44.010
0.64100	43.870
0.64000	44.245
0.63900	44.370
0.63800	43.848
0.63700	43.655
0.63600	43.441
0.63500	43.655
0.63400	43.793
0.63300	43.755
0.63200	43.517
0.63100	43.809
0.63000	43.793
0.62900	43.317
0.62800	43.179
0.62700	43.479
0.62600	43.816
0.62500	43.910
0.62400	43.770
0.62300	43.655
0.62200	43.778
0.62100	44.038
0.62000	43.948
0.61900	43.919
0.61800	44.116
0.61700	43.997
0.61600	44.082
0.61500	43.802
0.61400	43.647
0.61300	43.493
0.61200	43.802
0.61100	43.678
0.61000	43.639
0.60900	43.600
0.60800	43.561
0.60700	43.561
0.60600	43.536
0.60500	43.599
0.60400	43.498
0.60300	43.577
0.60200	43.389
0.60100	43.377
0.60000	43.406
0.59900	43.215
0.59800	43.548
0.59700	43.848
0.59600	43.554
0.59500	43.306
0.59400	43.318
0.59300	43.529
0.59200	43.350
0.59100	43.621
0.59000	43.514
0.58900	43.399
0.58800	43.661
0.58700	43.581
0.58600	43.454
0.58500	43.440
0.58400	42.932
0.58300	43.012
0.58200	43.215
0.58100	43.073
0.58000	43.090
0.57900	43.168
0.57800	43.336
0.57700	43.282
0.57600	43.385
0.57500	43.424
0.57400	43.551
0.57300	43.416
0.57200	43.071
0.57100	43.123
0.57000	42.970
0.56900	42.628
0.56800	42.730
0.56700	42.779
0.56600	42.920
0.56500	42.780
0.56400	42.704
0.56300	42.958
0.56200	42.819
0.56100	42.819
0.56000	42.874
0.55900	42.512
0.55800	42.512
0.55700	42.934
0.55600	42.767
0.55500	42.698
0.55400	42.767
0.55300	42.865
0.55200	42.872
0.55100	42.778
0.55000	42.387
0.54900	42.795
0.54800	42.485
0.54700	42.550
0.54600	42.625
0.54500	42.394
0.54400	42.355
0.54300	42.464
0.54200	42.499
0.54100	42.298
0.54000	42.198
0.53900	42.139
0.53800	42.277
0.53700	41.969
0.53600	41.969
0.53500	42.035
0.53400	42.306
0.53300	41.959
0.53200	41.721
0.53100	41.587
0.53000	41.556
0.52900	41.526
0.52800	41.729
0.52700	41.293
0.52600	41.193
0.52500	41.193
0.52400	41.260
0.52300	41.059
0.52200	40.993
0.52100	40.959
0.52000	40.958
0.51900	40.722
0.51800	40.724
0.51700	40.656
0.51600	40.422
0.51500	40.320
0.51400	39.919
0.51300	40.153
0.51200	39.659
0.51100	39.727
0.51000	39.855
0.50900	39.891
0.50800	39.650
0.50700	39.741
0.50600	39.607
0.50500	39.511
0.50400	39.575
0.50300	39.634
0.50200	39.608
0.50100	39.738
0.50000	39.668
0.49900	39.247
0.49800	39.007
0.49700	39.039
0.49600	38.612
0.49500	38.806
0.49400	38.643
0.49300	38.736
0.49200	38.689
0.49100	38.845
0.49000	38.588
0.48900	38.586
0.48800	38.413
0.48700	38.230
0.48600	38.088
0.48500	37.872
0.48400	37.875
0.48300	37.864
0.48200	37.714
0.48100	37.714
0.48000	37.368
0.47900	37.325
0.47800	37.208
0.47700	37.191
0.47600	37.309
0.47500	37.046
0.47400	37.222
0.47300	37.059
0.47200	37.001
0.47100	36.812
0.47000	36.711
0.46900	36.511
0.46800	36.479
0.46700	36.466
0.46600	36.190
0.46500	36.438
0.46400	36.404
0.46300	36.331
0.46200	36.416
0.46100	36.273
0.46000	35.829
0.45900	37.195
0.45800	37.268
0.45700	37.047
0.45600	37.311
0.45500	37.018
0.45400	37.089
0.45300	37.079
0.45200	36.884
0.45100	36.770
0.45000	36.810
0.44900	36.793
0.44800	36.601
0.44700	36.630
0.44600	36.590
0.44500	36.379
0.44400	36.279
0.44300	35.854
0.44200	35.959
0.44100	36.255
0.44000	35.936
0.43900	36.095
0.43800	36.205
0.43700	35.964
0.43600	36.073
0.43500	36.024
0.43400	35.915
0.43300	35.360
0.43200	35.282
0.43100	35.362
0.43000	35.416
0.42900	35.280
0.42800	35.200
0.42700	35.016
0.42600	35.147
0.42500	34.771
0.42400	34.613
0.42300	34.858
0.42200	34.582
0.42100	34.415
0.42000	34.495
0.41900	34.254
0.41800	34.470
0.41700	34.147
0.41600	33.931
0.41500	34.227
0.41400	34.116
0.41300	33.696
0.41200	33.595
0.41100	33.686
0.41000	33.365
0.40900	33.758
0.40800	33.619
0.40700	33.537
0.40600	33.366
0.40500	33.213
0.40400	33.390
0.40300	33.177
0.40200	32.988
0.40100	32.838
0.40000	32.952
