Name: Chloritic Gneiss  
Type:  Rocks
Class: Metamorphic 
Subclass: Gneiss 
Particle Size:  0 - 75 Micrometers
Sample No.:  Gneiss1.doc
Owner:  JHU
Wavelength Range:  All
Origin:  Sample No. 380, The Hunt and Salisbury Collection at the U.S. 
Geological Survey, Denver, Co.
Description: This is a greenish rock containing only 20% quartz, 35% albite, a 
mixture of chlorite and muscovite (40%) and 5% rutile.




Measurement:  Directional (10 Degree) Hemispherical Reflectance
First Column:  X
Second Column:  Y  
X Units:  Wavelength (micrometers)
Y Units:  Reflectance (percent)
First X Value: 14.9831
Last X Value:  0.4
Number of X Values: 2868
Additional Information:  None 

14.983	3.7450
14.940	3.9712
14.897	4.1836
14.854	4.4986
14.812	4.7950
14.770	5.0420
14.728	5.2668
14.686	5.3947
14.645	5.3123
14.603	5.0477
14.562	4.7614
14.521	4.4678
14.481	4.0964
14.441	3.7059
14.400	3.4604
14.361	3.4097
14.321	3.5188
14.281	3.7924
14.242	4.2243
14.203	4.6683
14.164	5.0008
14.126	5.1690
14.087	5.1998
14.049	5.1181
14.011	4.9116
13.973	4.6338
13.936	4.3252
13.899	3.9885
13.861	3.6953
13.824	3.4975
13.788	3.4142
13.751	3.4589
13.715	3.5949
13.679	3.7779
13.643	3.9307
13.607	3.9802
13.571	3.9212
13.536	3.7779
13.500	3.5840
13.465	3.3917
13.430	3.2491
13.396	3.1890
13.361	3.2053
13.327	3.2576
13.293	3.2958
13.259	3.2934
13.225	3.2337
13.191	3.1236
13.158	3.0142
13.124	2.9564
13.091	2.9623
13.058	3.0272
13.026	3.1215
12.993	3.2122
12.960	3.2730
12.928	3.2870
12.896	3.2508
12.864	3.1729
12.832	3.0518
12.800	2.8835
12.769	2.6753
12.737	2.4619
12.706	2.2952
12.675	2.2071
12.644	2.2045
12.614	2.2779
12.583	2.4042
12.552	2.5477
12.522	2.6815
12.492	2.8046
12.462	2.9365
12.432	3.0890
12.402	3.2790
12.373	3.5091
12.343	3.7815
12.314	4.0948
12.285	4.4450
12.256	4.8270
12.227	5.2204
12.198	5.6080
12.169	5.9832
12.141	6.3393
12.113	6.6784
12.084	7.0138
12.056	7.3572
12.028	7.7207
12.000	8.0880
11.973	8.4531
11.945	8.8119
11.918	9.1546
11.890	9.4648
11.863	9.7440
11.836	9.9939
11.809	10.221
11.782	10.429
11.755	10.614
11.729	10.770
11.702	10.883
11.676	10.941
11.650	10.954
11.624	10.928
11.598	10.878
11.572	10.821
11.546	10.752
11.520	10.673
11.495	10.586
11.469	10.490
11.444	10.392
11.419	10.287
11.394	10.181
11.369	10.060
11.344	9.9122
11.319	9.7372
11.294	9.5475
11.270	9.3391
11.245	9.1127
11.221	8.8773
11.197	8.6419
11.173	8.4008
11.149	8.1600
11.125	7.9305
11.101	7.7301
11.077	7.5568
11.054	7.4159
11.030	7.3093
11.007	7.2335
10.983	7.1838
10.960	7.1525
10.937	7.1334
10.914	7.1187
10.891	7.0919
10.868	7.0566
10.846	7.0064
10.823	6.9356
10.800	6.8463
10.778	6.7431
10.755	6.6306
10.733	6.5072
10.711	6.3786
10.689	6.2567
10.667	6.1413
10.645	6.0277
10.623	5.9147
10.602	5.8041
10.580	5.6907
10.558	5.5666
10.537	5.4337
10.516	5.2912
10.494	5.1306
10.473	4.9620
10.452	4.7998
10.431	4.6518
10.410	4.5113
10.389	4.3792
10.368	4.2572
10.348	4.1474
10.327	4.0446
10.306	3.9617
10.286	3.9058
10.266	3.8762
10.245	3.8625
10.225	3.8603
10.205	3.8670
10.185	3.8802
10.165	3.8909
10.145	3.8982
10.125	3.9004
10.106	3.9011
10.086	3.8989
10.066	3.8930
10.047	3.8843
10.027	3.8703
10.008	3.8499
9.9887	3.8336
9.9695	3.8198
9.9504	3.8073
9.9313	3.7909
9.9123	3.7590
9.8934	3.7012
9.8746	3.6103
9.8558	3.4987
9.8371	3.3959
9.8185	3.3239
9.7999	3.3000
9.7814	3.3183
9.7630	3.3742
9.7447	3.4663
9.7264	3.5728
9.7082	3.6768
9.6900	3.7675
9.6719	3.8400
9.6539	3.8833
9.6360	3.8831
9.6181	3.8570
9.6003	3.8213
9.5825	3.7682
9.5649	3.6957
9.5472	3.6202
9.5297	3.5501
9.5122	3.4926
9.4948	3.4476
9.4774	3.4310
9.4601	3.4604
9.4429	3.5222
9.4257	3.6062
9.4086	3.7313
9.3916	3.8826
9.3746	4.0429
9.3577	4.1900
9.3408	4.3148
9.3240	4.4223
9.3073	4.5035
9.2906	4.5563
9.2740	4.5980
9.2574	4.6316
9.2409	4.6549
9.2245	4.6598
9.2081	4.6428
9.1918	4.6089
9.1755	4.5625
9.1593	4.5038
9.1431	4.4360
9.1270	4.3666
9.1110	4.2984
9.0950	4.2364
9.0791	4.1902
9.0632	4.1699
9.0474	4.1715
9.0316	4.1815
9.0159	4.1971
9.0003	4.2151
8.9847	4.2288
8.9691	4.2392
8.9536	4.2492
8.9382	4.2677
8.9228	4.2939
8.9075	4.3150
8.8922	4.3288
8.8770	4.3361
8.8618	4.3325
8.8467	4.3124
8.8316	4.2823
8.8166	4.2430
8.8016	4.2030
8.7867	4.1713
8.7718	4.1464
8.7570	4.1329
8.7422	4.1258
8.7275	4.1206
8.7129	4.1076
8.6982	4.0664
8.6837	3.9930
8.6692	3.9006
8.6547	3.8028
8.6403	3.7296
8.6259	3.7076
8.6116	3.7433
8.5973	3.8250
8.5830	3.9340
8.5688	4.0413
8.5547	4.1211
8.5406	4.1755
8.5266	4.2108
8.5126	4.2328
8.4986	4.2506
8.4847	4.2724
8.4708	4.3029
8.4570	4.3477
8.4432	4.4012
8.4295	4.4633
8.4158	4.5239
8.4022	4.5817
8.3886	4.6387
8.3750	4.6899
8.3615	4.7347
8.3481	4.7860
8.3347	4.8443
8.3213	4.9097
8.3079	4.9862
8.2946	5.0766
8.2814	5.1787
8.2682	5.2898
8.2550	5.4072
8.2419	5.5287
8.2288	5.6516
8.2158	5.7679
8.2028	5.8605
8.1898	5.9123
8.1769	5.9202
8.1640	5.8707
8.1512	5.7631
8.1384	5.6147
8.1256	5.4385
8.1129	5.2452
8.1002	5.0456
8.0876	4.8490
8.0750	4.6657
8.0624	4.4905
8.0499	4.3314
8.0374	4.1902
8.0250	4.0531
8.0126	3.9146
8.0002	3.7767
7.9879	3.6373
7.9756	3.4911
7.9634	3.3393
7.9512	3.1925
7.9390	3.0500
7.9268	2.9053
7.9147	2.7625
7.9027	2.6317
7.8906	2.5102
7.8786	2.3956
7.8667	2.2933
7.8548	2.2043
7.8429	2.1297
7.8310	2.0634
7.8192	2.0122
7.8075	1.9765
7.7957	1.9516
7.7840	1.9390
7.7723	1.9364
7.7607	1.9327
7.7491	1.9284
7.7375	1.9184
7.7260	1.9066
7.7145	1.8964
7.7031	1.8922
7.6916	1.8893
7.6802	1.8903
7.6689	1.8879
7.6575	1.8839
7.6462	1.8817
7.6350	1.8836
7.6238	1.8933
7.6126	1.9156
7.6014	1.9388
7.5903	1.9717
7.5792	2.0139
7.5681	2.0594
7.5571	2.1119
7.5461	2.1692
7.5351	2.2206
7.5242	2.2732
7.5133	2.3248
7.5024	2.3791
7.4916	2.4342
7.4807	2.4877
7.4700	2.5441
7.4592	2.6028
7.4485	2.6557
7.4378	2.7149
7.4272	2.7826
7.4165	2.8487
7.4059	2.9171
7.3954	2.9952
7.3848	3.0779
7.3743	3.1584
7.3639	3.2368
7.3534	3.3204
7.3430	3.4028
7.3326	3.4850
7.3222	3.5830
7.3119	3.6931
7.3016	3.8104
7.2914	3.9375
7.2811	4.0744
7.2709	4.2201
7.2607	4.3688
7.2506	4.5246
7.2404	4.6821
7.2303	4.8384
7.2203	4.9935
7.2102	5.1436
7.2002	5.2886
7.1902	5.4342
7.1803	5.5865
7.1703	5.7489
7.1604	5.9228
7.1506	6.1177
7.1407	6.3263
7.1309	6.5390
7.1211	6.7445
7.1113	6.9385
7.1016	7.1147
7.0919	7.2705
7.0822	7.4083
7.0725	7.5345
7.0629	7.6615
7.0533	7.7948
7.0437	7.9333
7.0341	8.0825
7.0246	8.2291
7.0151	8.3710
7.0056	8.5090
6.9962	8.6348
6.9867	8.7461
6.9773	8.8588
6.9679	8.9898
6.9586	9.1409
6.9493	9.3028
6.9400	9.4745
6.9307	9.6453
6.9214	9.8032
6.9122	9.9463
6.9030	10.083
6.8938	10.195
6.8847	10.276
6.8755	10.342
6.8664	10.409
6.8573	10.471
6.8483	10.535
6.8393	10.613
6.8302	10.694
6.8213	10.748
6.8123	10.769
6.8034	10.773
6.7944	10.769
6.7855	10.751
6.7767	10.718
6.7678	10.687
6.7590	10.669
6.7502	10.664
6.7414	10.665
6.7327	10.676
6.7239	10.715
6.7152	10.780
6.7065	10.862
6.6979	10.974
6.6892	11.120
6.6806	11.302
6.6720	11.479
6.6634	11.611
6.6549	11.710
6.6464	11.782
6.6378	11.825
6.6294	11.858
6.6209	11.894
6.6124	11.949
6.6040	11.997
6.5956	12.007
6.5872	12.011
6.5789	12.022
6.5705	12.047
6.5622	12.102
6.5539	12.200
6.5456	12.364
6.5374	12.612
6.5292	12.944
6.5209	13.327
6.5128	13.729
6.5046	14.152
6.4964	14.586
6.4883	15.014
6.4802	15.426
6.4721	15.828
6.4640	16.205
6.4560	16.519
6.4480	16.763
6.4399	16.921
6.4320	17.002
6.4240	17.050
6.4160	17.063
6.4081	17.038
6.4002	16.971
6.3923	16.854
6.3844	16.698
6.3766	16.477
6.3687	16.204
6.3609	15.934
6.3531	15.679
6.3454	15.426
6.3376	15.166
6.3299	14.895
6.3221	14.623
6.3144	14.344
6.3068	14.050
6.2991	13.760
6.2914	13.483
6.2838	13.209
6.2762	12.936
6.2686	12.667
6.2611	12.404
6.2535	12.161
6.2460	11.951
6.2385	11.778
6.2310	11.637
6.2235	11.535
6.2160	11.473
6.2086	11.442
6.2011	11.460
6.1937	11.556
6.1863	11.741
6.1790	12.013
6.1716	12.363
6.1643	12.788
6.1570	13.270
6.1496	13.761
6.1424	14.243
6.1351	14.693
6.1278	15.100
6.1206	15.468
6.1134	15.802
6.1062	16.113
6.0990	16.389
6.0918	16.617
6.0847	16.811
6.0776	16.941
6.0704	16.977
6.0633	16.971
6.0563	16.976
6.0492	17.004
6.0421	17.044
6.0351	17.095
6.0281	17.169
6.0211	17.220
6.0141	17.197
6.0071	17.133
6.0002	17.059
5.9932	16.953
5.9863	16.810
5.9794	16.649
5.9725	16.486
5.9657	16.333
5.9588	16.160
5.9520	15.994
5.9451	15.881
5.9383	15.827
5.9315	15.854
5.9247	15.983
5.9180	16.167
5.9112	16.401
5.9045	16.643
5.8978	16.888
5.8911	17.169
5.8844	17.472
5.8777	17.799
5.8711	18.140
5.8644	18.457
5.8578	18.765
5.8512	19.048
5.8446	19.271
5.8380	19.453
5.8314	19.610
5.8249	19.745
5.8184	19.859
5.8118	19.957
5.8053	20.042
5.7988	20.116
5.7923	20.148
5.7859	20.123
5.7794	20.105
5.7730	20.103
5.7666	20.097
5.7602	20.096
5.7538	20.105
5.7474	20.122
5.7410	20.123
5.7347	20.086
5.7283	20.046
5.7220	20.025
5.7157	20.009
5.7094	19.999
5.7031	20.001
5.6969	19.997
5.6906	19.967
5.6844	19.907
5.6782	19.806
5.6719	19.667
5.6657	19.487
5.6596	19.260
5.6534	19.022
5.6472	18.786
5.6411	18.568
5.6349	18.385
5.6288	18.228
5.6227	18.079
5.6166	17.920
5.6106	17.736
5.6045	17.544
5.5984	17.347
5.5924	17.165
5.5864	17.022
5.5804	16.940
5.5744	16.928
5.5684	16.989
5.5624	17.132
5.5564	17.349
5.5505	17.624
5.5445	17.954
5.5386	18.335
5.5327	18.754
5.5268	19.198
5.5209	19.651
5.5151	20.106
5.5092	20.554
5.5033	20.990
5.4975	21.401
5.4917	21.787
5.4859	22.149
5.4801	22.484
5.4743	22.796
5.4685	23.089
5.4628	23.358
5.4570	23.596
5.4513	23.792
5.4455	23.931
5.4398	23.980
5.4341	23.929
5.4284	23.801
5.4228	23.600
5.4171	23.316
5.4114	22.945
5.4058	22.491
5.4002	21.951
5.3945	21.333
5.3889	20.681
5.3833	20.052
5.3778	19.488
5.3722	19.012
5.3666	18.628
5.3611	18.344
5.3555	18.161
5.3500	18.076
5.3445	18.074
5.3390	18.130
5.3335	18.227
5.3280	18.350
5.3225	18.482
5.3171	18.619
5.3116	18.761
5.3062	18.920
5.3008	19.108
5.2954	19.330
5.2900	19.601
5.2846	19.940
5.2792	20.338
5.2738	20.777
5.2684	21.242
5.2631	21.729
5.2578	22.240
5.2524	22.776
5.2471	23.343
5.2418	23.950
5.2365	24.588
5.2312	25.233
5.2260	25.871
5.2207	26.478
5.2154	27.024
5.2102	27.485
5.2050	27.852
5.1998	28.125
5.1945	28.321
5.1893	28.456
5.1842	28.560
5.1790	28.655
5.1738	28.746
5.1686	28.837
5.1635	28.922
5.1584	28.990
5.1532	29.047
5.1481	29.091
5.1430	29.125
5.1379	29.163
5.1328	29.221
5.1277	29.311
5.1227	29.425
5.1176	29.553
5.1126	29.680
5.1075	29.781
5.1025	29.834
5.0975	29.832
5.0925	29.785
5.0875	29.704
5.0825	29.604
5.0775	29.507
5.0726	29.430
5.0676	29.378
5.0627	29.353
5.0577	29.352
5.0528	29.366
5.0479	29.380
5.0430	29.393
5.0380	29.398
5.0332	29.391
5.0283	29.378
5.0234	29.360
5.0185	29.347
5.0137	29.357
5.0088	29.402
5.0040	29.497
4.9992	29.654
4.9944	29.897
4.9896	30.253
4.9848	30.729
4.9800	31.347
4.9752	32.106
4.9704	32.965
4.9657	33.859
4.9609	34.726
4.9562	35.503
4.9514	36.147
4.9467	36.643
4.9420	37.010
4.9373	37.281
4.9326	37.498
4.9279	37.709
4.9232	37.970
4.9186	38.319
4.9139	38.783
4.9092	39.375
4.9046	40.085
4.9000	40.883
4.8953	41.724
4.8907	42.562
4.8861	43.358
4.8815	44.088
4.8769	44.742
4.8723	45.332
4.8678	45.875
4.8632	46.388
4.8586	46.884
4.8541	47.371
4.8495	47.839
4.8450	48.275
4.8405	48.669
4.8360	49.001
4.8315	49.257
4.8270	49.432
4.8225	49.536
4.8180	49.577
4.8135	49.549
4.8090	49.458
4.8046	49.313
4.8001	49.124
4.7957	48.915
4.7913	48.717
4.7868	48.567
4.7824	48.499
4.7780	48.537
4.7736	48.680
4.7692	48.913
4.7648	49.209
4.7605	49.540
4.7561	49.880
4.7517	50.205
4.7474	50.506
4.7431	50.789
4.7387	51.055
4.7344	51.305
4.7301	51.548
4.7258	51.785
4.7215	52.013
4.7172	52.220
4.7129	52.397
4.7086	52.539
4.7043	52.634
4.7000	52.680
4.6958	52.693
4.6915	52.698
4.6873	52.723
4.6831	52.799
4.6788	52.944
4.6746	53.150
4.6704	53.393
4.6662	53.645
4.6620	53.890
4.6578	54.125
4.6536	54.360
4.6495	54.617
4.6453	54.911
4.6411	55.252
4.6370	55.633
4.6328	56.038
4.6287	56.452
4.6246	56.852
4.6205	57.224
4.6163	57.563
4.6122	57.876
4.6081	58.169
4.6040	58.434
4.6000	58.671
4.5959	58.890
4.5918	59.089
4.5877	59.268
4.5837	59.437
4.5796	59.606
4.5756	59.766
4.5716	59.920
4.5675	60.070
4.5635	60.213
4.5595	60.345
4.5555	60.452
4.5515	60.533
4.5475	60.584
4.5435	60.607
4.5395	60.618
4.5356	60.621
4.5316	60.618
4.5276	60.607
4.5237	60.576
4.5197	60.519
4.5158	60.432
4.5119	60.325
4.5080	60.213
4.5040	60.113
4.5001	60.038
4.4962	60.001
4.4923	60.004
4.4884	60.039
4.4846	60.087
4.4807	60.140
4.4768	60.192
4.4730	60.253
4.4691	60.340
4.4652	60.473
4.4614	60.663
4.4576	60.901
4.4537	61.166
4.4499	61.427
4.4461	61.657
4.4423	61.853
4.4385	62.026
4.4347	62.186
4.4309	62.349
4.4271	62.526
4.4233	62.719
4.4196	62.921
4.4158	63.123
4.4120	63.335
4.4083	63.560
4.4045	63.791
4.4008	64.035
4.3971	64.293
4.3934	64.563
4.3896	64.839
4.3859	65.112
4.3822	65.383
4.3785	65.647
4.3748	65.906
4.3711	66.159
4.3674	66.401
4.3638	66.630
4.3601	66.844
4.3564	67.043
4.3528	67.227
4.3491	67.401
4.3455	67.574
4.3418	67.744
4.3382	67.907
4.3346	68.061
4.3310	68.206
4.3273	68.336
4.3237	68.455
4.3201	68.560
4.3165	68.649
4.3129	68.731
4.3094	68.803
4.3058	68.870
4.3022	68.938
4.2986	69.006
4.2951	69.083
4.2915	69.168
4.2880	69.261
4.2844	69.365
4.2809	69.480
4.2774	69.603
4.2738	69.738
4.2703	69.874
4.2668	70.007
4.2633	70.131
4.2598	70.237
4.2563	70.321
4.2528	70.384
4.2493	70.428
4.2458	70.460
4.2424	70.486
4.2389	70.519
4.2354	70.561
4.2320	70.614
4.2285	70.681
4.2251	70.757
4.2216	70.831
4.2182	70.900
4.2148	70.965
4.2113	71.019
4.2079	71.062
4.2045	71.103
4.2011	71.145
4.1977	71.192
4.1943	71.245
4.1909	71.306
4.1875	71.373
4.1841	71.447
4.1808	71.524
4.1774	71.605
4.1740	71.682
4.1707	71.751
4.1673	71.813
4.1640	71.865
4.1606	71.915
4.1573	71.969
4.1540	72.025
4.1506	72.084
4.1473	72.145
4.1440	72.199
4.1407	72.249
4.1374	72.301
4.1341	72.353
4.1308	72.402
4.1275	72.458
4.1242	72.519
4.1209	72.576
4.1177	72.629
4.1144	72.683
4.1111	72.735
4.1079	72.785
4.1046	72.840
4.1014	72.900
4.0981	72.957
4.0949	73.013
4.0917	73.064
4.0884	73.108
4.0852	73.145
4.0820	73.178
4.0788	73.211
4.0756	73.241
4.0724	73.269
4.0692	73.297
4.0660	73.315
4.0628	73.325
4.0596	73.332
4.0565	73.339
4.0533	73.341
4.0501	73.340
4.0470	73.339
4.0438	73.334
4.0406	73.322
4.0375	73.305
4.0344	73.291
4.0312	73.280
4.0281	73.269
4.0250	73.260
4.0218	73.255
4.0187	73.254
4.0156	73.252
4.0125	73.252
4.0094	73.252
4.0063	73.254
4.0032	73.255
4.0001	73.257
3.9970	73.260
3.9940	73.267
3.9909	73.275
3.9878	73.284
3.9847	73.293
3.9817	73.311
3.9786	73.334
3.9756	73.357
3.9725	73.378
3.9695	73.400
3.9665	73.423
3.9634	73.447
3.9604	73.471
3.9574	73.506
3.9544	73.550
3.9513	73.591
3.9483	73.627
3.9453	73.656
3.9423	73.680
3.9393	73.706
3.9363	73.730
3.9333	73.752
3.9304	73.774
3.9274	73.789
3.9244	73.795
3.9214	73.795
3.9185	73.794
3.9155	73.795
3.9126	73.792
3.9096	73.785
3.9067	73.780
3.9037	73.768
3.9008	73.747
3.8979	73.724
3.8949	73.696
3.8920	73.662
3.8891	73.625
3.8862	73.594
3.8833	73.565
3.8804	73.536
3.8775	73.515
3.8746	73.493
3.8717	73.464
3.8688	73.433
3.8659	73.402
3.8630	73.369
3.8601	73.331
3.8573	73.303
3.8544	73.285
3.8515	73.265
3.8487	73.240
3.8458	73.219
3.8430	73.202
3.8401	73.182
3.8373	73.170
3.8344	73.166
3.8316	73.157
3.8288	73.143
3.8259	73.124
3.8231	73.107
3.8203	73.087
3.8175	73.068
3.8147	73.057
3.8119	73.046
3.8091	73.029
3.8063	73.006
3.8035	72.983
3.8007	72.954
3.7979	72.919
3.7951	72.882
3.7924	72.842
3.7896	72.797
3.7868	72.749
3.7841	72.704
3.7813	72.662
3.7785	72.616
3.7758	72.570
3.7730	72.521
3.7703	72.469
3.7676	72.413
3.7648	72.357
3.7621	72.303
3.7594	72.247
3.7566	72.195
3.7539	72.144
3.7512	72.088
3.7485	72.034
3.7458	71.988
3.7431	71.948
3.7404	71.910
3.7377	71.873
3.7350	71.843
3.7323	71.820
3.7296	71.794
3.7269	71.775
3.7242	71.761
3.7216	71.745
3.7189	71.721
3.7162	71.701
3.7136	71.686
3.7109	71.672
3.7083	71.657
3.7056	71.646
3.7030	71.632
3.7003	71.613
3.6977	71.597
3.6950	71.591
3.6924	71.586
3.6898	71.574
3.6872	71.562
3.6845	71.554
3.6819	71.542
3.6793	71.524
3.6767	71.509
3.6741	71.498
3.6715	71.484
3.6689	71.470
3.6663	71.451
3.6637	71.429
3.6611	71.401
3.6585	71.367
3.6560	71.332
3.6534	71.294
3.6508	71.259
3.6482	71.228
3.6457	71.195
3.6431	71.165
3.6406	71.134
3.6380	71.097
3.6355	71.056
3.6329	71.009
3.6304	70.964
3.6278	70.917
3.6253	70.872
3.6227	70.828
3.6202	70.781
3.6177	70.734
3.6152	70.687
3.6127	70.638
3.6101	70.586
3.6076	70.536
3.6051	70.482
3.6026	70.422
3.6001	70.364
3.5976	70.310
3.5951	70.253
3.5926	70.199
3.5901	70.145
3.5876	70.096
3.5852	70.037
3.5827	69.966
3.5802	69.899
3.5777	69.831
3.5753	69.759
3.5728	69.693
3.5704	69.636
3.5679	69.582
3.5654	69.517
3.5630	69.454
3.5605	69.394
3.5581	69.325
3.5557	69.249
3.5532	69.173
3.5508	69.103
3.5484	69.026
3.5459	68.944
3.5435	68.869
3.5411	68.797
3.5387	68.714
3.5363	68.628
3.5338	68.540
3.5314	68.442
3.5290	68.331
3.5266	68.211
3.5242	68.086
3.5218	67.965
3.5195	67.845
3.5171	67.726
3.5147	67.613
3.5123	67.495
3.5099	67.369
3.5075	67.238
3.5052	67.118
3.5028	67.012
3.5004	66.919
3.4981	66.846
3.4957	66.792
3.4934	66.748
3.4910	66.704
3.4887	66.650
3.4863	66.587
3.4840	66.515
3.4816	66.446
3.4793	66.391
3.4770	66.347
3.4746	66.319
3.4723	66.308
3.4700	66.287
3.4677	66.247
3.4653	66.194
3.4630	66.139
3.4607	66.080
3.4584	66.014
3.4561	65.943
3.4538	65.875
3.4515	65.804
3.4492	65.738
3.4469	65.673
3.4446	65.607
3.4423	65.542
3.4400	65.472
3.4378	65.401
3.4355	65.321
3.4332	65.233
3.4309	65.141
3.4287	65.038
3.4264	64.923
3.4241	64.802
3.4219	64.686
3.4196	64.590
3.4174	64.519
3.4151	64.466
3.4129	64.425
3.4106	64.394
3.4084	64.362
3.4061	64.325
3.4039	64.283
3.4017	64.243
3.3994	64.210
3.3972	64.175
3.3950	64.135
3.3928	64.092
3.3906	64.039
3.3883	63.969
3.3861	63.892
3.3839	63.809
3.3817	63.718
3.3795	63.640
3.3773	63.567
3.3751	63.499
3.3729	63.438
3.3707	63.377
3.3685	63.333
3.3663	63.301
3.3641	63.271
3.3620	63.247
3.3598	63.210
3.3576	63.167
3.3554	63.130
3.3533	63.090
3.3511	63.047
3.3489	63.007
3.3468	62.964
3.3446	62.911
3.3425	62.853
3.3403	62.802
3.3382	62.761
3.3360	62.712
3.3339	62.654
3.3317	62.593
3.3296	62.518
3.3274	62.431
3.3253	62.341
3.3232	62.255
3.3210	62.173
3.3189	62.094
3.3168	62.020
3.3147	61.946
3.3126	61.867
3.3104	61.791
3.3083	61.713
3.3062	61.636
3.3041	61.559
3.3020	61.481
3.2999	61.401
3.2978	61.320
3.2957	61.241
3.2936	61.163
3.2915	61.083
3.2894	61.003
3.2874	60.922
3.2853	60.840
3.2832	60.758
3.2811	60.681
3.2790	60.601
3.2770	60.517
3.2749	60.436
3.2728	60.361
3.2708	60.293
3.2687	60.226
3.2666	60.155
3.2646	60.078
3.2625	59.983
3.2605	59.888
3.2584	59.806
3.2564	59.734
3.2543	59.665
3.2523	59.597
3.2503	59.532
3.2482	59.456
3.2462	59.374
3.2442	59.292
3.2421	59.212
3.2401	59.130
3.2381	59.049
3.2361	58.972
3.2340	58.899
3.2320	58.824
3.2300	58.746
3.2280	58.665
3.2260	58.584
3.2240	58.503
3.2220	58.422
3.2200	58.340
3.2180	58.261
3.2160	58.186
3.2140	58.113
3.2120	58.037
3.2100	57.953
3.2080	57.867
3.2060	57.787
3.2040	57.702
3.2021	57.615
3.2001	57.537
3.1981	57.463
3.1961	57.376
3.1942	57.283
3.1922	57.210
3.1902	57.150
3.1883	57.082
3.1863	57.014
3.1844	56.945
3.1824	56.867
3.1805	56.776
3.1785	56.680
3.1766	56.598
3.1746	56.528
3.1727	56.458
3.1707	56.396
3.1688	56.333
3.1669	56.264
3.1649	56.194
3.1630	56.122
3.1611	56.053
3.1591	55.982
3.1572	55.903
3.1553	55.818
3.1534	55.738
3.1515	55.660
3.1495	55.586
3.1476	55.510
3.1457	55.425
3.1438	55.337
3.1419	55.252
3.1400	55.169
3.1381	55.095
3.1362	55.030
3.1343	54.972
3.1324	54.907
3.1305	54.832
3.1286	54.757
3.1268	54.685
3.1249	54.613
3.1230	54.535
3.1211	54.453
3.1192	54.376
3.1174	54.301
3.1155	54.226
3.1136	54.156
3.1117	54.091
3.1099	54.031
3.1080	53.964
3.1061	53.886
3.1043	53.811
3.1024	53.730
3.1006	53.647
3.0987	53.564
3.0969	53.487
3.0950	53.413
3.0932	53.339
3.0913	53.272
3.0895	53.205
3.0876	53.121
3.0858	53.034
3.0840	52.951
3.0821	52.869
3.0803	52.787
3.0785	52.713
3.0766	52.645
3.0748	52.571
3.0730	52.496
3.0712	52.420
3.0694	52.328
3.0675	52.218
3.0657	52.116
3.0639	52.027
3.0621	51.941
3.0603	51.865
3.0585	51.793
3.0567	51.714
3.0549	51.622
3.0531	51.522
3.0513	51.429
3.0495	51.346
3.0477	51.276
3.0459	51.215
3.0441	51.147
3.0423	51.084
3.0406	51.024
3.0388	50.963
3.0370	50.902
3.0352	50.850
3.0334	50.813
3.0317	50.787
3.0299	50.766
3.0281	50.748
3.0264	50.716
3.0246	50.671
3.0228	50.618
3.0211	50.561
3.0193	50.509
3.0176	50.470
3.0158	50.438
3.0140	50.409
3.0123	50.373
3.0105	50.325
3.0088	50.274
3.0070	50.212
3.0053	50.148
3.0036	50.088
3.0018	50.025
3.0001	49.965
2.9984	49.909
2.9966	49.852
2.9949	49.787
2.9932	49.717
2.9914	49.650
2.9897	49.585
2.9880	49.521
2.9863	49.456
2.9845	49.399
2.9828	49.338
2.9811	49.270
2.9794	49.211
2.9777	49.148
2.9760	49.086
2.9743	49.027
2.9726	48.971
2.9709	48.912
2.9692	48.853
2.9675	48.799
2.9658	48.752
2.9641	48.702
2.9624	48.645
2.9607	48.588
2.9590	48.537
2.9573	48.486
2.9556	48.456
2.9539	48.431
2.9523	48.396
2.9506	48.348
2.9489	48.288
2.9472	48.236
2.9455	48.192
2.9439	48.163
2.9422	48.151
2.9405	48.138
2.9389	48.118
2.9372	48.088
2.9355	48.065
2.9339	48.051
2.9322	48.019
2.9306	47.979
2.9289	47.943
2.9272	47.913
2.9256	47.896
2.9239	47.888
2.9223	47.890
2.9207	47.888
2.9190	47.863
2.9174	47.837
2.9157	47.821
2.9141	47.817
2.9124	47.834
2.9108	47.857
2.9092	47.871
2.9075	47.879
2.9059	47.881
2.9043	47.893
2.9027	47.910
2.9010	47.931
2.8994	47.971
2.8978	48.008
2.8962	48.027
2.8946	48.035
2.8929	48.037
2.8913	48.040
2.8897	48.036
2.8881	48.015
2.8865	47.981
2.8849	47.924
2.8833	47.840
2.8817	47.730
2.8801	47.588
2.8785	47.418
2.8769	47.221
2.8753	46.972
2.8737	46.674
2.8721	46.325
2.8705	45.927
2.8689	45.475
2.8673	44.974
2.8658	44.422
2.8642	43.824
2.8626	43.184
2.8610	42.523
2.8594	41.845
2.8579	41.150
2.8563	40.444
2.8547	39.734
2.8531	39.011
2.8516	38.288
2.8500	37.577
2.8484	36.891
2.8469	36.242
2.8453	35.634
2.8437	35.074
2.8422	34.561
2.8406	34.109
2.8391	33.709
2.8375	33.349
2.8360	33.029
2.8344	32.741
2.8329	32.486
2.8313	32.268
2.8298	32.075
2.8282	31.904
2.8267	31.739
2.8252	31.566
2.8236	31.379
2.8221	31.167
2.8205	30.921
2.8190	30.635
2.8175	30.308
2.8159	29.934
2.8144	29.519
2.8129	29.069
2.8114	28.593
2.8098	28.110
2.8083	27.623
2.8068	27.136
2.8053	26.675
2.8038	26.250
2.8022	25.869
2.8007	25.538
2.7992	25.256
2.7977	25.022
2.7962	24.832
2.7947	24.690
2.7932	24.592
2.7917	24.522
2.7902	24.478
2.7887	24.471
2.7872	24.478
2.7857	24.475
2.7842	24.458
2.7827	24.426
2.7812	24.353
2.7797	24.234
2.7782	24.080
2.7767	23.899
2.7752	23.686
2.7738	23.451
2.7723	23.198
2.7708	22.933
2.7693	22.649
2.7678	22.330
2.7664	21.984
2.7649	21.662
2.7634	21.425
2.7619	21.321
2.7605	21.344
2.7590	21.514
2.7575	21.827
2.7561	22.220
2.7546	22.666
2.7531	23.157
2.7517	23.670
2.7502	24.180
2.7488	24.668
2.7473	25.160
2.7458	25.666
2.7444	26.153
2.7429	26.647
2.7415	27.197
2.7400	27.802
2.7386	28.459
2.7371	29.198
2.7357	30.026
2.7343	30.920
2.7328	31.857
2.7314	32.854
2.7299	33.903
2.7285	34.946
2.7271	35.995
2.7256	36.997
2.7242	37.778
2.7228	38.439
2.7213	39.165
2.7199	40.000
2.7185	40.901
2.7171	41.789
2.7156	42.563
2.7142	43.023
2.7128	43.016
2.7114	42.683
2.7100	42.168
2.7085	41.541
2.7071	40.914
2.7057	40.415
2.7043	40.202
2.7029	40.466
2.7015	41.353
2.7001	42.844
2.6987	44.794
2.6973	47.050
2.6959	49.497
2.6945	52.008
2.6931	54.513
2.6917	56.965
2.6903	59.305
2.6889	61.445
2.6875	63.316
2.6861	64.940
2.6847	66.370
2.6833	67.570
2.6819	68.579
2.6805	69.399
2.6791	70.091
2.6778	70.737
2.6764	71.357
2.6750	71.853
2.6736	72.285
2.6722	72.750
2.6709	73.216
2.6695	73.630
2.6681	74.074
2.6667	74.639
2.6654	75.215
2.6640	75.631
2.6626	75.977
2.6613	76.365
2.6599	76.684
2.6585	76.934
2.6572	77.150
2.6558	77.371
2.6545	77.595
2.6531	77.816
2.6517	78.029
2.6504	78.226
2.6490	78.379
2.6477	78.514
2.6463	78.608
2.6450	78.666
2.6436	78.738
2.6423	78.841
2.6409	78.946
2.6396	79.038
2.6382	79.101
2.6369	79.171
2.6356	79.207
2.6342	79.141
2.6329	79.083
2.6315	79.067
2.6302	79.035
2.6289	79.064
2.6275	79.177
2.6262	79.379
2.6249	79.504
2.6236	79.489
2.6222	79.511
2.6209	79.481
2.6196	79.384
2.6183	79.377
2.6169	79.463
2.6156	79.620
2.6143	79.735
2.6130	79.816
2.6117	79.920
2.6103	79.915
2.6090	79.803
2.6077	79.706
2.6064	79.655
2.6051	79.677
2.6038	79.770
2.6025	79.934
2.6012	80.154
2.5999	80.258
2.5986	80.088
2.5973	79.837
2.5960	79.688
2.5947	79.683
2.5934	79.810
2.5921	80.030
2.5908	80.291
2.5895	80.486
2.5882	80.464
2.5869	80.357
2.5856	80.328
2.5843	80.360
2.5830	80.442
2.5817	80.525
2.5805	80.594
2.5792	80.689
2.5779	80.721
2.5766	80.682
2.5753	80.687
2.5741	80.706
2.5728	80.741
2.5715	80.793
2.5702	80.873
2.5690	80.972
2.5677	81.019
2.5664	81.005
2.5651	80.995
2.5639	80.979
2.5626	80.971
2.5613	81.028
2.5601	81.148
2.5588	81.284
2.5575	81.385
2.5563	81.427
2.5550	81.435
2.5538	81.432
2.5525	81.430
2.5513	81.441
2.5500	81.464
2.5487	81.498
2.5475	81.520
2.5462	81.521
2.5450	81.531
2.5437	81.543
2.5425	81.553
2.5413	81.571
2.5400	81.592
2.5388	81.612
2.5375	81.612
2.5363	81.593
2.5350	81.578
2.5338	81.572
2.5326	81.581
2.5313	81.603
2.5301	81.619
2.5289	81.633
2.5276	81.630
2.5264	81.604
2.5252	81.583
2.5239	81.570
2.5227	81.558
2.5215	81.545
2.5202	81.531
2.5190	81.508
2.5178	81.480
2.5166	81.461
2.5154	81.459
2.5141	81.455
2.5129	81.443
2.5117	81.427
2.5105	81.408
2.5093	81.377
2.5081	81.345
2.5068	81.320
2.5056	81.298
2.5044	81.277
2.5032	81.261
2.5020	81.249
2.5008	81.240
2.4996	81.224
2.4984	81.199
2.4972	81.163
2.4960	81.128
2.4948	81.106
2.4936	81.089
2.4924	81.077
2.4912	81.062
2.4900	81.040
2.4888	81.019
2.4876	80.985
2.4864	80.950
2.4852	80.924
2.4840	80.897
2.4828	80.881
2.4816	80.864
2.4805	80.849
2.4793	80.842
2.4781	80.820
2.4769	80.790
2.4757	80.761
2.4745	80.731
2.4734	80.704
2.4722	80.672
2.4710	80.649
2.4698	80.631
2.4686	80.611
2.4675	80.586
2.4663	80.564
2.4651	80.555
2.4640	80.545
2.4628	80.538
2.4616	80.547
2.4604	80.554
2.4593	80.563
2.4581	80.561
2.4569	80.562
2.4558	80.573
2.4546	80.578
2.4535	80.590
2.4523	80.611
2.4511	80.617
2.4500	80.615
2.4488	80.620
2.4477	80.637
2.4465	80.663
2.4454	80.691
2.4442	80.724
2.4431	80.755
2.4419	80.769
2.4408	80.784
2.4396	80.819
2.4385	80.864
2.4373	80.913
2.4362	80.965
2.4350	81.019
2.4339	81.069
2.4327	81.115
2.4316	81.167
2.4305	81.226
2.4293	81.296
2.4282	81.357
2.4270	81.410
2.4259	81.471
2.4248	81.527
2.4236	81.574
2.4225	81.603
2.4214	81.632
2.4202	81.669
2.4191	81.693
2.4180	81.717
2.4169	81.750
2.4157	81.785
2.4146	81.819
2.4135	81.835
2.4124	81.841
2.4112	81.841
2.4101	81.831
2.4090	81.820
2.4079	81.808
2.4068	81.792
2.4056	81.777
2.4045	81.749
2.4034	81.702
2.4023	81.649
2.4012	81.590
2.4001	81.530
2.3990	81.474
2.3979	81.418
2.3967	81.362
2.3956	81.301
2.3945	81.222
2.3934	81.123
2.3923	81.017
2.3912	80.910
2.3901	80.806
2.3890	80.705
2.3879	80.617
2.3868	80.542
2.3857	80.462
2.3846	80.374
2.3835	80.296
2.3824	80.226
2.3813	80.159
2.3802	80.094
2.3791	80.044
2.3781	80.007
2.3770	79.966
2.3759	79.931
2.3748	79.902
2.3737	79.872
2.3726	79.844
2.3715	79.818
2.3704	79.795
2.3694	79.781
2.3683	79.759
2.3672	79.733
2.3661	79.698
2.3650	79.667
2.3640	79.641
2.3629	79.625
2.3618	79.621
2.3607	79.638
2.3597	79.666
2.3586	79.692
2.3575	79.720
2.3564	79.768
2.3554	79.825
2.3543	79.895
2.3532	79.982
2.3522	80.076
2.3511	80.175
2.3500	80.276
2.3490	80.375
2.3479	80.484
2.3468	80.596
2.3458	80.714
2.3447	80.844
2.3436	80.976
2.3426	81.122
2.3415	81.271
2.3405	81.403
2.3394	81.537
2.3384	81.681
2.3373	81.829
2.3363	81.968
2.3352	82.103
2.3342	82.246
2.3331	82.373
2.3321	82.470
2.3310	82.556
2.3300	82.644
2.3289	82.731
2.3279	82.808
2.3268	82.882
2.3258	82.966
2.3247	83.048
2.3237	83.122
2.3226	83.192
2.3216	83.271
2.3206	83.359
2.3195	83.429
2.3185	83.469
2.3175	83.484
2.3164	83.468
2.3154	83.440
2.3144	83.432
2.3133	83.461
2.3123	83.513
2.3113	83.572
2.3102	83.656
2.3092	83.748
2.3082	83.809
2.3071	83.861
2.3061	83.927
2.3051	84.001
2.3041	84.040
2.3030	84.049
2.3020	84.052
2.3010	84.060
2.3000	84.053
2.2990	84.017
2.2979	83.972
2.2969	83.918
2.2959	83.830
2.2949	83.714
2.2939	83.581
2.2929	83.450
2.2918	83.317
2.2908	83.166
2.2898	83.022
2.2888	82.908
2.2878	82.816
2.2868	82.740
2.2858	82.668
2.2848	82.593
2.2838	82.508
2.2828	82.424
2.2818	82.357
2.2808	82.309
2.2798	82.267
2.2787	82.236
2.2777	82.214
2.2767	82.196
2.2757	82.176
2.2747	82.169
2.2738	82.177
2.2728	82.193
2.2718	82.232
2.2708	82.287
2.2698	82.326
2.2688	82.359
2.2678	82.388
2.2668	82.405
2.2658	82.402
2.2648	82.388
2.2638	82.384
2.2628	82.377
2.2618	82.341
2.2609	82.308
2.2599	82.291
2.2589	82.274
2.2579	82.238
2.2569	82.183
2.2559	82.117
2.2550	82.036
2.2540	81.939
2.2530	81.841
2.2520	81.755
2.2510	81.676
2.2501	81.594
2.2491	81.518
2.2481	81.451
2.2471	81.387
2.2462	81.342
2.2452	81.303
2.2442	81.275
2.2433	81.263
2.2423	81.258
2.2413	81.261
2.2403	81.263
2.2394	81.257
2.2384	81.273
2.2374	81.298
2.2365	81.329
2.2355	81.353
2.2345	81.380
2.2336	81.422
2.2326	81.458
2.2317	81.475
2.2307	81.494
2.2297	81.504
2.2288	81.485
2.2278	81.439
2.2269	81.410
2.2259	81.386
2.2250	81.331
2.2240	81.262
2.2231	81.206
2.2221	81.142
2.2211	81.075
2.2202	81.015
2.2192	80.972
2.2183	80.939
2.2173	80.893
2.2164	80.857
2.2155	80.853
2.2145	80.838
2.2136	80.821
2.2126	80.803
2.2117	80.794
2.2107	80.804
2.2098	80.817
2.2088	80.859
2.2079	80.945
2.2070	81.057
2.2060	81.199
2.2051	81.365
2.2041	81.551
2.2032	81.752
2.2023	81.946
2.2013	82.132
2.2004	82.325
2.1995	82.535
2.1985	82.739
2.1976	82.922
2.1967	83.116
2.1957	83.316
2.1948	83.499
2.1939	83.668
2.1930	83.845
2.1920	84.026
2.1911	84.187
2.1902	84.343
2.1893	84.514
2.1883	84.670
2.1874	84.804
2.1865	84.926
2.1856	85.041
2.1846	85.155
2.1837	85.265
2.1828	85.375
2.1819	85.490
2.1810	85.589
2.1800	85.677
2.1791	85.758
2.1782	85.825
2.1773	85.889
2.1764	85.956
2.1755	86.022
2.1746	86.084
2.1736	86.144
2.1727	86.202
2.1718	86.257
2.1709	86.286
2.1700	86.313
2.1691	86.349
2.1682	86.390
2.1673	86.434
2.1664	86.475
2.1655	86.510
2.1646	86.551
2.1637	86.579
2.1628	86.611
2.1619	86.647
2.1610	86.681
2.1601	86.723
2.1592	86.757
2.1583	86.781
2.1574	86.816
2.1565	86.854
2.1556	86.888
2.1547	86.909
2.1538	86.931
2.1529	86.970
2.1520	87.023
2.1511	87.079
2.1502	87.124
2.1493	87.158
2.1484	87.179
2.1475	87.190
2.1466	87.204
2.1458	87.211
2.1449	87.230
2.1440	87.269
2.1431	87.297
2.1422	87.325
2.1413	87.374
2.1404	87.405
2.1396	87.415
2.1387	87.411
2.1378	87.405
2.1369	87.416
2.1360	87.431
2.1352	87.448
2.1343	87.492
2.1334	87.524
2.1325	87.548
2.1316	87.568
2.1308	87.569
2.1299	87.571
2.1290	87.567
2.1281	87.554
2.1273	87.567
2.1264	87.588
2.1255	87.597
2.1247	87.613
2.1238	87.618
2.1229	87.627
2.1220	87.633
2.1212	87.623
2.1203	87.623
2.1194	87.641
2.1186	87.656
2.1177	87.666
2.1168	87.669
2.1160	87.693
2.1151	87.728
2.1143	87.747
2.1134	87.769
2.1125	87.789
2.1117	87.804
2.1108	87.824
2.1100	87.842
2.1091	87.876
2.1082	87.902
2.1074	87.913
2.1065	87.926
2.1057	87.940
2.1048	87.985
2.1040	88.035
2.1031	88.041
2.1023	88.038
2.1014	88.034
2.1005	88.020
2.0997	88.020
2.0988	88.026
2.0980	88.037
2.0971	88.041
2.0963	88.030
2.0955	88.026
2.0946	88.052
2.0938	88.084
2.0929	88.106
2.0921	88.106
2.0912	88.092
2.0904	88.105
2.0895	88.125
2.0887	88.135
2.0879	88.150
2.0870	88.158
2.0862	88.166
2.0853	88.183
2.0845	88.197
2.0837	88.217
2.0828	88.235
2.0820	88.202
2.0812	88.196
2.0803	88.237
2.0795	88.248
2.0760	88.248
2.0720	88.153
2.0680	88.176
2.0640	87.891
2.0600	88.009
2.0560	88.270
2.0520	88.482
2.0480	88.077
2.0440	88.194
2.0400	87.745
2.0360	87.625
2.0320	87.178
2.0280	87.060
2.0240	87.224
2.0200	87.365
2.0160	87.107
2.0120	86.897
2.0080	86.851
2.0040	86.619
2.0000	86.549
1.9960	86.342
1.9920	86.411
1.9880	86.180
1.9840	85.995
1.9800	86.136
1.9760	85.930
1.9720	85.402
1.9680	85.243
1.9640	85.108
1.9600	85.218
1.9560	85.286
1.9520	85.034
1.9480	84.967
1.9440	84.783
1.9400	84.758
1.9360	84.658
1.9320	84.643
1.9280	84.431
1.9240	84.448
1.9200	84.074
1.9160	84.007
1.9120	83.820
1.9080	84.193
1.9040	84.921
1.9000	84.942
1.8960	84.640
1.8920	84.854
1.8880	84.935
1.8840	85.303
1.8800	85.695
1.8760	86.096
1.8720	86.458
1.8680	85.855
1.8640	85.557
1.8600	85.316
1.8560	85.241
1.8520	85.833
1.8480	86.090
1.8440	86.631
1.8400	87.043
1.8360	87.251
1.8320	87.434
1.8280	86.883
1.8240	86.160
1.8200	85.423
1.8160	85.626
1.8120	85.428
1.8080	85.362
1.8040	85.739
1.8000	85.739
1.7960	85.499
1.7920	85.183
1.7880	85.069
1.7840	85.069
1.7800	85.380
1.7760	85.338
1.7720	85.207
1.7680	85.221
1.7640	85.221
1.7600	85.052
1.7560	84.986
1.7520	84.791
1.7480	85.017
1.7440	85.391
1.7400	84.897
1.7360	85.399
1.7320	85.598
1.7280	85.731
1.7240	85.821
1.7200	85.778
1.7160	85.626
1.7120	85.513
1.7080	85.300
1.7040	85.541
1.7000	84.955
1.6960	85.598
1.6920	85.311
1.6880	85.353
1.6840	84.631
1.6800	85.499
1.6760	85.475
1.6720	85.127
1.6680	84.728
1.6640	84.883
1.6600	85.216
1.6560	85.264
1.6520	84.760
1.6480	84.866
1.6440	84.827
1.6400	84.476
1.6360	84.297
1.6320	84.761
1.6280	84.989
1.6240	85.037
1.6200	84.996
1.6160	84.647
1.6120	84.138
1.6080	83.900
1.6040	84.223
1.6000	84.378
1.5960	84.273
1.5920	84.468
1.5880	84.672
1.5840	84.827
1.5800	84.819
1.5760	84.436
1.5720	84.306
1.5680	84.137
1.5640	83.688
1.5600	83.547
1.5560	83.686
1.5520	84.118
1.5480	84.197
1.5440	84.133
1.5400	83.281
1.5360	83.765
1.5320	84.137
1.5280	84.560
1.5240	84.366
1.5200	84.019
1.5160	83.624
1.5120	83.726
1.5080	84.037
1.5040	83.976
1.5000	84.084
1.4960	83.942
1.4920	83.661
1.4880	83.584
1.4840	83.456
1.4800	83.023
1.4760	82.541
1.4720	82.389
1.4680	83.058
1.4640	83.314
1.4600	83.148
1.4560	83.084
1.4520	82.535
1.4480	82.078
1.4440	81.971
1.4400	81.845
1.4360	81.791
1.4320	81.646
1.4280	81.430
1.4240	80.974
1.4200	80.463
1.4160	80.013
1.4120	79.779
1.4080	79.929
1.4040	80.057
1.4000	80.612
1.3960	81.039
1.3920	80.970
1.3880	81.139
1.3840	81.438
1.3800	82.198
1.3760	82.977
1.3720	82.621
1.3680	82.807
1.3640	82.802
1.3600	83.210
1.3560	82.898
1.3520	82.754
1.3480	82.554
1.3440	82.873
1.3400	82.561
1.3360	82.331
1.3320	82.438
1.3280	82.385
1.3240	82.367
1.3200	82.599
1.3160	82.367
1.3120	82.216
1.3080	82.216
1.3040	82.091
1.3000	82.091
1.2960	82.002
1.2920	82.189
1.2880	81.956
1.2840	81.909
1.2800	82.258
1.2760	82.458
1.2720	82.185
1.2680	82.649
1.2640	82.420
1.2600	82.329
1.2560	82.201
1.2520	82.201
1.2480	82.229
1.2440	81.850
1.2400	82.040
1.2360	82.103
1.2320	81.894
1.2280	81.964
1.2240	81.531
1.2200	81.831
1.2160	82.047
1.2120	81.768
1.2080	81.789
1.2040	81.789
1.2000	81.789
1.1960	81.735
1.1920	81.639
1.1880	81.415
1.1840	81.353
1.1800	81.381
1.1760	81.286
1.1720	81.343
1.1680	81.164
1.1640	80.995
1.1600	80.990
1.1560	80.937
1.1520	81.102
1.1480	81.584
1.1440	81.284
1.1400	81.255
1.1360	80.715
1.1320	80.260
1.1280	80.592
1.1240	80.867
1.1200	80.694
1.1160	80.756
1.1120	80.945
1.1080	80.609
1.1040	80.091
1.1000	80.262
1.0960	80.548
1.0920	80.361
1.0880	80.273
1.0840	80.824
1.0800	80.239
1.0760	80.241
1.0720	79.826
1.0680	79.695
1.0640	79.674
1.0600	79.735
1.0560	78.808
1.0520	78.869
1.0480	78.825
1.0440	78.895
1.0400	79.464
1.0360	79.948
1.0320	79.948
1.0280	79.524
1.0240	79.283
1.0200	79.736
1.0160	79.796
1.0120	79.194
1.0080	78.891
1.0040	78.739
1.0000	78.713
0.99600	78.794
0.99200	79.603
0.98800	79.524
0.98400	79.156
0.98000	78.737
0.97600	78.163
0.97200	78.199
0.96800	78.222
0.96400	78.640
0.96000	78.131
0.95600	78.281
0.95200	78.104
0.94800	77.833
0.94400	77.833
0.94000	77.806
0.93600	77.689
0.93200	77.837
0.92800	77.398
0.92400	77.895
0.92000	77.756
0.91600	77.599
0.91200	77.541
0.90800	77.568
0.90400	77.363
0.90000	77.389
0.89600	77.331
0.89200	77.063
0.88800	76.942
0.88400	77.057
0.88000	76.869
0.87600	76.952
0.87200	77.179
0.86800	76.792
0.86400	76.695
0.86000	76.704
0.85600	76.532
0.85200	76.318
0.84800	76.418
0.84400	76.219
0.84000	76.310
0.83600	76.510
0.83200	75.772
0.82800	75.715
0.82400	75.543
0.82000	75.979
0.81600	75.652
0.81200	75.368
0.80800	75.842
0.80400	75.728
0.80000	75.827
0.79900	74.095
0.79800	74.095
0.79700	74.129
0.79600	74.256
0.79500	74.646
0.79400	74.773
0.79300	74.517
0.79200	74.095
0.79100	73.737
0.79000	73.766
0.78900	73.608
0.78800	73.677
0.78700	73.740
0.78600	73.648
0.78500	73.706
0.78400	73.995
0.78300	73.995
0.78200	73.488
0.78100	73.485
0.78000	73.411
0.77900	73.406
0.77800	73.377
0.77700	73.251
0.77600	73.066
0.77500	73.422
0.77400	72.938
0.77300	72.841
0.77200	73.066
0.77100	72.876
0.77000	72.404
0.76900	72.374
0.76800	72.873
0.76700	73.345
0.76600	73.248
0.76500	73.129
0.76400	73.379
0.76300	73.088
0.76200	72.675
0.76100	72.500
0.76000	71.932
0.75900	71.845
0.75800	71.845
0.75700	71.845
0.75600	71.994
0.75500	72.435
0.75400	72.103
0.75300	71.230
0.75200	71.290
0.75100	71.290
0.75000	71.266
0.74900	71.606
0.74800	71.412
0.74700	71.412
0.74600	71.193
0.74500	71.024
0.74400	70.958
0.74300	70.566
0.74200	70.607
0.74100	71.079
0.74000	70.690
0.73900	70.294
0.73800	70.003
0.73700	69.473
0.73600	69.580
0.73500	69.764
0.73400	70.100
0.73300	70.229
0.73200	70.445
0.73100	69.696
0.73000	69.328
0.72900	69.877
0.72800	69.473
0.72700	68.927
0.72600	69.007
0.72500	68.812
0.72400	68.285
0.72300	68.479
0.72200	68.010
0.72100	67.759
0.72000	67.565
0.71900	68.107
0.71800	68.166
0.71700	67.811
0.71600	67.283
0.71500	66.743
0.71400	66.743
0.71300	66.665
0.71200	66.815
0.71100	66.638
0.71000	66.671
0.70900	66.499
0.70800	65.731
0.70700	65.198
0.70600	65.114
0.70500	64.876
0.70400	64.553
0.70300	64.287
0.70200	64.287
0.70100	63.998
0.70000	64.073
0.69900	64.274
0.69800	63.545
0.69700	63.590
0.69600	63.069
0.69500	62.678
0.69400	62.378
0.69300	62.323
0.69200	61.962
0.69100	62.077
0.69000	61.923
0.68900	61.985
0.68800	61.377
0.68700	60.776
0.68600	60.676
0.68500	60.581
0.68400	60.075
0.68300	59.975
0.68200	59.823
0.68100	60.023
0.68000	60.180
0.67900	60.132
0.67800	60.180
0.67700	59.575
0.67600	59.675
0.67500	60.132
0.67400	59.931
0.67300	59.931
0.67200	59.523
0.67100	59.733
0.67000	59.581
0.66900	59.331
0.66800	58.776
0.66700	58.575
0.66600	58.525
0.66500	57.973
0.66400	57.723
0.66300	57.274
0.66200	57.619
0.66100	57.619
0.66000	57.118
0.65900	57.266
0.65800	56.861
0.65700	56.459
0.65600	56.317
0.65500	56.063
0.65400	55.465
0.65300	55.170
0.65200	55.070
0.65100	55.076
0.65000	54.782
0.64900	54.345
0.64800	54.345
0.64700	54.656
0.64600	54.435
0.64500	54.029
0.64400	54.131
0.64300	54.139
0.64200	53.907
0.64100	53.961
0.64000	54.085
0.63900	54.094
0.63800	53.450
0.63700	52.923
0.63600	52.688
0.63500	52.923
0.63400	52.968
0.63300	52.823
0.63200	52.478
0.63100	52.701
0.63000	52.667
0.62900	52.378
0.62800	51.935
0.62700	51.735
0.62600	51.779
0.62500	51.999
0.62400	51.955
0.62300	51.722
0.62200	51.136
0.62100	51.092
0.62000	51.239
0.61900	51.850
0.61800	51.769
0.61700	51.635
0.61600	51.502
0.61500	51.313
0.61400	51.239
0.61300	51.266
0.61200	51.414
0.61100	51.705
0.61000	51.660
0.60900	51.313
0.60800	51.370
0.60700	51.168
0.60600	51.052
0.60500	51.212
0.60400	51.212
0.60300	51.401
0.60200	51.432
0.60100	51.550
0.60000	51.819
0.59900	51.954
0.59800	51.761
0.59700	52.090
0.59600	52.123
0.59500	51.514
0.59400	51.234
0.59300	51.800
0.59200	51.816
0.59100	52.495
0.59000	52.698
0.58900	52.563
0.58800	53.058
0.58700	52.965
0.58600	52.955
0.58500	53.497
0.58400	52.993
0.58300	53.191
0.58200	52.982
0.58100	53.450
0.58000	53.697
0.57900	53.895
0.57800	53.950
0.57700	54.275
0.57600	54.480
0.57500	54.528
0.57400	54.843
0.57300	54.962
0.57200	54.839
0.57100	55.030
0.57000	55.041
0.56900	55.094
0.56800	55.600
0.56700	55.792
0.56600	56.349
0.56500	56.300
0.56400	56.202
0.56300	56.399
0.56200	56.451
0.56100	56.552
0.56000	57.060
0.55900	56.951
0.55800	54.858
0.55700	55.356
0.55600	55.264
0.55500	55.269
0.55400	55.461
0.55300	55.657
0.55200	55.898
0.55100	56.040
0.55000	55.786
0.54900	56.271
0.54800	56.282
0.54700	56.135
0.54600	56.674
0.54500	56.872
0.54400	56.677
0.54300	57.270
0.54200	57.320
0.54100	57.219
0.54000	57.420
0.53900	57.667
0.53800	57.819
0.53700	57.567
0.53600	57.567
0.53500	57.618
0.53400	57.718
0.53300	57.323
0.53200	56.981
0.53100	56.834
0.53000	56.931
0.52900	57.374
0.52800	57.669
0.52700	57.720
0.52600	57.619
0.52500	57.821
0.52400	57.719
0.52300	57.570
0.52200	58.022
0.52100	57.872
0.52000	57.767
0.51900	57.414
0.51800	57.267
0.51700	57.216
0.51600	57.368
0.51500	57.415
0.51400	57.066
0.51300	57.115
0.51200	56.523
0.51100	56.175
0.51000	56.366
0.50900	55.970
0.50800	56.108
0.50700	56.296
0.50600	56.348
0.50500	56.002
0.50400	55.896
0.50300	55.831
0.50200	55.338
0.50100	55.834
0.50000	55.779
0.49900	54.901
0.49800	54.490
0.49700	54.435
0.49600	54.150
0.49500	53.885
0.49400	53.693
0.49300	53.729
0.49200	53.451
0.49100	53.577
0.49000	53.349
0.48900	52.942
0.48800	52.782
0.48700	52.416
0.48600	52.099
0.48500	51.619
0.48400	51.622
0.48300	51.550
0.48200	51.131
0.48100	50.827
0.48000	51.005
0.47900	50.886
0.47800	50.707
0.47700	49.937
0.47600	49.798
0.47500	49.715
0.47400	49.658
0.47300	49.369
0.47200	49.185
0.47100	48.757
0.47000	48.554
0.46900	48.376
0.46800	48.514
0.46700	47.949
0.46600	47.887
0.46500	47.203
0.46400	47.435
0.46300	47.270
0.46200	47.489
0.46100	47.090
0.46000	46.695
0.45900	48.563
0.45800	48.498
0.45700	48.207
0.45600	48.080
0.45500	47.448
0.45400	47.201
0.45300	47.254
0.45200	46.995
0.45100	47.047
0.45000	47.239
0.44900	47.149
0.44800	46.723
0.44700	46.555
0.44600	46.263
0.44500	46.259
0.44400	45.952
0.44300	45.527
0.44200	45.462
0.44100	45.334
0.44000	45.014
0.43900	44.879
0.43800	44.815
0.43700	44.879
0.43600	44.674
0.43500	44.537
0.43400	44.323
0.43300	43.970
0.43200	44.005
0.43100	44.111
0.43000	43.971
0.42900	43.544
0.42800	43.440
0.42700	43.096
0.42600	43.371
0.42500	42.874
0.42400	42.837
0.42300	43.017
0.42200	43.074
0.42100	42.606
0.42000	42.850
0.41900	42.674
0.41800	42.434
0.41700	42.395
0.41600	42.285
0.41500	42.152
0.41400	42.283
0.41300	42.042
0.41200	41.981
0.41100	41.821
0.41000	41.710
0.40900	41.917
0.40800	42.014
0.40700	42.258
0.40600	42.104
0.40500	42.040
0.40400	42.030
0.40300	41.924
0.40200	41.956
0.40100	42.046
0.40000	41.947
