Name: Purple Quartzite 
Type:  Rocks
Class:  Metamorphic 
Subclass: Quartzite
Particle Size:  0-75 Micrometer
Sample No.:   qrtzit4.doc
Owner:  JHU
Wavelength Range:  All
Origin:  Sample No. 378, The Hunt and Salisbury Collection at the U.S. 
Geological Survey, Denver, Co.
Description: A schistose sample consisting of medium to coarse-grained 
recrystallized quartz with some muscovite that often contains ferruginous 
material.  In addition there are scattered opaques present in this sample.  The 
modal analyses for this rock are 88.2% quartz, 7.2% muscovite, 3.5% opaques 
and 1.1% other.  

Measurement:  Directional (10 Degree) Hemispherical Reflectance
First Column:  X
Second Column:  Y  
X Units:  Wavelength (micrometers)
Y Units:  Reflectance (percent)
First X Value: 14.9831	
Last X Value:  0.4
Number of X Values: 2868
Additional Information:  None

14.983	8.3958
14.940	8.2883
14.897	8.1474
14.854	7.9397
14.812	7.6709
14.770	7.3789
14.728	7.0656
14.686	6.6846
14.645	6.2001
14.603	5.6106
14.562	4.9466
14.521	4.2362
14.481	3.5364
14.441	2.9140
14.400	2.4394
14.361	2.1676
14.321	2.1482
14.281	2.4070
14.242	2.9417
14.203	3.6685
14.164	4.4690
14.126	5.2535
14.087	5.9763
14.049	6.5998
14.011	7.1147
13.973	7.5431
13.936	7.9120
13.899	8.2211
13.861	8.4624
13.824	8.6457
13.788	8.7799
13.751	8.8541
13.715	8.8664
13.679	8.8259
13.643	8.7463
13.607	8.6440
13.571	8.5275
13.536	8.4067
13.500	8.2843
13.465	8.1488
13.430	7.9932
13.396	7.8130
13.361	7.6042
13.327	7.3659
13.293	7.0917
13.259	6.7810
13.225	6.4414
13.191	6.0774
13.158	5.6976
13.124	5.3184
13.091	4.9568
13.058	4.6238
13.026	4.3356
12.993	4.1170
12.960	3.9913
12.928	3.9551
12.896	3.9842
12.864	4.0441
12.832	4.0810
12.800	4.0391
12.769	3.8970
12.737	3.6766
12.706	3.4291
12.675	3.2091
12.644	3.0668
12.614	3.0303
12.583	3.0841
12.552	3.1788
12.522	3.2486
12.492	3.2285
12.462	3.0765
12.432	2.7845
12.402	2.3885
12.373	1.9606
12.343	1.5886
12.314	1.3551
12.285	1.3039
12.256	1.4342
12.227	1.7181
12.198	2.1119
12.169	2.5723
12.141	3.0649
12.113	3.5719
12.084	4.0834
12.056	4.5888
12.028	5.0761
12.000	5.5420
11.973	5.9905
11.945	6.4239
11.918	6.8409
11.890	7.2385
11.863	7.6096
11.836	7.9506
11.809	8.2625
11.782	8.5528
11.755	8.8287
11.729	9.0904
11.702	9.3305
11.676	9.5375
11.650	9.7016
11.624	9.8200
11.598	9.9003
11.572	9.9560
11.546	10.002
11.520	10.052
11.495	10.116
11.469	10.192
11.444	10.277
11.419	10.360
11.394	10.432
11.369	10.486
11.344	10.516
11.319	10.523
11.294	10.508
11.270	10.470
11.245	10.414
11.221	10.344
11.197	10.271
11.173	10.195
11.149	10.116
11.125	10.029
11.101	9.9283
11.077	9.8037
11.054	9.6552
11.030	9.4928
11.007	9.3348
10.983	9.1970
10.960	9.0914
10.937	9.0295
10.914	9.0085
10.891	9.0144
10.868	9.0298
10.846	9.0402
10.823	9.0376
10.800	9.0179
10.778	8.9824
10.755	8.9343
10.733	8.8721
10.711	8.7927
10.689	8.6963
10.667	8.5879
10.645	8.4801
10.623	8.3885
10.602	8.3229
10.580	8.2869
10.558	8.2767
10.537	8.2857
10.516	8.3023
10.494	8.3144
10.473	8.3146
10.452	8.3002
10.431	8.2656
10.410	8.2092
10.389	8.1368
10.368	8.0567
10.348	7.9743
10.327	7.8921
10.306	7.8133
10.286	7.7368
10.266	7.6553
10.245	7.5646
10.225	7.4630
10.205	7.3482
10.185	7.2224
10.165	7.0886
10.145	6.9501
10.125	6.8077
10.106	6.6626
10.086	6.5162
10.066	6.3744
10.047	6.2448
10.027	6.1380
10.008	6.0606
9.9887	6.0139
9.9695	5.9945
9.9504	5.9929
9.9313	5.9971
9.9123	5.9988
9.8934	5.9917
9.8746	5.9687
9.8558	5.9301
9.8371	5.8811
9.8185	5.8266
9.7999	5.7717
9.7814	5.7217
9.7630	5.6810
9.7447	5.6516
9.7264	5.6293
9.7082	5.6099
9.6900	5.5891
9.6719	5.5652
9.6539	5.5431
9.6360	5.5318
9.6181	5.5403
9.6003	5.5796
9.5825	5.6523
9.5649	5.7513
9.5472	5.8685
9.5297	6.0068
9.5122	6.1733
9.4948	6.3798
9.4774	6.6429
9.4601	6.9901
9.4429	7.4476
9.4257	8.0276
9.4086	8.7276
9.3916	9.5254
9.3746	10.367
9.3577	11.181
9.3408	11.894
9.3240	12.456
9.3073	12.848
9.2906	13.074
9.2740	13.168
9.2574	13.172
9.2409	13.124
9.2245	13.053
9.2081	12.974
9.1918	12.897
9.1755	12.819
9.1593	12.738
9.1431	12.652
9.1270	12.568
9.1110	12.491
9.0950	12.422
9.0791	12.365
9.0632	12.314
9.0474	12.258
9.0316	12.191
9.0159	12.115
9.0003	12.039
8.9847	11.971
8.9691	11.923
8.9536	11.907
8.9382	11.920
8.9228	11.948
8.9075	11.978
8.8922	11.997
8.8770	11.990
8.8618	11.949
8.8467	11.876
8.8316	11.775
8.8166	11.653
8.8016	11.519
8.7867	11.383
8.7718	11.250
8.7570	11.124
8.7422	10.997
8.7275	10.839
8.7129	10.591
8.6982	10.198
8.6837	9.6441
8.6692	8.9836
8.6547	8.3366
8.6403	7.8673
8.6259	7.7226
8.6116	7.9575
8.5973	8.5003
8.5830	9.1937
8.5688	9.8702
8.5547	10.406
8.5406	10.747
8.5266	10.911
8.5126	10.959
8.4986	10.950
8.4847	10.912
8.4708	10.859
8.4570	10.800
8.4432	10.741
8.4295	10.681
8.4158	10.626
8.4022	10.584
8.3886	10.563
8.3750	10.567
8.3615	10.605
8.3481	10.682
8.3347	10.795
8.3213	10.937
8.3079	11.108
8.2946	11.314
8.2814	11.560
8.2682	11.847
8.2550	12.171
8.2419	12.523
8.2288	12.881
8.2158	13.215
8.2028	13.497
8.1898	13.687
8.1769	13.751
8.1640	13.666
8.1512	13.424
8.1384	13.045
8.1256	12.562
8.1129	12.022
8.1002	11.463
8.0876	10.910
8.0750	10.384
8.0624	9.8923
8.0499	9.4362
8.0374	9.0168
8.0250	8.6324
8.0126	8.2767
8.0002	7.9357
7.9879	7.5907
7.9756	7.2295
7.9634	6.8466
7.9512	6.4407
7.9390	6.0220
7.9268	5.6076
7.9147	5.2123
7.9027	4.8460
7.8906	4.5102
7.8786	4.2051
7.8667	3.9290
7.8548	3.6799
7.8429	3.4599
7.8310	3.2754
7.8192	3.1279
7.8075	3.0147
7.7957	2.9285
7.7840	2.8593
7.7723	2.7940
7.7607	2.7215
7.7491	2.6400
7.7375	2.5517
7.7260	2.4579
7.7145	2.3627
7.7031	2.2696
7.6916	2.1782
7.6802	2.0835
7.6689	1.9810
7.6575	1.8734
7.6462	1.7636
7.6350	1.6549
7.6238	1.5564
7.6126	1.4713
7.6014	1.4029
7.5903	1.3508
7.5792	1.3110
7.5681	1.2800
7.5571	1.2520
7.5461	1.2253
7.5351	1.1973
7.5242	1.1654
7.5133	1.1317
7.5024	1.0988
7.4916	1.0671
7.4807	1.0382
7.4700	1.0140
7.4592	0.99630
7.4485	0.98560
7.4378	0.98160
7.4272	0.98470
7.4165	0.99300
7.4059	1.0043
7.3954	1.0174
7.3848	1.0292
7.3743	1.0387
7.3639	1.0472
7.3534	1.0557
7.3430	1.0676
7.3326	1.0863
7.3223	1.1116
7.3119	1.1426
7.3016	1.1779
7.2914	1.2194
7.2811	1.2698
7.2709	1.3307
7.2607	1.4022
7.2506	1.4818
7.2404	1.5654
7.2303	1.6471
7.2203	1.7226
7.2102	1.7929
7.2002	1.8604
7.1902	1.9282
7.1803	1.9980
7.1703	2.0738
7.1604	2.1600
7.1506	2.2561
7.1407	2.3613
7.1309	2.4754
7.1211	2.5936
7.1113	2.7078
7.1016	2.8110
7.0919	2.9000
7.0822	2.9770
7.0725	3.0473
7.0629	3.1205
7.0533	3.2051
7.0437	3.3048
7.0341	3.4191
7.0246	3.5425
7.0151	3.6688
7.0056	3.7985
6.9962	3.9326
6.9867	4.0706
6.9773	4.2127
6.9679	4.3624
6.9586	4.5194
6.9493	4.6745
6.9400	4.8197
6.9307	4.9528
6.9214	5.0669
6.9122	5.1517
6.9030	5.2059
6.8938	5.2362
6.8847	5.2493
6.8755	5.2485
6.8664	5.2398
6.8573	5.2329
6.8483	5.2298
6.8393	5.2277
6.8302	5.2256
6.8213	5.2208
6.8123	5.2095
6.8034	5.1863
6.7944	5.1467
6.7855	5.0901
6.7767	5.0186
6.7678	4.9369
6.7590	4.8498
6.7502	4.7614
6.7414	4.6790
6.7327	4.6091
6.7239	4.5568
6.7152	4.5286
6.7065	4.5374
6.6979	4.5930
6.6892	4.6949
6.6806	4.8334
6.6720	4.9923
6.6634	5.1484
6.6549	5.2789
6.6464	5.3681
6.6378	5.4169
6.6294	5.4314
6.6209	5.4162
6.6124	5.3779
6.6040	5.3224
6.5956	5.2521
6.5872	5.1716
6.5789	5.0904
6.5705	5.0250
6.5622	4.9971
6.5539	5.0312
6.5456	5.1545
6.5374	5.3866
6.5292	5.7338
6.5209	6.1906
6.5128	6.7358
6.5046	7.3361
6.4964	7.9594
6.4883	8.5777
6.4802	9.1662
6.4721	9.7068
6.4640	10.186
6.4560	10.590
6.4480	10.910
6.4399	11.142
6.4320	11.286
6.4240	11.346
6.4160	11.320
6.4081	11.211
6.4002	11.023
6.3923	10.754
6.3844	10.414
6.3766	10.028
6.3687	9.6235
6.3609	9.2263
6.3531	8.8446
6.3454	8.4816
6.3376	8.1325
6.3299	7.7827
6.3221	7.4225
6.3144	7.0557
6.3068	6.6957
6.2991	6.3519
6.2914	6.0260
6.2838	5.7198
6.2762	5.4366
6.2686	5.1761
6.2611	4.9376
6.2535	4.7254
6.2460	4.5454
6.2385	4.4000
6.2310	4.2871
6.2235	4.2054
6.2160	4.1592
6.2086	4.1545
6.2011	4.1976
6.1937	4.2982
6.1863	4.4694
6.1790	4.7197
6.1716	5.0501
6.1643	5.4567
6.1570	5.9273
6.1496	6.4407
6.1424	6.9754
6.1351	7.5125
6.1278	8.0411
6.1206	8.5528
6.1134	9.0409
6.1062	9.5048
6.0990	9.9366
6.0918	10.320
6.0847	10.639
6.0776	10.881
6.0704	11.047
6.0633	11.146
6.0563	11.197
6.0492	11.224
6.0421	11.245
6.0351	11.253
6.0281	11.230
6.0211	11.158
6.0141	11.022
6.0071	10.814
6.0002	10.537
5.9932	10.207
5.9863	9.8451
5.9794	9.4672
5.9725	9.0911
5.9657	8.7409
5.9588	8.4377
5.9520	8.2019
5.9451	8.0546
5.9383	8.0110
5.9315	8.0816
5.9247	8.2613
5.9180	8.5332
5.9112	8.8806
5.9045	9.2848
5.8978	9.7291
5.8911	10.203
5.8844	10.697
5.8777	11.204
5.8711	11.720
5.8644	12.233
5.8578	12.740
5.8512	13.232
5.8446	13.708
5.8380	14.167
5.8314	14.610
5.8249	15.042
5.8184	15.472
5.8118	15.906
5.8053	16.336
5.7988	16.750
5.7923	17.146
5.7859	17.518
5.7794	17.868
5.7730	18.201
5.7666	18.529
5.7602	18.861
5.7538	19.186
5.7474	19.493
5.7410	19.775
5.7347	20.022
5.7283	20.220
5.7220	20.358
5.7157	20.429
5.7094	20.423
5.7031	20.318
5.6969	20.097
5.6906	19.749
5.6844	19.265
5.6782	18.639
5.6719	17.881
5.6657	17.015
5.6596	16.073
5.6534	15.103
5.6472	14.154
5.6411	13.277
5.6349	12.510
5.6288	11.869
5.6227	11.355
5.6166	10.953
5.6106	10.637
5.6045	10.387
5.5984	10.187
5.5924	10.031
5.5864	9.9228
5.5804	9.8667
5.5744	9.8667
5.5684	9.9228
5.5624	10.031
5.5564	10.184
5.5505	10.380
5.5445	10.617
5.5386	10.898
5.5327	11.221
5.5268	11.583
5.5209	11.974
5.5151	12.384
5.5092	12.802
5.5033	13.218
5.4975	13.628
5.4917	14.031
5.4859	14.423
5.4801	14.799
5.4743	15.151
5.4685	15.464
5.4628	15.711
5.4570	15.864
5.4513	15.892
5.4455	15.770
5.4398	15.485
5.4341	15.039
5.4284	14.444
5.4228	13.722
5.4171	12.900
5.4114	12.005
5.4058	11.069
5.4002	10.128
5.3945	9.2209
5.3889	8.3854
5.3833	7.6515
5.3778	7.0353
5.3722	6.5397
5.3666	6.1584
5.3611	5.8797
5.3555	5.6921
5.3500	5.5834
5.3445	5.5405
5.3390	5.5521
5.3335	5.6019
5.3280	5.6729
5.3225	5.7537
5.3171	5.8399
5.3116	5.9341
5.3062	6.0433
5.3008	6.1762
5.2954	6.3436
5.2900	6.5534
5.2846	6.8094
5.2792	7.1142
5.2738	7.4689
5.2684	7.8753
5.2631	8.3364
5.2578	8.8600
5.2524	9.4565
5.2471	10.133
5.2418	10.889
5.2365	11.707
5.2312	12.559
5.2260	13.403
5.2207	14.191
5.2154	14.883
5.2102	15.450
5.2050	15.874
5.1998	16.154
5.1945	16.305
5.1893	16.354
5.1842	16.329
5.1790	16.258
5.1738	16.166
5.1686	16.068
5.1635	15.967
5.1584	15.861
5.1532	15.752
5.1481	15.643
5.1430	15.543
5.1379	15.465
5.1328	15.417
5.1277	15.403
5.1227	15.411
5.1176	15.418
5.1126	15.394
5.1075	15.313
5.1025	15.159
5.0975	14.931
5.0925	14.642
5.0875	14.321
5.0825	14.000
5.0775	13.708
5.0726	13.466
5.0676	13.286
5.0627	13.166
5.0577	13.098
5.0528	13.066
5.0479	13.053
5.0430	13.044
5.0380	13.025
5.0332	12.991
5.0283	12.943
5.0234	12.895
5.0185	12.860
5.0137	12.856
5.0088	12.896
5.0040	12.986
4.9992	13.130
4.9944	13.336
4.9896	13.623
4.9848	14.013
4.9800	14.526
4.9752	15.165
4.9704	15.909
4.9657	16.708
4.9609	17.501
4.9562	18.224
4.9514	18.842
4.9467	19.345
4.9420	19.757
4.9373	20.126
4.9326	20.523
4.9279	21.021
4.9232	21.688
4.9186	22.571
4.9139	23.696
4.9092	25.054
4.9046	26.607
4.9000	28.292
4.8953	30.035
4.8907	31.763
4.8861	33.413
4.8815	34.942
4.8769	36.331
4.8723	37.579
4.8678	38.696
4.8632	39.695
4.8586	40.595
4.8541	41.411
4.8495	42.158
4.8450	42.847
4.8405	43.484
4.8360	44.078
4.8315	44.634
4.8270	45.152
4.8225	45.641
4.8180	46.109
4.8135	46.562
4.8090	47.004
4.8046	47.431
4.8001	47.843
4.7957	48.238
4.7913	48.613
4.7868	48.969
4.7824	49.310
4.7780	49.636
4.7736	49.945
4.7692	50.236
4.7648	50.508
4.7605	50.766
4.7561	51.006
4.7517	51.229
4.7474	51.433
4.7431	51.617
4.7387	51.776
4.7344	51.902
4.7301	51.990
4.7258	52.034
4.7215	52.019
4.7172	51.927
4.7129	51.732
4.7086	51.416
4.7043	50.969
4.7000	50.412
4.6958	49.807
4.6915	49.243
4.6873	48.822
4.6831	48.627
4.6788	48.698
4.6746	49.021
4.6704	49.540
4.6662	50.176
4.6620	50.855
4.6578	51.525
4.6536	52.166
4.6495	52.777
4.6453	53.366
4.6411	53.938
4.6370	54.493
4.6328	55.018
4.6287	55.500
4.6246	55.929
4.6205	56.304
4.6163	56.627
4.6122	56.905
4.6081	57.146
4.6040	57.355
4.6000	57.535
4.5959	57.689
4.5918	57.815
4.5877	57.913
4.5837	57.981
4.5796	58.017
4.5756	58.021
4.5716	57.988
4.5675	57.914
4.5635	57.793
4.5595	57.617
4.5555	57.379
4.5515	57.073
4.5475	56.696
4.5435	56.249
4.5395	55.737
4.5356	55.167
4.5316	54.543
4.5276	53.864
4.5237	53.127
4.5197	52.333
4.5158	51.490
4.5119	50.623
4.5080	49.772
4.5040	48.985
4.5001	48.298
4.4962	47.732
4.4923	47.285
4.4884	46.934
4.4846	46.648
4.4807	46.402
4.4768	46.194
4.4730	46.046
4.4691	45.987
4.4652	46.047
4.4614	46.240
4.4576	46.547
4.4537	46.924
4.4499	47.318
4.4461	47.688
4.4423	48.013
4.4385	48.294
4.4347	48.556
4.4309	48.825
4.4271	49.117
4.4233	49.437
4.4196	49.778
4.4158	50.133
4.4120	50.497
4.4083	50.869
4.4045	51.258
4.4008	51.670
4.3971	52.106
4.3934	52.565
4.3896	53.043
4.3859	53.528
4.3822	54.013
4.3785	54.494
4.3748	54.968
4.3711	55.429
4.3674	55.875
4.3638	56.303
4.3601	56.703
4.3564	57.065
4.3528	57.388
4.3491	57.674
4.3455	57.924
4.3418	58.138
4.3382	58.314
4.3346	58.451
4.3310	58.543
4.3273	58.590
4.3237	58.597
4.3201	58.565
4.3165	58.501
4.3129	58.407
4.3094	58.294
4.3058	58.169
4.3022	58.047
4.2986	57.941
4.2951	57.864
4.2915	57.820
4.2880	57.812
4.2844	57.839
4.2809	57.905
4.2774	58.006
4.2738	58.142
4.2703	58.310
4.2668	58.497
4.2633	58.688
4.2598	58.860
4.2563	59.000
4.2528	59.099
4.2493	59.153
4.2458	59.169
4.2424	59.166
4.2389	59.161
4.2354	59.167
4.2320	59.194
4.2285	59.245
4.2251	59.315
4.2216	59.390
4.2182	59.457
4.2148	59.512
4.2113	59.550
4.2079	59.573
4.2045	59.590
4.2011	59.611
4.1977	59.647
4.1943	59.705
4.1909	59.792
4.1875	59.907
4.1841	60.044
4.1808	60.192
4.1774	60.346
4.1740	60.496
4.1707	60.639
4.1673	60.773
4.1640	60.901
4.1606	61.022
4.1573	61.135
4.1540	61.245
4.1506	61.355
4.1473	61.463
4.1440	61.571
4.1407	61.684
4.1374	61.807
4.1341	61.935
4.1308	62.069
4.1275	62.211
4.1242	62.362
4.1209	62.516
4.1177	62.672
4.1144	62.833
4.1111	62.998
4.1079	63.162
4.1046	63.325
4.1014	63.487
4.0981	63.647
4.0949	63.805
4.0917	63.959
4.0884	64.112
4.0852	64.260
4.0820	64.397
4.0788	64.522
4.0756	64.631
4.0724	64.724
4.0692	64.801
4.0660	64.866
4.0628	64.923
4.0596	64.973
4.0565	65.014
4.0533	65.046
4.0501	65.067
4.0470	65.078
4.0438	65.080
4.0406	65.076
4.0375	65.068
4.0344	65.059
4.0312	65.048
4.0281	65.036
4.0250	65.028
4.0218	65.024
4.0187	65.026
4.0156	65.035
4.0125	65.048
4.0094	65.065
4.0063	65.086
4.0032	65.111
4.0001	65.143
3.9970	65.181
3.9940	65.226
3.9909	65.281
3.9878	65.345
3.9847	65.417
3.9817	65.496
3.9786	65.578
3.9756	65.660
3.9725	65.740
3.9695	65.820
3.9665	65.905
3.9634	65.996
3.9604	66.092
3.9574	66.189
3.9544	66.285
3.9513	66.375
3.9483	66.457
3.9453	66.536
3.9423	66.612
3.9393	66.681
3.9363	66.742
3.9333	66.789
3.9304	66.824
3.9274	66.848
3.9244	66.863
3.9214	66.874
3.9185	66.881
3.9155	66.882
3.9126	66.875
3.9096	66.854
3.9067	66.820
3.9037	66.775
3.9008	66.723
3.8979	66.666
3.8949	66.607
3.8920	66.548
3.8891	66.487
3.8862	66.424
3.8833	66.360
3.8804	66.294
3.8775	66.225
3.8746	66.155
3.8717	66.086
3.8688	66.022
3.8659	65.966
3.8630	65.924
3.8601	65.897
3.8573	65.880
3.8544	65.869
3.8515	65.865
3.8487	65.866
3.8458	65.870
3.8430	65.881
3.8401	65.906
3.8373	65.944
3.8344	65.986
3.8316	66.031
3.8288	66.074
3.8259	66.112
3.8231	66.141
3.8203	66.166
3.8175	66.190
3.8147	66.215
3.8119	66.237
3.8091	66.258
3.8063	66.274
3.8035	66.282
3.8007	66.282
3.7979	66.273
3.7951	66.250
3.7924	66.215
3.7896	66.171
3.7868	66.117
3.7841	66.058
3.7813	65.997
3.7785	65.937
3.7758	65.875
3.7730	65.808
3.7703	65.737
3.7676	65.666
3.7648	65.595
3.7621	65.527
3.7594	65.461
3.7566	65.389
3.7539	65.313
3.7512	65.234
3.7485	65.160
3.7458	65.099
3.7431	65.060
3.7404	65.046
3.7377	65.049
3.7350	65.055
3.7323	65.064
3.7296	65.078
3.7269	65.100
3.7242	65.132
3.7216	65.174
3.7189	65.228
3.7162	65.283
3.7136	65.331
3.7109	65.376
3.7083	65.424
3.7056	65.474
3.7030	65.527
3.7003	65.586
3.6977	65.657
3.6950	65.740
3.6924	65.837
3.6898	65.947
3.6872	66.063
3.6845	66.174
3.6819	66.274
3.6793	66.359
3.6767	66.429
3.6741	66.490
3.6715	66.546
3.6689	66.601
3.6663	66.652
3.6637	66.695
3.6611	66.731
3.6585	66.759
3.6560	66.776
3.6534	66.785
3.6508	66.791
3.6482	66.797
3.6457	66.798
3.6431	66.796
3.6406	66.794
3.6380	66.790
3.6355	66.781
3.6329	66.768
3.6304	66.753
3.6278	66.737
3.6253	66.717
3.6227	66.693
3.6202	66.665
3.6177	66.636
3.6152	66.605
3.6127	66.577
3.6101	66.557
3.6076	66.546
3.6051	66.539
3.6026	66.530
3.6001	66.519
3.5976	66.500
3.5951	66.476
3.5926	66.451
3.5901	66.426
3.5876	66.405
3.5852	66.392
3.5827	66.385
3.5802	66.382
3.5777	66.380
3.5753	66.376
3.5728	66.367
3.5704	66.351
3.5679	66.334
3.5654	66.319
3.5630	66.306
3.5605	66.293
3.5581	66.279
3.5557	66.261
3.5532	66.240
3.5508	66.216
3.5484	66.192
3.5459	66.167
3.5435	66.136
3.5411	66.098
3.5387	66.053
3.5363	66.003
3.5338	65.950
3.5314	65.893
3.5290	65.830
3.5266	65.758
3.5242	65.672
3.5218	65.575
3.5195	65.463
3.5171	65.341
3.5147	65.210
3.5123	65.069
3.5099	64.926
3.5075	64.795
3.5052	64.693
3.5028	64.635
3.5004	64.629
3.4981	64.671
3.4957	64.743
3.4934	64.821
3.4910	64.891
3.4887	64.941
3.4863	64.968
3.4840	64.976
3.4816	64.970
3.4793	64.955
3.4770	64.931
3.4746	64.905
3.4723	64.882
3.4700	64.861
3.4677	64.842
3.4653	64.819
3.4630	64.787
3.4607	64.740
3.4584	64.674
3.4561	64.593
3.4538	64.501
3.4515	64.401
3.4492	64.301
3.4469	64.205
3.4446	64.114
3.4423	64.024
3.4400	63.930
3.4378	63.830
3.4355	63.723
3.4332	63.606
3.4309	63.476
3.4287	63.331
3.4264	63.172
3.4241	63.002
3.4219	62.833
3.4196	62.682
3.4174	62.563
3.4151	62.486
3.4129	62.448
3.4106	62.445
3.4084	62.467
3.4061	62.506
3.4039	62.552
3.4017	62.598
3.3994	62.639
3.3972	62.672
3.3950	62.687
3.3928	62.682
3.3906	62.658
3.3883	62.616
3.3861	62.557
3.3839	62.488
3.3817	62.420
3.3795	62.358
3.3773	62.301
3.3751	62.262
3.3729	62.243
3.3707	62.242
3.3685	62.253
3.3663	62.274
3.3641	62.299
3.3620	62.318
3.3598	62.323
3.3576	62.318
3.3554	62.302
3.3533	62.274
3.3511	62.231
3.3489	62.176
3.3468	62.119
3.3446	62.065
3.3425	62.020
3.3403	61.987
3.3382	61.966
3.3360	61.948
3.3339	61.926
3.3317	61.897
3.3296	61.865
3.3274	61.829
3.3253	61.789
3.3232	61.747
3.3210	61.701
3.3189	61.650
3.3168	61.597
3.3147	61.543
3.3126	61.489
3.3104	61.431
3.3083	61.368
3.3062	61.306
3.3041	61.245
3.3020	61.188
3.2999	61.131
3.2978	61.072
3.2957	61.005
3.2936	60.929
3.2915	60.852
3.2894	60.782
3.2874	60.722
3.2853	60.672
3.2832	60.623
3.2811	60.566
3.2790	60.500
3.2770	60.429
3.2749	60.358
3.2728	60.291
3.2708	60.232
3.2687	60.181
3.2666	60.131
3.2646	60.077
3.2625	60.024
3.2605	59.973
3.2584	59.925
3.2564	59.879
3.2543	59.834
3.2523	59.789
3.2503	59.737
3.2482	59.681
3.2462	59.620
3.2442	59.558
3.2421	59.494
3.2401	59.432
3.2381	59.375
3.2361	59.323
3.2340	59.274
3.2320	59.228
3.2300	59.185
3.2280	59.144
3.2260	59.101
3.2240	59.055
3.2220	59.004
3.2200	58.945
3.2180	58.880
3.2160	58.811
3.2140	58.742
3.2120	58.678
3.2100	58.618
3.2080	58.562
3.2060	58.509
3.2040	58.458
3.2021	58.406
3.2001	58.348
3.1981	58.279
3.1961	58.204
3.1942	58.126
3.1922	58.049
3.1902	57.976
3.1883	57.914
3.1863	57.860
3.1844	57.809
3.1824	57.754
3.1805	57.700
3.1785	57.648
3.1766	57.590
3.1746	57.525
3.1727	57.458
3.1707	57.387
3.1688	57.308
3.1669	57.228
3.1649	57.158
3.1630	57.098
3.1611	57.045
3.1591	56.992
3.1572	56.936
3.1553	56.873
3.1534	56.800
3.1515	56.719
3.1495	56.639
3.1476	56.555
3.1457	56.465
3.1438	56.369
3.1419	56.274
3.1400	56.184
3.1381	56.102
3.1362	56.028
3.1343	55.958
3.1324	55.884
3.1305	55.805
3.1286	55.728
3.1268	55.662
3.1249	55.609
3.1230	55.565
3.1211	55.521
3.1192	55.466
3.1174	55.402
3.1155	55.338
3.1136	55.280
3.1117	55.230
3.1099	55.186
3.1080	55.139
3.1061	55.086
3.1043	55.025
3.1024	54.961
3.1006	54.898
3.0987	54.837
3.0969	54.779
3.0950	54.721
3.0932	54.661
3.0913	54.605
3.0895	54.560
3.0876	54.519
3.0858	54.477
3.0840	54.433
3.0821	54.387
3.0803	54.329
3.0785	54.261
3.0766	54.193
3.0748	54.128
3.0730	54.067
3.0712	54.008
3.0694	53.956
3.0675	53.907
3.0657	53.849
3.0639	53.787
3.0621	53.721
3.0603	53.650
3.0585	53.575
3.0567	53.496
3.0549	53.412
3.0531	53.323
3.0513	53.229
3.0495	53.137
3.0477	53.049
3.0459	52.965
3.0441	52.886
3.0423	52.808
3.0406	52.732
3.0388	52.655
3.0370	52.577
3.0352	52.502
3.0334	52.435
3.0317	52.376
3.0299	52.325
3.0281	52.279
3.0264	52.237
3.0246	52.188
3.0228	52.131
3.0211	52.066
3.0193	51.992
3.0176	51.915
3.0158	51.842
3.0140	51.782
3.0123	51.738
3.0105	51.704
3.0088	51.676
3.0070	51.647
3.0053	51.608
3.0036	51.559
3.0018	51.507
3.0001	51.456
2.9984	51.405
2.9966	51.350
2.9949	51.292
2.9932	51.233
2.9914	51.173
2.9897	51.115
2.9880	51.064
2.9863	51.011
2.9845	50.948
2.9828	50.873
2.9811	50.790
2.9794	50.707
2.9777	50.623
2.9760	50.538
2.9743	50.446
2.9726	50.343
2.9709	50.221
2.9692	50.085
2.9675	49.944
2.9658	49.811
2.9641	49.691
2.9624	49.588
2.9607	49.509
2.9590	49.454
2.9573	49.417
2.9556	49.396
2.9539	49.391
2.9523	49.392
2.9506	49.389
2.9489	49.382
2.9472	49.370
2.9455	49.348
2.9439	49.315
2.9422	49.283
2.9405	49.248
2.9389	49.201
2.9372	49.145
2.9355	49.092
2.9339	49.037
2.9322	48.973
2.9306	48.911
2.9289	48.852
2.9272	48.790
2.9256	48.721
2.9239	48.654
2.9223	48.595
2.9207	48.537
2.9190	48.481
2.9174	48.437
2.9157	48.397
2.9141	48.353
2.9124	48.306
2.9108	48.250
2.9092	48.182
2.9075	48.102
2.9059	48.019
2.9043	47.946
2.9027	47.883
2.9010	47.826
2.8994	47.776
2.8978	47.724
2.8962	47.665
2.8946	47.602
2.8929	47.544
2.8913	47.500
2.8897	47.465
2.8881	47.432
2.8865	47.393
2.8849	47.341
2.8833	47.277
2.8817	47.209
2.8801	47.148
2.8785	47.099
2.8769	47.061
2.8753	47.029
2.8737	46.999
2.8721	46.969
2.8705	46.942
2.8689	46.920
2.8673	46.904
2.8658	46.891
2.8642	46.879
2.8626	46.860
2.8610	46.832
2.8594	46.802
2.8579	46.771
2.8563	46.736
2.8547	46.704
2.8531	46.683
2.8516	46.674
2.8500	46.673
2.8484	46.680
2.8469	46.694
2.8453	46.707
2.8437	46.706
2.8422	46.692
2.8406	46.670
2.8391	46.641
2.8375	46.610
2.8360	46.587
2.8344	46.573
2.8329	46.568
2.8313	46.561
2.8298	46.542
2.8282	46.504
2.8267	46.438
2.8252	46.347
2.8236	46.243
2.8221	46.132
2.8205	46.023
2.8190	45.919
2.8175	45.818
2.8159	45.707
2.8144	45.576
2.8129	45.423
2.8114	45.246
2.8098	45.041
2.8083	44.813
2.8068	44.570
2.8053	44.310
2.8038	44.025
2.8022	43.713
2.8007	43.373
2.7992	42.997
2.7977	42.578
2.7962	42.116
2.7947	41.611
2.7932	41.058
2.7917	40.463
2.7902	39.837
2.7887	39.191
2.7872	38.535
2.7857	37.877
2.7842	37.220
2.7827	36.558
2.7812	35.892
2.7797	35.221
2.7782	34.534
2.7767	33.809
2.7752	33.026
2.7738	32.167
2.7723	31.170
2.7708	29.932
2.7693	28.368
2.7678	26.482
2.7664	24.412
2.7649	22.421
2.7634	20.853
2.7619	20.022
2.7605	20.040
2.7590	20.755
2.7575	21.864
2.7561	23.044
2.7546	24.056
2.7531	24.781
2.7517	25.219
2.7502	25.435
2.7488	25.471
2.7473	25.319
2.7458	24.977
2.7444	24.471
2.7429	23.855
2.7415	23.222
2.7400	22.692
2.7386	22.376
2.7371	22.334
2.7357	22.560
2.7343	22.988
2.7328	23.496
2.7314	23.944
2.7299	24.239
2.7285	24.358
2.7271	24.352
2.7256	24.332
2.7242	24.418
2.7228	24.689
2.7213	25.148
2.7199	25.733
2.7185	26.322
2.7171	26.761
2.7156	26.941
2.7142	26.834
2.7128	26.469
2.7114	25.917
2.7100	25.307
2.7085	24.790
2.7071	24.508
2.7057	24.580
2.7043	25.093
2.7029	26.069
2.7015	27.432
2.7001	29.053
2.6987	30.800
2.6973	32.573
2.6959	34.340
2.6945	36.136
2.6931	38.021
2.6917	40.015
2.6903	42.075
2.6889	44.129
2.6875	46.087
2.6861	47.876
2.6847	49.459
2.6833	50.835
2.6819	52.032
2.6805	53.087
2.6791	54.024
2.6778	54.858
2.6764	55.607
2.6750	56.293
2.6736	56.919
2.6722	57.478
2.6709	57.993
2.6695	58.518
2.6681	59.058
2.6667	59.596
2.6654	60.139
2.6640	60.685
2.6626	61.199
2.6613	61.646
2.6599	62.030
2.6585	62.372
2.6572	62.669
2.6558	62.919
2.6545	63.145
2.6531	63.357
2.6517	63.558
2.6504	63.743
2.6490	63.913
2.6477	64.070
2.6463	64.217
2.6450	64.361
2.6436	64.507
2.6423	64.651
2.6409	64.802
2.6396	64.958
2.6382	65.100
2.6369	65.211
2.6356	65.291
2.6342	65.340
2.6329	65.368
2.6315	65.392
2.6302	65.459
2.6289	65.592
2.6275	65.754
2.6262	65.918
2.6249	66.063
2.6236	66.146
2.6222	66.160
2.6209	66.128
2.6196	66.108
2.6183	66.127
2.6169	66.173
2.6156	66.257
2.6143	66.364
2.6130	66.444
2.6117	66.474
2.6103	66.452
2.6090	66.400
2.6077	66.340
2.6064	66.298
2.6051	66.321
2.6038	66.422
2.6025	66.547
2.6012	66.631
2.5999	66.637
2.5986	66.563
2.5973	66.441
2.5960	66.330
2.5947	66.303
2.5934	66.410
2.5921	66.597
2.5908	66.783
2.5895	66.924
2.5882	67.002
2.5869	67.031
2.5856	67.047
2.5843	67.081
2.5830	67.165
2.5817	67.281
2.5805	67.380
2.5792	67.451
2.5779	67.487
2.5766	67.502
2.5753	67.514
2.5741	67.529
2.5728	67.572
2.5715	67.650
2.5702	67.740
2.5690	67.833
2.5677	67.916
2.5664	67.982
2.5651	68.030
2.5639	68.072
2.5626	68.140
2.5613	68.249
2.5601	68.393
2.5588	68.556
2.5575	68.709
2.5563	68.826
2.5550	68.892
2.5538	68.910
2.5525	68.904
2.5513	68.894
2.5500	68.888
2.5487	68.895
2.5475	68.908
2.5462	68.925
2.5450	68.944
2.5437	68.964
2.5425	68.990
2.5413	69.021
2.5400	69.055
2.5388	69.094
2.5375	69.131
2.5363	69.162
2.5350	69.184
2.5338	69.197
2.5326	69.206
2.5313	69.213
2.5301	69.220
2.5289	69.236
2.5276	69.260
2.5264	69.286
2.5252	69.312
2.5239	69.338
2.5227	69.365
2.5215	69.388
2.5202	69.404
2.5190	69.410
2.5178	69.405
2.5166	69.387
2.5154	69.369
2.5141	69.362
2.5129	69.368
2.5117	69.389
2.5105	69.414
2.5093	69.433
2.5081	69.440
2.5068	69.435
2.5056	69.429
2.5044	69.434
2.5032	69.447
2.5020	69.467
2.5008	69.487
2.4996	69.500
2.4984	69.503
2.4972	69.496
2.4960	69.487
2.4948	69.476
2.4936	69.460
2.4924	69.446
2.4912	69.438
2.4900	69.439
2.4888	69.450
2.4876	69.476
2.4864	69.518
2.4852	69.570
2.4840	69.628
2.4828	69.693
2.4816	69.757
2.4805	69.814
2.4793	69.866
2.4781	69.918
2.4769	69.968
2.4757	70.012
2.4745	70.047
2.4734	70.074
2.4722	70.090
2.4710	70.097
2.4698	70.101
2.4686	70.105
2.4675	70.114
2.4663	70.123
2.4651	70.130
2.4640	70.133
2.4628	70.131
2.4616	70.127
2.4604	70.119
2.4593	70.110
2.4581	70.107
2.4569	70.110
2.4558	70.115
2.4546	70.116
2.4535	70.117
2.4523	70.121
2.4511	70.126
2.4500	70.127
2.4488	70.127
2.4477	70.125
2.4465	70.113
2.4454	70.089
2.4442	70.069
2.4431	70.063
2.4419	70.075
2.4408	70.104
2.4396	70.154
2.4385	70.222
2.4373	70.298
2.4362	70.370
2.4350	70.438
2.4339	70.502
2.4327	70.558
2.4316	70.605
2.4305	70.650
2.4293	70.701
2.4282	70.766
2.4270	70.839
2.4259	70.915
2.4248	70.994
2.4236	71.064
2.4225	71.120
2.4214	71.158
2.4202	71.187
2.4191	71.219
2.4180	71.258
2.4169	71.303
2.4157	71.354
2.4146	71.404
2.4135	71.441
2.4124	71.466
2.4112	71.489
2.4101	71.518
2.4090	71.557
2.4079	71.606
2.4068	71.663
2.4056	71.713
2.4045	71.742
2.4034	71.753
2.4023	71.746
2.4012	71.724
2.4001	71.689
2.3990	71.652
2.3979	71.623
2.3967	71.599
2.3956	71.572
2.3945	71.537
2.3934	71.488
2.3923	71.423
2.3912	71.349
2.3901	71.280
2.3890	71.228
2.3879	71.198
2.3868	71.189
2.3857	71.190
2.3846	71.193
2.3835	71.198
2.3824	71.207
2.3813	71.222
2.3802	71.246
2.3791	71.290
2.3781	71.357
2.3770	71.436
2.3759	71.518
2.3748	71.600
2.3737	71.674
2.3726	71.743
2.3715	71.808
2.3704	71.876
2.3694	71.945
2.3683	72.002
2.3672	72.037
2.3661	72.047
2.3650	72.035
2.3640	72.013
2.3629	71.992
2.3618	71.972
2.3607	71.950
2.3597	71.924
2.3586	71.895
2.3575	71.865
2.3564	71.840
2.3554	71.830
2.3543	71.837
2.3532	71.857
2.3522	71.883
2.3511	71.912
2.3500	71.949
2.3490	71.989
2.3479	72.026
2.3468	72.061
2.3458	72.098
2.3447	72.141
2.3436	72.185
2.3426	72.230
2.3415	72.285
2.3405	72.341
2.3394	72.386
2.3384	72.414
2.3373	72.435
2.3363	72.449
2.3352	72.451
2.3342	72.446
2.3331	72.448
2.3321	72.462
2.3310	72.476
2.3300	72.490
2.3289	72.507
2.3279	72.521
2.3268	72.529
2.3258	72.534
2.3247	72.546
2.3237	72.573
2.3226	72.605
2.3216	72.641
2.3206	72.674
2.3195	72.701
2.3185	72.724
2.3175	72.741
2.3164	72.762
2.3154	72.798
2.3144	72.844
2.3133	72.890
2.3123	72.936
2.3113	72.979
2.3102	73.019
2.3092	73.055
2.3082	73.099
2.3071	73.157
2.3061	73.219
2.3051	73.281
2.3041	73.347
2.3030	73.404
2.3020	73.444
2.3010	73.472
2.3000	73.496
2.2990	73.521
2.2979	73.549
2.2969	73.584
2.2959	73.628
2.2949	73.672
2.2939	73.704
2.2929	73.727
2.2918	73.746
2.2908	73.769
2.2898	73.799
2.2888	73.831
2.2878	73.873
2.2868	73.926
2.2858	73.983
2.2848	74.041
2.2838	74.099
2.2828	74.151
2.2818	74.187
2.2808	74.208
2.2798	74.227
2.2787	74.250
2.2777	74.276
2.2767	74.308
2.2757	74.345
2.2747	74.377
2.2738	74.396
2.2728	74.409
2.2718	74.414
2.2708	74.414
2.2698	74.417
2.2688	74.433
2.2678	74.461
2.2668	74.489
2.2658	74.509
2.2648	74.511
2.2638	74.492
2.2628	74.461
2.2618	74.437
2.2609	74.429
2.2599	74.437
2.2589	74.456
2.2579	74.478
2.2569	74.491
2.2559	74.498
2.2550	74.505
2.2540	74.520
2.2530	74.535
2.2520	74.550
2.2510	74.567
2.2501	74.580
2.2491	74.577
2.2481	74.560
2.2471	74.540
2.2462	74.524
2.2452	74.509
2.2442	74.501
2.2433	74.503
2.2423	74.511
2.2413	74.507
2.2403	74.497
2.2394	74.486
2.2384	74.475
2.2374	74.459
2.2365	74.444
2.2355	74.430
2.2345	74.414
2.2336	74.389
2.2326	74.370
2.2317	74.355
2.2307	74.339
2.2297	74.319
2.2288	74.290
2.2278	74.247
2.2269	74.189
2.2259	74.119
2.2250	74.048
2.2240	73.973
2.2231	73.891
2.2221	73.792
2.2211	73.667
2.2202	73.520
2.2192	73.362
2.2183	73.194
2.2173	73.011
2.2164	72.793
2.2155	72.514
2.2145	72.140
2.2136	71.647
2.2126	71.052
2.2117	70.398
2.2107	69.760
2.2098	69.231
2.2088	68.896
2.2079	68.799
2.2070	68.928
2.2060	69.225
2.2051	69.610
2.2041	69.999
2.2032	70.334
2.2023	70.599
2.2013	70.790
2.2004	70.917
2.1995	70.997
2.1985	71.036
2.1976	71.042
2.1967	71.026
2.1957	71.006
2.1948	70.991
2.1939	70.980
2.1930	70.983
2.1920	71.003
2.1911	71.029
2.1902	71.046
2.1893	71.065
2.1883	71.097
2.1874	71.134
2.1865	71.178
2.1856	71.239
2.1846	71.315
2.1837	71.391
2.1828	71.456
2.1819	71.517
2.1810	71.575
2.1800	71.623
2.1791	71.665
2.1782	71.701
2.1773	71.727
2.1764	71.749
2.1755	71.775
2.1746	71.808
2.1736	71.846
2.1727	71.876
2.1718	71.882
2.1709	71.863
2.1700	71.833
2.1691	71.819
2.1682	71.840
2.1673	71.905
2.1664	72.011
2.1655	72.135
2.1646	72.257
2.1637	72.373
2.1628	72.487
2.1619	72.596
2.1610	72.705
2.1601	72.822
2.1592	72.948
2.1583	73.077
2.1574	73.205
2.1565	73.331
2.1556	73.449
2.1547	73.554
2.1538	73.656
2.1529	73.757
2.1520	73.861
2.1511	73.968
2.1502	74.077
2.1493	74.190
2.1484	74.300
2.1475	74.403
2.1466	74.500
2.1458	74.588
2.1449	74.665
2.1440	74.737
2.1431	74.813
2.1422	74.895
2.1413	74.973
2.1404	75.042
2.1396	75.103
2.1387	75.153
2.1378	75.184
2.1369	75.207
2.1360	75.233
2.1352	75.266
2.1343	75.302
2.1334	75.345
2.1325	75.392
2.1316	75.434
2.1308	75.461
2.1299	75.487
2.1290	75.521
2.1281	75.556
2.1273	75.588
2.1264	75.619
2.1255	75.644
2.1247	75.655
2.1238	75.661
2.1229	75.678
2.1220	75.697
2.1212	75.703
2.1203	75.700
2.1194	75.699
2.1186	75.693
2.1177	75.681
2.1168	75.678
2.1160	75.687
2.1151	75.691
2.1143	75.682
2.1134	75.676
2.1125	75.677
2.1117	75.678
2.1108	75.694
2.1100	75.737
2.1091	75.802
2.1082	75.862
2.1074	75.904
2.1065	75.933
2.1057	75.934
2.1048	75.912
2.1040	75.893
2.1031	75.885
2.1023	75.890
2.1014	75.891
2.1005	75.893
2.0997	75.911
2.0988	75.934
2.0980	75.959
2.0971	75.981
2.0963	76.000
2.0955	76.016
2.0946	76.017
2.0938	76.018
2.0929	76.032
2.0921	76.055
2.0912	76.076
2.0904	76.071
2.0895	76.047
2.0887	76.018
2.0879	75.987
2.0870	75.967
2.0862	75.968
2.0853	76.002
2.0845	76.035
2.0837	76.082
2.0828	76.119
2.0820	76.115
2.0812	76.234
2.0803	76.170
2.0795	76.198
2.0760	76.198
2.0720	76.103
2.0680	76.038
2.0640	76.132
2.0600	76.162
2.0560	76.227
2.0520	76.256
2.0480	76.155
2.0440	76.372
2.0400	76.307
2.0360	76.111
2.0320	75.882
2.0280	75.689
2.0240	75.659
2.0200	75.788
2.0160	75.724
2.0120	75.718
2.0080	75.590
2.0040	75.183
2.0000	74.934
1.9960	74.930
1.9920	75.086
1.9880	74.960
1.9840	74.683
1.9800	74.465
1.9760	74.370
1.9720	74.492
1.9680	74.522
1.9640	74.122
1.9600	74.124
1.9560	74.186
1.9520	74.124
1.9480	74.062
1.9440	74.062
1.9400	73.940
1.9360	73.819
1.9320	73.782
1.9280	73.728
1.9240	73.449
1.9200	73.915
1.9160	73.853
1.9120	73.573
1.9080	73.573
1.9040	73.597
1.9000	73.664
1.8960	73.875
1.8920	74.116
1.8880	74.122
1.8840	74.060
1.8800	74.145
1.8760	74.304
1.8720	74.498
1.8680	74.160
1.8640	73.973
1.8600	74.061
1.8560	73.782
1.8520	74.114
1.8480	74.183
1.8440	74.492
1.8400	74.654
1.8360	74.749
1.8320	74.868
1.8280	74.399
1.8240	74.182
1.8200	73.938
1.8160	74.147
1.8120	74.145
1.8080	73.996
1.8040	73.907
1.8000	73.907
1.7960	73.786
1.7920	73.996
1.7880	73.787
1.7840	74.056
1.7800	74.176
1.7760	73.698
1.7720	73.131
1.7680	72.973
1.7640	72.705
1.7600	72.535
1.7560	72.566
1.7520	72.746
1.7480	72.807
1.7440	73.607
1.7400	73.727
1.7360	74.358
1.7320	74.541
1.7280	74.573
1.7240	74.573
1.7200	74.180
1.7160	74.147
1.7120	74.208
1.7080	74.186
1.7040	74.443
1.7000	73.617
1.6960	73.975
1.6920	73.795
1.6880	73.915
1.6840	73.499
1.6800	74.144
1.6760	74.204
1.6720	74.392
1.6680	73.825
1.6640	73.707
1.6600	73.587
1.6560	73.647
1.6520	73.617
1.6480	73.795
1.6440	74.246
1.6400	73.558
1.6360	73.468
1.6320	73.647
1.6280	73.617
1.6240	73.498
1.6200	73.022
1.6160	72.965
1.6120	73.084
1.6080	73.796
1.6040	74.006
1.6000	73.797
1.5960	73.617
1.5920	73.887
1.5880	74.006
1.5840	74.156
1.5800	74.399
1.5760	73.845
1.5720	73.725
1.5680	73.755
1.5640	73.607
1.5600	73.578
1.5560	73.549
1.5520	73.874
1.5480	73.043
1.5440	72.628
1.5400	72.515
1.5360	72.863
1.5320	73.308
1.5280	73.546
1.5240	73.100
1.5200	72.954
1.5160	73.192
1.5120	73.191
1.5080	73.636
1.5040	73.635
1.5000	73.695
1.4960	72.995
1.4920	72.896
1.4880	72.749
1.4840	72.632
1.4800	72.487
1.4760	72.460
1.4720	72.491
1.4680	73.196
1.4640	73.614
1.4600	73.555
1.4560	73.765
1.4520	73.586
1.4480	73.229
1.4440	73.287
1.4400	73.234
1.4360	73.353
1.4320	73.472
1.4280	73.533
1.4240	72.905
1.4200	72.397
1.4160	71.588
1.4120	70.706
1.4080	69.922
1.4040	70.118
1.4000	70.308
1.3960	70.639
1.3920	70.409
1.3880	70.065
1.3840	70.008
1.3800	70.971
1.3760	71.906
1.3720	71.734
1.3680	72.496
1.3640	72.276
1.3600	72.623
1.3560	72.504
1.3520	72.613
1.3480	72.735
1.3440	72.797
1.3400	72.684
1.3360	72.623
1.3320	72.794
1.3280	72.821
1.3240	72.800
1.3200	72.938
1.3160	72.800
1.3120	72.741
1.3080	72.741
1.3040	72.625
1.3000	72.714
1.2960	72.625
1.2920	72.710
1.2880	72.738
1.2840	72.671
1.2800	72.903
1.2760	72.896
1.2720	72.532
1.2680	72.983
1.2640	72.837
1.2600	72.746
1.2560	72.536
1.2520	72.627
1.2480	72.568
1.2440	72.215
1.2400	72.042
1.2360	71.919
1.2320	72.613
1.2280	73.304
1.2240	73.066
1.2200	72.735
1.2160	73.126
1.2120	73.038
1.2080	72.712
1.2040	72.622
1.2000	72.622
1.1960	72.482
1.1920	72.487
1.1880	72.267
1.1840	72.299
1.1800	72.331
1.1760	72.337
1.1720	72.222
1.1680	72.311
1.1640	72.231
1.1600	72.216
1.1560	72.235
1.1520	72.115
1.1480	72.398
1.1440	72.456
1.1400	72.606
1.1360	72.167
1.1320	71.902
1.1280	72.593
1.1240	72.769
1.1200	72.505
1.1160	72.292
1.1120	73.190
1.1080	73.131
1.1040	72.622
1.1000	72.167
1.0960	72.799
1.0920	72.719
1.0880	72.804
1.0840	72.976
1.0800	72.059
1.0760	72.324
1.0720	71.829
1.0680	71.542
1.0640	71.339
1.0600	71.297
1.0560	71.918
1.0520	72.161
1.0480	72.108
1.0440	72.082
1.0400	71.829
1.0360	72.209
1.0320	72.300
1.0280	72.249
1.0240	72.365
1.0200	72.546
1.0160	72.423
1.0120	71.657
1.0080	71.797
1.0040	71.912
1.0000	71.805
0.99600	71.706
0.99200	72.269
0.98800	72.269
0.98400	71.534
0.98000	71.813
0.97600	71.345
0.97200	71.468
0.96800	71.221
0.96400	71.269
0.96000	71.041
0.95600	71.007
0.95200	70.837
0.94800	70.657
0.94400	70.657
0.94000	70.274
0.93600	70.521
0.93200	70.308
0.92800	70.152
0.92400	70.109
0.92000	70.152
0.91600	69.997
0.91200	69.853
0.90800	69.695
0.90400	69.585
0.90000	69.516
0.89600	69.282
0.89200	69.193
0.88800	69.069
0.88400	68.910
0.88000	68.722
0.87600	68.796
0.87200	68.731
0.86800	68.441
0.86400	68.515
0.86000	68.427
0.85600	68.155
0.85200	68.120
0.84800	68.304
0.84400	68.011
0.84000	67.829
0.83600	68.104
0.83200	68.029
0.82800	67.883
0.82400	67.810
0.82000	68.321
0.81600	68.017
0.81200	67.926
0.80800	68.305
0.80400	68.286
0.80000	68.302
0.79900	67.982
0.79800	67.982
0.79700	67.726
0.79600	67.947
0.79500	68.044
0.79400	67.980
0.79300	67.726
0.79200	67.398
0.79100	67.431
0.79000	67.750
0.78900	67.982
0.78800	67.470
0.78700	67.726
0.78600	67.734
0.78500	67.885
0.78400	68.077
0.78300	68.272
0.78200	67.576
0.78100	67.379
0.78000	67.688
0.77900	68.167
0.77800	68.139
0.77700	68.015
0.77600	67.540
0.77500	67.801
0.77400	67.801
0.77300	67.705
0.77200	67.930
0.77100	67.836
0.77000	67.366
0.76900	67.144
0.76800	67.543
0.76700	68.012
0.76600	68.304
0.76500	68.476
0.76400	68.241
0.76300	68.047
0.76200	67.634
0.76100	68.041
0.76000	67.667
0.75900	67.868
0.75800	67.771
0.75700	67.578
0.75600	67.922
0.75500	67.782
0.75400	68.327
0.75300	67.930
0.75200	67.798
0.75100	67.895
0.75000	67.482
0.74900	67.438
0.74800	67.825
0.74700	67.922
0.74600	67.702
0.74500	67.922
0.74400	67.467
0.74300	66.877
0.74200	67.308
0.74100	68.088
0.74000	67.993
0.73900	67.685
0.73800	67.588
0.73700	67.534
0.73600	67.440
0.73500	67.438
0.73400	67.588
0.73300	67.812
0.73200	68.324
0.73100	68.045
0.73000	66.992
0.72900	67.167
0.72800	67.158
0.72700	67.291
0.72600	67.379
0.72500	67.574
0.72400	67.229
0.72300	67.326
0.72200	67.138
0.72100	67.096
0.72000	67.313
0.71900	67.880
0.71800	67.648
0.71700	67.584
0.71600	67.627
0.71500	67.058
0.71400	67.253
0.71300	67.379
0.71200	67.339
0.71100	66.879
0.71000	67.030
0.70900	66.745
0.70800	66.869
0.70700	66.401
0.70600	66.719
0.70500	67.075
0.70400	67.262
0.70300	66.877
0.70200	66.388
0.70100	66.392
0.70000	66.895
0.69900	67.460
0.69800	66.724
0.69700	66.861
0.69600	66.908
0.69500	66.835
0.69400	66.935
0.69300	66.771
0.69200	66.383
0.69100	66.534
0.69000	66.871
0.68900	66.861
0.68800	66.434
0.68700	66.634
0.68600	66.634
0.68500	66.761
0.68400	66.334
0.68300	66.034
0.68200	66.071
0.68100	66.171
0.68000	66.661
0.67900	66.624
0.67800	66.159
0.67700	65.733
0.67600	66.034
0.67500	66.323
0.67400	66.323
0.67300	66.524
0.67200	66.171
0.67100	66.751
0.67000	66.386
0.66900	66.248
0.66800	65.782
0.66700	65.682
0.66600	65.620
0.66500	65.357
0.66400	65.271
0.66300	65.310
0.66200	65.769
0.66100	65.769
0.66000	65.845
0.65900	66.162
0.65800	66.263
0.65700	66.337
0.65600	66.323
0.65500	66.285
0.65400	65.658
0.65300	65.133
0.65200	65.033
0.65100	65.110
0.65000	65.086
0.64900	64.903
0.64800	65.201
0.64700	65.983
0.64600	66.263
0.64500	65.655
0.64400	65.656
0.64300	65.127
0.64200	65.118
0.64100	65.056
0.64000	65.492
0.63900	65.469
0.63800	65.180
0.63700	64.371
0.63600	64.189
0.63500	64.471
0.63400	64.532
0.63300	64.471
0.63200	64.710
0.63100	65.017
0.63000	64.933
0.62900	64.410
0.62800	64.349
0.62700	64.549
0.62600	64.710
0.62500	64.817
0.62400	64.755
0.62300	64.771
0.62200	64.249
0.62100	64.088
0.62000	64.376
0.61900	64.606
0.61800	64.510
0.61700	64.527
0.61600	64.443
0.61500	64.420
0.61400	64.276
0.61300	64.132
0.61200	64.521
0.61100	64.139
0.61000	63.876
0.60900	63.411
0.60800	63.149
0.60700	62.947
0.60600	62.965
0.60500	62.704
0.60400	62.603
0.60300	62.623
0.60200	62.499
0.60100	62.289
0.60000	62.445
0.59900	63.039
0.59800	62.506
0.59700	62.707
0.59600	62.891
0.59500	62.038
0.59400	62.113
0.59300	62.496
0.59200	62.170
0.59100	62.419
0.59000	62.002
0.58900	61.825
0.58800	61.756
0.58700	61.222
0.58600	61.446
0.58500	61.743
0.58400	60.966
0.58300	60.573
0.58200	60.570
0.58100	60.922
0.58000	61.000
0.57900	60.913
0.57800	60.544
0.57700	60.000
0.57600	60.000
0.57500	59.956
0.57400	59.840
0.57300	59.696
0.57200	59.488
0.57100	59.615
0.57000	59.286
0.56900	58.926
0.56800	59.028
0.56700	58.948
0.56600	58.803
0.56500	58.645
0.56400	58.229
0.56300	58.148
0.56200	57.686
0.56100	57.483
0.56000	57.708
0.55900	57.210
0.55800	55.057
0.55700	55.249
0.55600	55.148
0.55500	55.047
0.55400	54.754
0.55300	54.555
0.55200	54.213
0.55100	53.967
0.55000	54.118
0.54900	54.221
0.54800	53.719
0.54700	53.471
0.54600	53.520
0.54500	53.220
0.54400	53.121
0.54300	53.520
0.54200	53.570
0.54100	53.269
0.54000	52.968
0.53900	53.216
0.53800	53.369
0.53700	52.914
0.53600	52.914
0.53500	52.562
0.53400	52.661
0.53300	52.370
0.53200	51.832
0.53100	51.784
0.53000	51.780
0.52900	51.622
0.52800	51.509
0.52700	51.561
0.52600	51.460
0.52500	51.461
0.52400	51.959
0.52300	51.914
0.52200	52.064
0.52100	52.116
0.52000	52.105
0.51900	51.955
0.51800	51.609
0.51700	51.456
0.51600	51.509
0.51500	51.552
0.51400	51.307
0.51300	51.556
0.51200	51.470
0.51100	51.222
0.51000	51.112
0.50900	50.717
0.50800	51.154
0.50700	51.441
0.50600	50.886
0.50500	50.744
0.50400	51.344
0.50300	51.584
0.50200	51.595
0.50100	51.689
0.50000	51.329
0.49900	50.952
0.49800	50.845
0.49700	50.690
0.49600	50.603
0.49500	50.744
0.49400	50.549
0.49300	50.388
0.49200	50.725
0.49100	50.861
0.49000	50.522
0.48900	50.520
0.48800	50.464
0.48700	50.286
0.48600	50.277
0.48500	50.009
0.48400	50.417
0.48300	50.660
0.48200	50.223
0.48100	50.020
0.48000	50.335
0.47900	49.917
0.47800	50.263
0.47700	49.954
0.47600	49.834
0.47500	49.640
0.47400	49.917
0.47300	49.414
0.47200	49.730
0.47100	49.694
0.47000	49.592
0.46900	49.172
0.46800	49.445
0.46700	49.160
0.46600	49.408
0.46500	49.216
0.46400	49.387
0.46300	49.331
0.46200	49.468
0.46100	49.340
0.46000	48.708
0.45900	50.739
0.45800	50.716
0.45700	50.445
0.45600	50.436
0.45500	50.090
0.45400	49.939
0.45300	49.757
0.45200	49.836
0.45100	49.653
0.45000	50.088
0.44900	50.124
0.44800	49.571
0.44700	49.925
0.44600	49.682
0.44500	49.368
0.44400	49.579
0.44300	48.740
0.44200	49.227
0.44100	49.505
0.44000	49.082
0.43900	49.068
0.43800	49.250
0.43700	48.991
0.43600	49.309
0.43500	49.400
0.43400	49.186
0.43300	48.823
0.43200	48.972
0.43100	48.688
0.43000	48.673
0.42900	49.119
0.42800	48.878
0.42700	48.147
0.42600	48.368
0.42500	48.270
0.42400	48.253
0.42300	48.803
0.42200	48.353
0.42100	48.330
0.42000	48.757
0.41900	48.419
0.41800	48.030
0.41700	47.949
0.41600	47.943
0.41500	48.115
0.41400	48.080
0.41300	47.795
0.41200	47.789
0.41100	47.574
0.41000	47.463
0.40900	47.702
0.40800	47.832
0.40700	47.875
0.40600	47.849
0.40500	47.445
0.40400	47.786
0.40300	47.468
0.40200	47.404
0.40100	47.420
0.40000	47.427
