Name: Marble 
Type:  Rocks
Class:  Metamorphic 
Subclass:  Marble 
Particle Size:  500-1500 Micrometer
Sample No.:  marble3.doc
Owner:  JHU
Wavelength Range:  All
Origin:  Sample No. 456, The Hunt and Salisbury Collection at the U.S. 
Geological Survey, Denver, Co.
Description: This is a medium-grained sample containing anhedral calcite 
with a few scattered (small) regions of recrystallized quartz.




Measurement:  Directional (10 Degree) Hemispherical Reflectance
First Column:  X
Second Column:  Y  
X Units:  Wavelength (micrometers)
Y Units:  Reflectance (percent)
First X Value: 14.0112
Last X Value:  0.4
Number of X Values: 2844
Additional Information:  None

14.0112	3.2089
13.9734	2.819
13.9359	2.5287
13.8985	2.4125
13.8614	2.4983
13.8244	2.7524
13.7876	3.1115
13.7511	3.502
13.7147	3.8727
13.6785	4.2208
13.6425	4.5466
13.6067	4.8531
13.5711	5.1624
13.5356	5.4687
13.5004	5.7479
13.4653	5.9838
13.4304	6.1673
13.3957	6.2948
13.3612	6.3451
13.3269	6.3111
13.2927	6.2147
13.2587	6.0649
13.2249	5.848
13.1912	5.5744
13.1577	5.2751
13.1244	4.9921
13.0913	4.728
13.0583	4.4851
13.0255	4.2815
12.9929	4.1277
12.9604	4.0153
12.9281	3.9484
12.8959	3.9353
12.8639	3.9728
12.8321	4.0341
12.8004	4.0937
12.7688	4.131
12.7375	4.1509
12.7063	4.1798
12.6752	4.2315
12.6443	4.2951
12.6135	4.3626
12.5829	4.4274
12.5524	4.4703
12.5221	4.4767
12.4919	4.4674
12.4619	4.4696
12.432	4.4753
12.4023	4.4626
12.3727	4.4427
12.3432	4.4263
12.3139	4.4157
12.2847	4.4248
12.2557	4.4686
12.2268	4.5421
12.198	4.6205
12.1694	4.6772
12.1409	4.7136
12.1125	4.7277
12.0843	4.7208
12.0562	4.7055
12.0282	4.6962
12.0003	4.6954
11.9726	4.6971
11.945	4.6768
11.9176	4.6205
11.8903	4.5265
11.8631	4.4042
11.836	4.2894
11.809	4.2286
11.7822	4.2409
11.7555	4.3239
11.7289	4.4452
11.7024	4.5655
11.676	4.6603
11.6498	4.7189
11.6237	4.7717
11.5977	4.8632
11.5718	5.0132
11.546	5.2665
11.5203	5.6936
11.4948	6.3664
11.4694	7.309
11.444	8.5063
11.4188	9.9976
11.3937	11.7552
11.3688	13.5403
11.3439	14.9988
11.3191	15.7768
11.2944	15.6043
11.2699	14.3397
11.2455	12.1373
11.2211	9.5485
11.1969	7.189
11.1727	5.4292
11.1487	4.3896
11.1248	3.9806
11.101	3.9741
11.0773	4.0901
11.0536	4.1667
11.0301	4.2023
11.0067	4.2337
10.9834	4.2679
10.9602	4.2966
10.937	4.2995
10.914	4.2666
10.8911	4.2057
10.8682	4.1353
10.8455	4.0647
10.8229	3.9925
10.8003	3.9195
10.7779	3.8511
10.7555	3.7872
10.7332	3.7298
10.7111	3.6908
10.689	3.6687
10.667	3.6546
10.6451	3.6386
10.6233	3.6194
10.6015	3.6075
10.5799	3.6104
10.5584	3.631
10.5369	3.6743
10.5155	3.7298
10.4942	3.7887
10.473	3.8501
10.4519	3.9056
10.4309	3.9482
10.4099	3.9819
10.3891	4.0105
10.3683	4.0387
10.3476	4.0643
10.327	4.0858
10.3065	4.091
10.286	4.0657
10.2656	4.0109
10.2454	3.9449
10.2251	3.8836
10.205	3.843
10.185	3.8294
10.165	3.8348
10.1451	3.8372
10.1253	3.8355
10.1056	3.835
10.0859	3.8389
10.0663	3.8487
10.0468	3.8671
10.0274	3.886
10.008	3.8886
9.9887	3.8684
9.9695	3.8353
9.9504	3.7975
9.9313	3.76
9.9123	3.7278
9.8934	3.7082
9.8746	3.7054
9.8558	3.7164
9.8371	3.7456
9.8185	3.7917
9.7999	3.8458
9.7814	3.8966
9.763	3.9391
9.7447	3.9793
9.7264	4.0307
9.7082	4.0999
9.69	4.1952
9.6719	4.3107
9.6539	4.4238
9.636	4.5124
9.6181	4.576
9.6003	4.6256
9.5825	4.6741
9.5649	4.7327
9.5472	4.8072
9.5297	4.8864
9.5122	4.944
9.4948	4.9563
9.4774	4.9299
9.4601	4.8791
9.4429	4.8155
9.4257	4.7579
9.4086	4.7198
9.3916	4.7048
9.3746	4.7088
9.3577	4.7215
9.3408	4.7433
9.324	4.7641
9.3073	4.766
9.2906	4.7413
9.274	4.694
9.2574	4.6411
9.2409	4.6064
9.2245	4.6055
9.2081	4.6502
9.1918	4.7287
9.1755	4.811
9.1593	4.8775
9.1431	4.9213
9.127	4.937
9.111	4.9304
9.095	4.9103
9.0791	4.8871
9.0632	4.8641
9.0474	4.8373
9.0316	4.8107
9.0159	4.7825
9.0003	4.7468
8.9847	4.7126
8.9691	4.6806
8.9536	4.65
8.9382	4.6296
8.9228	4.6236
8.9075	4.6241
8.8922	4.6179
8.877	4.6102
8.8618	4.6085
8.8467	4.5983
8.8316	4.5828
8.8166	4.5695
8.8016	4.5545
8.7867	4.5205
8.7718	4.4646
8.757	4.4078
8.7422	4.3595
8.7275	4.3116
8.7129	4.2787
8.6982	4.26
8.6837	4.243
8.6692	4.2164
8.6547	4.1836
8.6403	4.1635
8.6259	4.1544
8.6116	4.1429
8.5973	4.1334
8.583	4.1253
8.5688	4.1222
8.5547	4.125
8.5406	4.1339
8.5266	4.1519
8.5126	4.1667
8.4986	4.1667
8.4847	4.1559
8.4708	4.1408
8.457	4.137
8.4432	4.1406
8.4295	4.1468
8.4158	4.154
8.4022	4.1605
8.3886	4.1676
8.375	4.1768
8.3615	4.1851
8.3481	4.1972
8.3347	4.2126
8.3213	4.2341
8.3079	4.2638
8.2946	4.3001
8.2814	4.3348
8.2682	4.3574
8.255	4.36
8.2419	4.3524
8.2288	4.3519
8.2158	4.3665
8.2028	4.3959
8.1898	4.4318
8.1769	4.4641
8.164	4.4899
8.1512	4.5066
8.1384	4.5169
8.1256	4.5239
8.1129	4.5239
8.1002	4.5189
8.0876	4.5138
8.075	4.5172
8.0624	4.534
8.0499	4.5576
8.0374	4.5772
8.025	4.5883
8.0126	4.5933
8.0002	4.6029
7.9879	4.6253
7.9756	4.6583
7.9634	4.6959
7.9512	4.7294
7.939	4.7533
7.9268	4.7729
7.9147	4.7995
7.9027	4.8363
7.8906	4.877
7.8786	4.91
7.8667	4.932
7.8548	4.9471
7.8429	4.9596
7.831	4.9749
7.8192	5.0009
7.8075	5.0354
7.7957	5.0687
7.784	5.0916
7.7723	5.1088
7.7607	5.1301
7.7491	5.1558
7.7375	5.1818
7.726	5.2117
7.7145	5.2464
7.7031	5.2799
7.6916	5.3057
7.6802	5.3281
7.6689	5.357
7.6575	5.3875
7.6462	5.4146
7.635	5.439
7.6238	5.4627
7.6126	5.4905
7.6014	5.5278
7.5903	5.5792
7.5792	5.6465
7.5681	5.7163
7.5571	5.7761
7.5461	5.8128
7.5351	5.8274
7.5242	5.8369
7.5133	5.8621
7.5024	5.912
7.4916	5.9853
7.4807	6.0716
7.47	6.1572
7.4592	6.2314
7.4485	6.2932
7.4378	6.3511
7.4272	6.4178
7.4165	6.497
7.4059	6.587
7.3954	6.6822
7.3848	6.7775
7.3743	6.8705
7.3639	6.9578
7.3534	7.0454
7.343	7.1416
7.3326	7.2512
7.3223	7.3722
7.3119	7.4964
7.3016	7.6196
7.2914	7.7409
7.2811	7.8598
7.2709	7.9823
7.2607	8.123
7.2506	8.2977
7.2404	8.508
7.2303	8.7491
7.2203	9.0265
7.2102	9.3517
7.2002	9.7232
7.1902	10.1204
7.1803	10.5235
7.1703	10.9111
7.1604	11.2745
7.1506	11.6342
7.1407	12.0406
7.1309	12.5543
7.1211	13.1998
7.1113	13.9358
7.1016	14.6839
7.0919	15.3527
7.0822	15.8812
7.0725	16.252
7.0629	16.4798
7.0533	16.6142
7.0437	16.7066
7.0341	16.7817
7.0246	16.8554
7.0151	16.9339
7.0056	17.0212
6.9962	17.116
6.9867	17.2035
6.9773	17.2825
6.9679	17.3588
6.9586	17.4412
6.9493	17.5431
6.94	17.6687
6.9307	17.8175
6.9214	17.9883
6.9122	18.1711
6.903	18.3666
6.8938	18.5774
6.8847	18.7973
6.8755	19.0207
6.8664	19.2387
6.8573	19.4505
6.8483	19.6621
6.8393	19.8825
6.8302	20.1277
6.8213	20.3948
6.8123	20.6675
6.8034	20.9396
6.7944	21.2047
6.7855	21.464
6.7767	21.7284
6.7678	22.0129
6.759	22.3272
6.7502	22.6653
6.7414	23.0226
6.7327	23.4
6.7239	23.7901
6.7152	24.1841
6.7065	24.5777
6.6979	24.9605
6.6892	25.328
6.6806	25.6809
6.672	26.0233
6.6634	26.3609
6.6549	26.7023
6.6464	27.0535
6.6378	27.415
6.6294	27.7871
6.6209	28.1792
6.6124	28.5941
6.604	29.0211
6.5956	29.4487
6.5872	29.8675
6.5789	30.26
6.5705	30.6171
6.5622	30.9408
6.5539	31.2379
6.5456	31.5109
6.5374	31.7576
6.5292	31.9731
6.5209	32.1502
6.5128	32.2823
6.5046	32.3621
6.4964	32.3658
6.4883	32.2342
6.4802	31.8633
6.4721	31.1204
6.464	29.8937
6.456	28.1479
6.448	25.9579
6.4399	23.4903
6.432	20.9661
6.424	18.5927
6.416	16.492
6.4081	14.6887
6.4002	13.1414
6.3923	11.7889
6.3844	10.5704
6.3766	9.4403
6.3687	8.3855
6.3609	7.4113
6.3531	6.5188
6.3454	5.7132
6.3376	5.0041
6.3299	4.4021
6.3221	3.9026
6.3144	3.4924
6.3068	3.158
6.2991	2.8849
6.2914	2.6536
6.2838	2.4483
6.2762	2.2581
6.2686	2.0797
6.2611	1.9062
6.2535	1.7396
6.246	1.5942
6.2385	1.4796
6.231	1.394
6.2235	1.3331
6.216	1.2894
6.2086	1.2577
6.2011	1.2267
6.1937	1.1931
6.1863	1.1666
6.179	1.1463
6.1716	1.1245
6.1643	1.1032
6.157	1.0819
6.1496	1.0657
6.1424	1.0575
6.1351	1.0544
6.1278	1.0563
6.1206	1.0607
6.1134	1.0595
6.1062	1.0539
6.099	1.0462
6.0918	1.0462
6.0847	1.0563
6.0776	1.068
6.0704	1.0783
6.0633	1.0891
6.0563	1.0949
6.0492	1.0955
6.0421	1.0949
6.0351	1.0987
6.0281	1.1047
6.0211	1.1095
6.0141	1.1156
6.0071	1.1262
6.0002	1.1348
5.9932	1.1422
5.9863	1.1554
5.9794	1.1731
5.9725	1.1901
5.9657	1.2059
5.9588	1.2212
5.952	1.2333
5.9451	1.2376
5.9383	1.2353
5.9315	1.2343
5.9247	1.2331
5.918	1.231
5.9112	1.2315
5.9045	1.2358
5.8978	1.247
5.8911	1.2678
5.8844	1.2937
5.8777	1.3209
5.8711	1.3437
5.8644	1.3595
5.8578	1.3674
5.8512	1.3695
5.8446	1.3724
5.838	1.3815
5.8314	1.3937
5.8249	1.4013
5.8184	1.403
5.8118	1.3999
5.8053	1.3943
5.7988	1.3941
5.7923	1.4011
5.7859	1.4128
5.7794	1.4262
5.773	1.4322
5.7666	1.4312
5.7602	1.4248
5.7538	1.4181
5.7474	1.4222
5.741	1.4381
5.7347	1.4599
5.7283	1.4774
5.722	1.4865
5.7157	1.4939
5.7094	1.4984
5.7031	1.5006
5.6969	1.5123
5.6906	1.5362
5.6844	1.5653
5.6782	1.5889
5.6719	1.6076
5.6657	1.625
5.6596	1.638
5.6534	1.6437
5.6472	1.6473
5.6411	1.6514
5.6349	1.6569
5.6288	1.6607
5.6227	1.6578
5.6166	1.6499
5.6106	1.6415
5.6045	1.6339
5.5984	1.6287
5.5924	1.627
5.5864	1.6257
5.5804	1.6149
5.5744	1.5858
5.5684	1.5463
5.5624	1.5075
5.5564	1.4765
5.5505	1.4669
5.5445	1.4868
5.5386	1.5284
5.5327	1.5805
5.5268	1.6373
5.5209	1.6978
5.5151	1.7555
5.5092	1.8064
5.5033	1.8591
5.4975	1.9162
5.4917	1.9739
5.4859	2.0334
5.4801	2.1006
5.4743	2.177
5.4685	2.2641
5.4628	2.3624
5.457	2.4739
5.4513	2.6012
5.4455	2.7368
5.4398	2.8802
5.4341	3.0361
5.4284	3.2029
5.4228	3.3787
5.4171	3.5613
5.4114	3.7587
5.4058	3.9784
5.4002	4.2095
5.3945	4.448
5.3889	4.6983
5.3833	4.9521
5.3778	5.2014
5.3722	5.451
5.3666	5.7149
5.3611	5.9975
5.3555	6.2925
5.35	6.5946
5.3445	6.9023
5.339	7.2101
5.3335	7.5203
5.328	7.8405
5.3225	8.1752
5.3171	8.5259
5.3116	8.8894
5.3062	9.2518
5.3008	9.5992
5.2954	9.9242
5.29	10.2271
5.2846	10.5096
5.2792	10.7759
5.2738	11.0436
5.2684	11.3271
5.2631	11.6332
5.2578	11.9609
5.2524	12.3036
5.2471	12.6464
5.2418	12.9689
5.2365	13.2579
5.2312	13.5166
5.226	13.7556
5.2207	13.9916
5.2154	14.2416
5.2102	14.5148
5.205	14.8098
5.1998	15.1137
5.1945	15.4081
5.1893	15.6776
5.1842	15.9123
5.179	16.1176
5.1738	16.3111
5.1686	16.5085
5.1635	16.7213
5.1584	16.9473
5.1532	17.1748
5.1481	17.406
5.143	17.6476
5.1379	17.8699
5.1328	17.9517
5.1277	17.6629
5.1227	16.7932
5.1176	15.3048
5.1126	13.4226
5.1075	11.6317
5.1025	10.5309
5.0975	10.5727
5.0925	11.8289
5.0875	13.9277
5.0825	16.2784
5.0775	18.3443
5.0726	19.8112
5.0676	20.6373
5.0627	20.9915
5.0577	21.1049
5.0528	21.146
5.0479	21.1702
5.043	21.1757
5.038	21.1544
5.0332	21.1116
5.0283	21.0618
5.0234	21.0135
5.0185	20.9688
5.0137	20.9311
5.0088	20.9022
5.004	20.8742
4.9992	20.8357
4.9944	20.7809
4.9896	20.7108
4.9848	20.6218
4.98	20.5123
4.9752	20.39
4.9704	20.2653
4.9657	20.1466
4.9609	20.0447
4.9562	19.9689
4.9514	19.9208
4.9467	19.8933
4.942	19.877
4.9373	19.8696
4.9326	19.8672
4.9279	19.8696
4.9232	19.8868
4.9186	19.9246
4.9139	19.9787
4.9092	20.0421
4.9046	20.1124
4.9	20.1916
4.8953	20.2723
4.8907	20.3452
4.8861	20.4151
4.8815	20.4799
4.8769	20.5367
4.8723	20.5862
4.8678	20.64
4.8632	20.7084
4.8586	20.7824
4.8541	20.8568
4.8495	20.9376
4.845	21.0202
4.8405	21.0918
4.836	21.1494
4.8315	21.1997
4.827	21.2403
4.8225	21.2601
4.818	21.2626
4.8135	21.2589
4.809	21.2508
4.8046	21.2355
4.8001	21.2197
4.7957	21.203
4.7913	21.1661
4.7868	21.0802
4.7824	20.9187
4.778	20.6572
4.7736	20.2818
4.7692	19.8031
4.7648	19.2442
4.7605	18.6312
4.7561	17.9861
4.7517	17.3198
4.7474	16.6233
4.7431	15.8668
4.7387	15.0177
4.7344	14.049
4.7301	12.9433
4.7258	11.7109
4.7215	10.3974
4.7172	9.0791
4.7129	7.8412
4.7086	6.7559
4.7043	5.8716
4.7	5.2026
4.6958	4.733
4.6915	4.4238
4.6873	4.2264
4.6831	4.1028
4.6788	4.0264
4.6746	3.9808
4.6704	3.964
4.6662	3.9853
4.662	4.0619
4.6578	4.208
4.6536	4.4387
4.6495	4.7646
4.6453	5.1868
4.6411	5.6986
4.637	6.2857
4.6328	6.9191
4.6287	7.5651
4.6246	8.1901
4.6205	8.7652
4.6163	9.2685
4.6122	9.684
4.6081	10.0177
4.604	10.2859
4.6	10.501
4.5959	10.6795
4.5918	10.8298
4.5877	10.9518
4.5837	11.0458
4.5796	11.1092
4.5756	11.152
4.5716	11.1829
4.5675	11.2056
4.5635	11.2298
4.5595	11.2573
4.5555	11.2841
4.5515	11.3077
4.5475	11.3258
4.5435	11.3346
4.5395	11.3343
4.5356	11.3314
4.5316	11.3377
4.5276	11.3595
4.5237	11.3944
4.5197	11.4408
4.5158	11.4973
4.5119	11.5609
4.508	11.6423
4.504	11.76
4.5001	11.932
4.4962	12.1687
4.4923	12.4718
4.4884	12.8403
4.4846	13.2694
4.4807	13.7474
4.4768	14.2578
4.473	14.7775
4.4691	15.283
4.4652	15.7539
4.4614	16.1776
4.4576	16.5664
4.4537	16.9514
4.4499	17.3677
4.4461	17.8349
4.4423	18.3539
4.4385	18.9047
4.4347	19.4492
4.4309	19.9507
4.4271	20.3945
4.4233	20.7802
4.4196	21.1145
4.4158	21.4058
4.412	21.6653
4.4083	21.8965
4.4045	22.1012
4.4008	22.2937
4.3971	22.4897
4.3934	22.6893
4.3896	22.8813
4.3859	23.0467
4.3822	23.1555
4.3785	23.1673
4.3748	23.0462
4.3711	22.7784
4.3674	22.3612
4.3638	21.8133
4.3601	21.1907
4.3564	20.5649
4.3528	19.9991
4.3491	19.5378
4.3455	19.203
4.3418	18.9932
4.3382	18.8773
4.3346	18.8166
4.331	18.7862
4.3273	18.7585
4.3237	18.7142
4.3201	18.6623
4.3165	18.6331
4.3129	18.6597
4.3094	18.763
4.3058	18.9442
4.3022	19.1834
4.2986	19.4296
4.2951	19.6339
4.2915	19.7753
4.288	19.8526
4.2844	19.8708
4.2809	19.8409
4.2774	19.7725
4.2738	19.6708
4.2703	19.5318
4.2668	19.3552
4.2633	19.16
4.2598	18.9669
4.2563	18.7855
4.2528	18.619
4.2493	18.4604
4.2458	18.2991
4.2424	18.1204
4.2389	17.9127
4.2354	17.6845
4.232	17.4576
4.2285	17.2533
4.2251	17.0801
4.2216	16.9313
4.2182	16.7966
4.2148	16.6575
4.2113	16.4927
4.2079	16.2905
4.2045	16.0659
4.2011	15.8384
4.1977	15.6132
4.1943	15.3864
4.1909	15.1596
4.1875	14.9296
4.1841	14.6861
4.1808	14.42
4.1774	14.1461
4.174	13.8797
4.1707	13.6197
4.1673	13.357
4.164	13.0888
4.1606	12.8122
4.1573	12.5196
4.154	12.2035
4.1506	11.8714
4.1473	11.5305
4.144	11.1836
4.1407	10.8285
4.1374	10.468
4.1341	10.1076
4.1308	9.7492
4.1275	9.3935
4.1242	9.0423
4.1209	8.6992
4.1177	8.3733
4.1144	8.0649
4.1111	7.773
4.1079	7.5047
4.1046	7.2586
4.1014	7.0285
4.0981	6.8054
4.0949	6.5817
4.0917	6.3523
4.0884	6.1121
4.0852	5.8634
4.082	5.6223
4.0788	5.3957
4.0756	5.1845
4.0724	4.9895
4.0692	4.8045
4.066	4.622
4.0628	4.4399
4.0596	4.259
4.0565	4.0817
4.0533	3.9049
4.0501	3.7255
4.047	3.5484
4.0438	3.3757
4.0406	3.2132
4.0375	3.073
4.0344	2.9591
4.0312	2.8742
4.0281	2.8134
4.025	2.7727
4.0218	2.741
4.0187	2.7072
4.0156	2.6701
4.0125	2.6333
4.0094	2.5957
4.0063	2.5627
4.0032	2.5358
4.0001	2.5106
3.997	2.4782
3.994	2.4354
3.9909	2.3859
3.9878	2.3436
3.9847	2.3167
3.9817	2.3103
3.9786	2.3191
3.9756	2.3303
3.9725	2.3378
3.9695	2.3333
3.9665	2.3174
3.9634	2.3081
3.9604	2.3141
3.9574	2.3342
3.9544	2.3701
3.9513	2.4177
3.9483	2.4626
3.9453	2.4933
3.9423	2.5067
3.9393	2.5089
3.9363	2.5005
3.9333	2.4868
3.9304	2.4905
3.9274	2.5161
3.9244	2.5486
3.9214	2.5856
3.9185	2.6213
3.9155	2.6434
3.9126	2.6467
3.9096	2.6366
3.9067	2.628
3.9037	2.6235
3.9008	2.6206
3.8979	2.6271
3.8949	2.6431
3.892	2.6596
3.8891	2.6754
3.8862	2.6862
3.8833	2.6852
3.8804	2.6716
3.8775	2.6493
3.8746	2.6314
3.8717	2.6273
3.8688	2.6369
3.8659	2.6622
3.863	2.6952
3.8601	2.722
3.8573	2.7347
3.8544	2.7359
3.8515	2.7335
3.8487	2.7287
3.8458	2.7244
3.843	2.729
3.8401	2.744
3.8373	2.7684
3.8344	2.8027
3.8316	2.8489
3.8288	2.9081
3.8259	2.9723
3.8231	3.0378
3.8203	3.105
3.8175	3.1699
3.8147	3.24
3.8119	3.3291
3.8091	3.4522
3.8063	3.6362
3.8035	3.9042
3.8007	4.2765
3.7979	4.7651
3.7951	5.3608
3.7924	6.0443
3.7896	6.7782
3.7868	7.5117
3.7841	8.2092
3.7813	8.8449
3.7785	9.4098
3.7758	9.9127
3.773	10.3677
3.7703	10.7936
3.7676	11.1965
3.7648	11.5683
3.7621	11.9047
3.7594	12.1971
3.7566	12.4386
3.7539	12.6364
3.7512	12.8187
3.7485	13.0216
3.7458	13.2707
3.7431	13.5796
3.7404	13.9504
3.7377	14.3574
3.735	14.7631
3.7323	15.1429
3.7296	15.4883
3.7269	15.7922
3.7242	16.0508
3.7216	16.2753
3.7189	16.4764
3.7162	16.6537
3.7136	16.8114
3.7109	16.9628
3.7083	17.1112
3.7056	17.2495
3.703	17.3744
3.7003	17.4885
3.6977	17.5899
3.695	17.6772
3.6924	17.7517
3.6898	17.811
3.6872	17.8467
3.6845	17.855
3.6819	17.8409
3.6793	17.8125
3.6767	17.7747
3.6741	17.7347
3.6715	17.6955
3.6689	17.6507
3.6663	17.5916
3.6637	17.5096
3.6611	17.4002
3.6585	17.27
3.656	17.1234
3.6534	16.9666
3.6508	16.8064
3.6482	16.6487
3.6457	16.4975
3.6431	16.3441
3.6406	16.1853
3.638	16.0248
3.6355	15.8594
3.6329	15.6878
3.6304	15.5079
3.6278	15.3192
3.6253	15.1261
3.6227	14.9186
3.6202	14.6985
3.6177	14.4705
3.6152	14.2281
3.6127	13.963
3.6101	13.6683
3.6076	13.3412
3.6051	12.9852
3.6026	12.5926
3.6001	12.1698
3.5976	11.7202
3.5951	11.237
3.5926	10.7118
3.5901	10.1491
3.5876	9.5615
3.5852	8.9616
3.5827	8.363
3.5802	7.7952
3.5777	7.2947
3.5753	6.8939
3.5728	6.6198
3.5704	6.4812
3.5679	6.453
3.5654	6.4853
3.563	6.52
3.5605	6.5143
3.5581	6.4406
3.5557	6.2937
3.5532	6.093
3.5508	5.8591
3.5484	5.602
3.5459	5.3321
3.5435	5.0591
3.5411	4.7895
3.5387	4.5217
3.5363	4.2578
3.5338	4.0057
3.5314	3.7748
3.529	3.5651
3.5266	3.3762
3.5242	3.2132
3.5218	3.0795
3.5195	2.9727
3.5171	2.8884
3.5147	2.8242
3.5123	2.7843
3.5099	2.7606
3.5075	2.745
3.5052	2.7388
3.5028	2.7383
3.5004	2.7357
3.4981	2.722
3.4957	2.6976
3.4934	2.6708
3.491	2.6485
3.4887	2.6376
3.4863	2.6361
3.484	2.6378
3.4816	2.6369
3.4793	2.6306
3.477	2.6193
3.4746	2.6143
3.4723	2.6271
3.47	2.6565
3.4677	2.6907
3.4653	2.7199
3.463	2.7431
3.4607	2.7574
3.4584	2.7622
3.4561	2.7684
3.4538	2.7787
3.4515	2.7936
3.4492	2.8087
3.4469	2.8177
3.4446	2.8263
3.4423	2.8328
3.44	2.8397
3.4378	2.851
3.4355	2.8615
3.4332	2.8716
3.4309	2.8739
3.4287	2.8668
3.4264	2.8589
3.4241	2.8505
3.4219	2.8515
3.4196	2.8658
3.4174	2.8847
3.4151	2.8983
3.4129	2.8979
3.4106	2.89
3.4084	2.8799
3.4061	2.862
3.4039	2.8459
3.4017	2.8434
3.3994	2.8502
3.3972	2.862
3.395	2.8733
3.3928	2.884
3.3906	2.8864
3.3883	2.8699
3.3861	2.8426
3.3839	2.816
3.3817	2.7974
3.3795	2.7964
3.3773	2.8134
3.3751	2.8359
3.3729	2.8512
3.3707	2.8524
3.3685	2.8391
3.3663	2.8108
3.3641	2.778
3.362	2.7531
3.3598	2.7415
3.3576	2.734
3.3554	2.7232
3.3533	2.7127
3.3511	2.706
3.3489	2.7096
3.3468	2.7405
3.3446	2.8137
3.3425	2.9445
3.3403	3.1377
3.3382	3.3831
3.336	3.6717
3.3339	3.9872
3.3317	4.3086
3.3296	4.6208
3.3274	4.9141
3.3253	5.1943
3.3232	5.468
3.321	5.735
3.3189	6.0058
3.3168	6.2877
3.3147	6.5765
3.3126	6.8612
3.3104	7.1322
3.3083	7.39
3.3062	7.634
3.3041	7.8666
3.302	8.0998
3.2999	8.3465
3.2978	8.6104
3.2957	8.8862
3.2936	9.1683
3.2915	9.4552
3.2894	9.7409
3.2874	10.0232
3.2853	10.307
3.2832	10.5979
3.2811	10.8989
3.279	11.2039
3.277	11.5059
3.2749	11.8004
3.2728	12.0815
3.2708	12.3447
3.2687	12.5996
3.2666	12.8531
3.2646	13.1075
3.2625	13.3615
3.2605	13.6181
3.2584	13.8791
3.2564	14.1355
3.2543	14.3732
3.2523	14.5933
3.2503	14.7938
3.2482	14.9756
3.2462	15.15
3.2442	15.3356
3.2421	15.5479
3.2401	15.7862
3.2381	16.0424
3.2361	16.3075
3.234	16.5657
3.232	16.8104
3.23	17.0461
3.228	17.2856
3.226	17.5378
3.224	17.8029
3.222	18.0728
3.22	18.3307
3.218	18.5639
3.216	18.7767
3.214	18.9814
3.212	19.1913
3.21	19.409
3.208	19.6308
3.206	19.8495
3.204	20.054
3.2021	20.2376
3.2001	20.4056
3.1981	20.5589
3.1961	20.6939
3.1942	20.8068
3.1922	20.8939
3.1902	20.9548
3.1883	20.9881
3.1863	21.0003
3.1844	20.9989
3.1824	20.9769
3.1805	20.9254
3.1785	20.8367
3.1766	20.6951
3.1746	20.4778
3.1727	20.1636
3.1707	19.7488
3.1688	19.2248
3.1669	18.5941
3.1649	17.8905
3.163	17.1679
3.1611	16.4846
3.1591	15.8845
3.1572	15.4041
3.1553	15.0601
3.1534	14.838
3.1515	14.7263
3.1495	14.722
3.1476	14.8172
3.1457	14.9952
3.1438	15.2268
3.1419	15.4881
3.14	15.7532
3.1381	16.0042
3.1362	16.2432
3.1343	16.4716
3.1324	16.6753
3.1305	16.8291
3.1286	16.9014
3.1268	16.866
3.1249	16.7009
3.123	16.4047
3.1211	15.9994
3.1192	15.5199
3.1174	15.0081
3.1155	14.5176
3.1136	14.1104
3.1117	13.8336
3.1099	13.7032
3.108	13.7154
3.1061	13.8515
3.1043	14.0834
3.1024	14.3856
3.1006	14.7418
3.0987	15.1455
3.0969	15.5874
3.095	16.0558
3.0932	16.5408
3.0913	17.0418
3.0895	17.5607
3.0876	18.1073
3.0858	18.6745
3.084	19.2397
3.0821	19.7803
3.0803	20.2723
3.0785	20.6991
3.0766	21.0568
3.0748	21.3532
3.073	21.6095
3.0712	21.8384
3.0694	22.055
3.0675	22.277
3.0657	22.5131
3.0639	22.7686
3.0621	23.044
3.0603	23.3424
3.0585	23.6685
3.0567	24.019
3.0549	24.3858
3.0531	24.7576
3.0513	25.1253
3.0495	25.4752
3.0477	25.8037
3.0459	26.1226
3.0441	26.4428
3.0423	26.7635
3.0406	27.0792
3.0388	27.3889
3.037	27.6981
3.0352	28.0051
3.0334	28.3123
3.0317	28.6247
3.0299	28.9419
3.0281	29.2485
3.0264	29.5332
3.0246	29.7933
3.0228	30.0383
3.0211	30.2826
3.0193	30.5354
3.0176	30.8058
3.0158	31.0977
3.014	31.4004
3.0123	31.705
3.0105	31.9978
3.0088	32.2773
3.007	32.5454
3.0053	32.7981
3.0036	33.0362
3.0018	33.2603
3.0001	33.474
2.9984	33.6783
2.9966	33.8697
2.9949	34.0585
2.9932	34.2516
2.9914	34.436
2.9897	34.6023
2.988	34.7481
2.9863	34.8715
2.9845	34.9713
2.9828	35.0531
2.9811	35.1358
2.9794	35.2251
2.9777	35.3036
2.976	35.3672
2.9743	35.4201
2.9726	35.4593
2.9709	35.4892
2.9692	35.5182
2.9675	35.551
2.9658	35.5823
2.9641	35.6036
2.9624	35.6101
2.9607	35.6036
2.959	35.5873
2.9573	35.567
2.9556	35.545
2.9539	35.523
2.9523	35.5125
2.9506	35.5182
2.9489	35.5342
2.9472	35.5646
2.9455	35.6232
2.9439	35.7048
2.9422	35.7979
2.9405	35.8984
2.9389	36.0075
2.9372	36.1161
2.9355	36.2185
2.9339	36.3152
2.9322	36.4126
2.9306	36.5021
2.9289	36.5707
2.9272	36.6186
2.9256	36.6501
2.9239	36.6767
2.9223	36.714
2.9207	36.7655
2.919	36.8294
2.9174	36.8971
2.9157	36.9509
2.9141	36.9851
2.9124	37.0032
2.9108	37.0188
2.9092	37.0422
2.9075	37.0782
2.9059	37.1224
2.9043	37.17
2.9027	37.2196
2.901	37.2796
2.8994	37.3485
2.8978	37.4238
2.8962	37.5028
2.8946	37.5725
2.8929	37.6179
2.8913	37.6436
2.8897	37.671
2.8881	37.7151
2.8865	37.7613
2.8849	37.8084
2.8833	37.8524
2.8817	37.8753
2.8801	37.8766
2.8785	37.8706
2.8769	37.8801
2.8753	37.9062
2.8737	37.9357
2.8721	37.9711
2.8705	37.9998
2.8689	38.0076
2.8673	37.9921
2.8658	37.9485
2.8642	37.8919
2.8626	37.8308
2.861	37.7704
2.8594	37.7141
2.8579	37.6565
2.8563	37.5945
2.8547	37.5234
2.8531	37.4349
2.8516	37.3344
2.85	37.2243
2.8484	37.0961
2.8469	36.937
2.8453	36.7365
2.8437	36.4893
2.8422	36.1934
2.8406	35.8517
2.8391	35.4685
2.8375	35.0416
2.836	34.5667
2.8344	34.0393
2.8329	33.4598
2.8313	32.838
2.8298	32.1942
2.8282	31.5654
2.8267	30.9728
2.8252	30.4093
2.8236	29.8645
2.8221	29.3147
2.8205	28.7273
2.819	28.0833
2.8175	27.3873
2.8159	26.6657
2.8144	25.9393
2.8129	25.2098
2.8114	24.4808
2.8098	23.7388
2.8083	22.9646
2.8068	22.1593
2.8053	21.3376
2.8038	20.513
2.8022	19.6907
2.8007	18.8518
2.7992	17.9682
2.7977	17.0217
2.7962	16.0209
2.7947	15.0127
2.7932	14.0714
2.7917	13.2716
2.7902	12.6733
2.7887	12.3048
2.7872	12.1667
2.7857	12.2464
2.7842	12.5186
2.7827	12.9452
2.7812	13.4828
2.7797	14.0855
2.7782	14.7128
2.7767	15.3393
2.7752	15.9601
2.7738	16.5865
2.7723	17.2325
2.7708	17.9055
2.7693	18.6036
2.7678	19.316
2.7664	20.0112
2.7649	20.661
2.7634	21.2551
2.7619	21.7777
2.7605	22.216
2.759	22.5854
2.7575	22.9127
2.7561	23.2125
2.7546	23.489
2.7531	23.7587
2.7517	24.0406
2.7502	24.3349
2.7488	24.6382
2.7473	24.9672
2.7458	25.3352
2.7444	25.7388
2.7429	26.1734
2.7415	26.6425
2.74	27.1473
2.7386	27.6826
2.7371	28.2462
2.7357	28.8494
2.7343	29.497
2.7328	30.1857
2.7314	30.9082
2.7299	31.6562
2.7285	32.4174
2.7271	33.1814
2.7256	33.9475
2.7242	34.7179
2.7228	35.4866
2.7213	36.2575
2.7199	37.0367
2.7185	37.8295
2.7171	38.6472
2.7156	39.5012
2.7142	40.4007
2.7128	41.3446
2.7114	42.322
2.71	43.3231
2.7085	44.332
2.7071	45.3349
2.7057	46.3269
2.7043	47.2971
2.7029	48.2342
2.7015	49.136
2.7001	50.0048
2.6987	50.8422
2.6973	51.6559
2.6959	52.4631
2.6945	53.2756
2.6931	54.0838
2.6917	54.8703
2.6903	55.6249
2.6889	56.346
2.6875	57.0253
2.6861	57.6579
2.6847	58.2529
2.6833	58.8079
2.6819	59.3037
2.6805	59.7315
2.6791	60.1005
2.6778	60.4338
2.6764	60.747
2.675	61.0529
2.6736	61.3731
2.6722	61.7087
2.6709	62.0384
2.6695	62.3471
2.6681	62.6213
2.6667	62.8569
2.6654	63.0651
2.664	63.2654
2.6626	63.4862
2.6613	63.7383
2.6599	64.0073
2.6585	64.2726
2.6572	64.4992
2.6558	64.6643
2.6545	64.7777
2.6531	64.8592
2.6517	64.927
2.6504	64.9894
2.649	65.0459
2.6477	65.0909
2.6463	65.1042
2.645	65.0785
2.6436	65.0255
2.6423	64.9552
2.6409	64.8657
2.6396	64.7641
2.6382	64.6585
2.6369	64.5521
2.6356	64.4394
2.6342	64.3174
2.6329	64.1855
2.6315	64.0357
2.6302	63.8568
2.6289	63.6536
2.6275	63.442
2.6262	63.2385
2.6249	63.0509
2.6236	62.884
2.6222	62.7287
2.6209	62.5653
2.6196	62.3724
2.6183	62.138
2.6169	61.8691
2.6156	61.5753
2.6143	61.2659
2.613	60.9589
2.6117	60.6572
2.6103	60.3572
2.609	60.0469
2.6077	59.7152
2.6064	59.3542
2.6051	58.9546
2.6038	58.5125
2.6025	58.0362
2.6012	57.5303
2.5999	56.9961
2.5986	56.4296
2.5973	55.8274
2.596	55.183
2.5947	54.4944
2.5934	53.7608
2.5921	52.9883
2.5908	52.1803
2.5895	51.3429
2.5882	50.4976
2.5869	49.6684
2.5856	48.8867
2.5843	48.1955
2.583	47.622
2.5817	47.1631
2.5805	46.7805
2.5792	46.4248
2.5779	46.0518
2.5766	45.6151
2.5753	45.0847
2.5741	44.4561
2.5728	43.7377
2.5715	42.9368
2.5702	42.0516
2.569	41.0852
2.5677	40.0443
2.5664	38.9224
2.5651	37.7093
2.5639	36.4008
2.5626	35.0105
2.5613	33.5606
2.5601	32.0667
2.5588	30.5462
2.5575	29.0118
2.5563	27.4719
2.555	25.935
2.5538	24.4155
2.5525	22.9412
2.5513	21.5441
2.55	20.2502
2.5487	19.0697
2.5475	18.0036
2.5462	17.0526
2.545	16.2137
2.5437	15.4833
2.5425	14.8637
2.5413	14.3681
2.54	13.9984
2.5388	13.7353
2.5375	13.5718
2.5363	13.5046
2.535	13.5276
2.5338	13.64
2.5326	13.8442
2.5313	14.1463
2.5301	14.5246
2.5289	14.9459
2.5276	15.4098
2.5264	15.9034
2.5252	16.4077
2.5239	16.9155
2.5227	17.4208
2.5215	17.9199
2.5202	18.3926
2.519	18.8233
2.5178	19.2193
2.5166	19.5708
2.5154	19.8633
2.5141	20.107
2.5129	20.3244
2.5117	20.5289
2.5105	20.7195
2.5093	20.8929
2.5081	21.0493
2.5068	21.186
2.5056	21.2923
2.5044	21.3769
2.5032	21.4633
2.502	21.5582
2.5008	21.6611
2.4996	21.7712
2.4984	21.8834
2.4972	22.0019
2.496	22.1229
2.4948	22.2483
2.4936	22.3911
2.4924	22.5621
2.4912	22.7577
2.49	22.9706
2.4888	23.1902
2.4876	23.4201
2.4864	23.6736
2.4852	23.9626
2.484	24.2997
2.4828	24.6928
2.4816	25.1328
2.4805	25.6075
2.4793	26.097
2.4781	26.5932
2.4769	27.1062
2.4757	27.649
2.4745	28.2348
2.4734	28.8733
2.4722	29.5672
2.471	30.3067
2.4698	31.0702
2.4686	31.8416
2.4675	32.61
2.4663	33.3714
2.4651	34.1317
2.464	34.893
2.4628	35.6446
2.4616	36.3754
2.4604	37.0832
2.4593	37.7744
2.4581	38.4488
2.4569	39.1056
2.4558	39.7538
2.4546	40.3912
2.4535	41.0001
2.4523	41.575
2.4511	42.1217
2.45	42.6596
2.4488	43.1971
2.4477	43.7302
2.4465	44.2662
2.4454	44.809
2.4442	45.3503
2.4431	45.8818
2.4419	46.4025
2.4408	46.9202
2.4396	47.4296
2.4385	47.9275
2.4373	48.4326
2.4362	48.9611
2.435	49.5047
2.4339	50.0558
2.4327	50.6062
2.4316	51.1384
2.4305	51.631
2.4293	52.0978
2.4282	52.5687
2.427	53.0552
2.4259	53.5537
2.4248	54.0683
2.4236	54.593
2.4225	55.1029
2.4214	55.5754
2.4202	56.0196
2.4191	56.4437
2.418	56.8403
2.4169	57.1997
2.4157	57.5248
2.4146	57.8168
2.4135	58.0631
2.4124	58.2543
2.4112	58.3953
2.4101	58.4924
2.409	58.536
2.4079	58.5149
2.4068	58.4448
2.4056	58.3398
2.4045	58.2032
2.4034	58.0579
2.4023	57.9512
2.4012	57.927
2.4001	57.999
2.399	58.1745
2.3979	58.455
2.3967	58.8013
2.3956	59.1415
2.3945	59.4207
2.3934	59.6191
2.3923	59.7263
2.3912	59.7387
2.3901	59.681
2.389	59.5872
2.3879	59.4607
2.3868	59.2911
2.3857	59.0771
2.3846	58.8214
2.3835	58.5144
2.3824	58.1526
2.3813	57.7464
2.3802	57.299
2.3791	56.7915
2.3781	56.2193
2.377	55.5852
2.3759	54.8794
2.3748	54.0958
2.3737	53.2556
2.3726	52.378
2.3715	51.4685
2.3704	50.5161
2.3694	49.5075
2.3683	48.4271
2.3672	47.2552
2.3661	45.9893
2.365	44.644
2.364	43.2328
2.3629	41.782
2.3618	40.3122
2.3607	38.8372
2.3597	37.3782
2.3586	35.9623
2.3575	34.6114
2.3564	33.3383
2.3554	32.1641
2.3543	31.1013
2.3532	30.1279
2.3522	29.2231
2.3511	28.3888
2.35	27.6246
2.349	26.9248
2.3479	26.3037
2.3468	25.7938
2.3458	25.3929
2.3447	25.0574
2.3436	24.777
2.3426	24.5662
2.3415	24.4147
2.3405	24.3062
2.3394	24.2562
2.3384	24.2925
2.3373	24.4052
2.3363	24.5669
2.3352	24.7811
2.3342	25.0546
2.3331	25.3771
2.3321	25.7381
2.331	26.148
2.33	26.6277
2.3289	27.1572
2.3279	27.6988
2.3268	28.2371
2.3258	28.7587
2.3247	29.2504
2.3237	29.6962
2.3226	30.0933
2.3216	30.4594
2.3206	30.7833
2.3195	31.057
2.3185	31.3178
2.3175	31.5908
2.3164	31.8776
2.3154	32.166
2.3144	32.439
2.3133	32.6926
2.3123	32.912
2.3113	33.0928
2.3102	33.2687
2.3092	33.4419
2.3082	33.5969
2.3071	33.7336
2.3061	33.8577
2.3051	33.9824
2.3041	34.1095
2.303	34.2466
2.302	34.4179
2.301	34.6043
2.3	34.7837
2.299	34.9735
2.2979	35.1921
2.2969	35.4356
2.2959	35.6945
2.2949	35.9726
2.2939	36.2683
2.2929	36.5511
2.2918	36.8131
2.2908	37.091
2.2898	37.4016
2.2888	37.7412
2.2878	38.1163
2.2868	38.5338
2.2858	38.9865
2.2848	39.4588
2.2838	39.9512
2.2828	40.479
2.2818	41.0348
2.2808	41.6066
2.2798	42.1791
2.2787	42.7464
2.2777	43.3108
2.2767	43.8695
2.2757	44.4186
2.2747	44.9624
2.2738	45.5082
2.2728	46.0568
2.2718	46.5896
2.2708	47.1023
2.2698	47.6048
2.2688	48.0933
2.2678	48.5546
2.2668	48.9901
2.2658	49.4207
2.2648	49.8619
2.2638	50.3122
2.2628	50.7732
2.2618	51.2546
2.2609	51.7434
2.2599	52.2105
2.2589	52.6409
2.2579	53.0421
2.2569	53.4269
2.2559	53.8065
2.255	54.1934
2.254	54.5966
2.253	55.0024
2.252	55.3938
2.251	55.7685
2.2501	56.1328
2.2491	56.5001
2.2481	56.8836
2.2471	57.2844
2.2462	57.6825
2.2452	58.0528
2.2442	58.3775
2.2433	58.6565
2.2423	58.9052
2.2413	59.1556
2.2403	59.438
2.2394	59.7464
2.2384	60.0624
2.2374	60.3749
2.2365	60.6682
2.2355	60.9199
2.2345	61.1386
2.2336	61.3539
2.2326	61.5774
2.2317	61.7884
2.2307	61.9987
2.2297	62.2286
2.2288	62.4713
2.2278	62.6952
2.2269	62.9036
2.2259	63.1103
2.225	63.3072
2.224	63.4876
2.2231	63.6927
2.2221	63.9456
2.2211	64.2379
2.2202	64.5483
2.2192	64.8679
2.2183	65.1794
2.2173	65.4526
2.2164	65.688
2.2155	65.9156
2.2145	66.1579
2.2136	66.4192
2.2126	66.7022
2.2117	67.0159
2.2107	67.3437
2.2098	67.6526
2.2088	67.9407
2.2079	68.2192
2.207	68.4957
2.206	68.7527
2.2051	68.9847
2.2041	69.205
2.2032	69.4231
2.2023	69.6351
2.2013	69.8459
2.2004	70.0681
2.1995	70.2962
2.1985	70.5115
2.1976	70.6969
2.1967	70.8515
2.1957	70.9936
2.1948	71.1225
2.1939	71.235
2.193	71.3504
2.192	71.4709
2.1911	71.5829
2.1902	71.6633
2.1893	71.7121
2.1883	71.7345
2.1874	71.7183
2.1865	71.664
2.1856	71.5886
2.1846	71.5006
2.1837	71.3857
2.1828	71.2436
2.1819	71.0969
2.181	70.9517
2.18	70.8154
2.1791	70.6904
2.1782	70.561
2.1773	70.4287
2.1764	70.2727
2.1755	70.0837
2.1746	69.8663
2.1736	69.6224
2.1727	69.3669
2.1718	69.0963
2.1709	68.7941
2.17	68.4763
2.1691	68.1513
2.1682	67.8397
2.1673	67.555
2.1664	67.3064
2.1655	67.1052
2.1646	66.9507
2.1637	66.82
2.1628	66.6934
2.1619	66.5664
2.161	66.4504
2.1601	66.3443
2.1592	66.2515
2.1583	66.1924
2.1574	66.178
2.1565	66.1946
2.1556	66.2175
2.1547	66.246
2.1538	66.2897
2.1529	66.3549
2.152	66.4393
2.1511	66.5618
2.1502	66.7284
2.1493	66.9271
2.1484	67.149
2.1475	67.4071
2.1466	67.7325
2.1458	68.1402
2.1449	68.6144
2.144	69.1411
2.1431	69.6963
2.1422	70.2361
2.1413	70.7251
2.1404	71.1647
2.1396	71.5664
2.1387	71.9267
2.1378	72.2446
2.1369	72.5193
2.136	72.7739
2.1352	73.0294
2.1343	73.2873
2.1334	73.5514
2.1325	73.8013
2.1316	74.0104
2.1308	74.1704
2.1299	74.2688
2.129	74.3447
2.1281	74.442
2.1273	74.5528
2.1264	74.6681
2.1255	74.7827
2.1247	74.8772
2.1238	74.9344
2.1229	74.9612
2.122	75.0052
2.1212	75.0959
2.1203	75.222
2.1194	75.3851
2.1186	75.5718
2.1177	75.7333
2.1168	75.8527
2.116	75.956
2.1151	76.0683
2.1143	76.2056
2.1134	76.3745
2.1125	76.5666
2.1117	76.7513
2.1108	76.8994
2.11	77.0143
2.1091	77.1227
2.1082	77.2337
2.1074	77.3743
2.1065	77.5596
2.1057	77.7722
2.1048	78.0007
2.104	78.228
2.1031	78.4222
2.1023	78.5804
2.1014	78.7008
2.1005	78.8068
2.0997	78.9079
2.0988	79.0056
2.098	79.1214
2.0971	79.2583
2.0963	79.392
2.0955	79.5121
2.0946	79.6119
2.0938	79.692
2.0929	79.754
2.0921	79.8071
2.0912	79.8856
2.0904	80.0049
2.0895	80.1528
2.0887	80.3084
2.0879	80.4407
2.087	80.529
2.0862	80.5746
2.0853	80.5972
2.0845	80.6266
2.0837	80.7074
2.0828	80.8624
2.082	80.9763
2.0812	81.2003
2.0803	81.2938
2.0795	81.0536
2.076	81.3006
2.072	81.4471
2.068	81.5886
2.064	81.6424
2.06	81.8898
2.056	82.0218
2.052	82.2012
2.048	82.3239
2.044	82.43
2.04	82.3922
2.036	81.6109
2.032	81.2762
2.028	81.1123
2.024	80.9473
2.02	80.5872
2.016	79.654
2.012	79.1096
2.008	77.6262
2.004	76.1088
2	73.9061
1.996	72.4102
1.992	71.3403
1.988	71.0043
1.984	71.1282
1.98	71.9792
1.976	72.825
1.972	74.263
1.968	74.8307
1.964	74.9249
1.96	75.2402
1.956	75.744
1.952	76.4311
1.948	77.0854
1.944	77.8207
1.94	78.3984
1.936	79.1366
1.932	79.504
1.928	80.2518
1.924	80.846
1.92	81.0167
1.916	81.2388
1.912	81.1841
1.908	81.0572
1.904	81.3707
1.9	81.3013
1.896	81.0072
1.892	80.4203
1.888	79.9497
1.884	78.5947
1.88	77.1534
1.876	75.0879
1.872	73.5438
1.868	72.7609
1.864	72.7093
1.86	73.5931
1.856	74.6098
1.852	75.5554
1.848	76.8642
1.844	77.7188
1.84	78.0698
1.836	78.2754
1.832	79.0082
1.828	79.9454
1.824	80.5127
1.82	80.8568
1.816	81.0753
1.812	81.962
1.808	82.2894
1.804	82.6318
1.8	83.3042
1.796	83.5698
1.792	83.2362
1.788	83.01
1.784	83.2279
1.78	83.1842
1.776	83.0695
1.772	82.9779
1.768	82.7553
1.764	82.6146
1.76	82.3379
1.756	81.8245
1.752	81.4772
1.748	81.4727
1.744	81.491
1.74	81.5384
1.736	81.3368
1.732	81.3203
1.728	81.5399
1.724	81.6879
1.72	81.8961
1.716	82.1287
1.712	82.4737
1.708	82.5479
1.704	82.611
1.7	82.417
1.696	82.9253
1.692	83.1004
1.688	83.1408
1.684	83.0431
1.68	83.4515
1.676	83.9319
1.672	83.7245
1.668	83.7251
1.664	83.8063
1.66	83.8383
1.656	83.8504
1.652	83.5566
1.648	83.32
1.644	83.027
1.64	83.1268
1.636	83.1187
1.632	83.0111
1.628	83.3878
1.624	83.5169
1.62	83.504
1.616	83.6344
1.612	83.8411
1.608	83.7186
1.604	83.5891
1.6	84.1003
1.596	83.6504
1.592	83.6279
1.588	83.5629
1.584	83.5546
1.58	83.5097
1.576	83.4325
1.572	83.2652
1.568	83.2486
1.564	83.1812
1.56	82.7795
1.556	82.6676
1.552	82.6676
1.548	82.7542
1.544	82.7969
1.54	82.6206
1.536	82.9063
1.532	83.1267
1.528	83.2201
1.524	83.1441
1.52	83.7204
1.516	83.7336
1.512	83.6878
1.508	83.7268
1.504	83.5516
1.5	83.4867
1.496	83.216
1.492	83.2409
1.488	83.0989
1.484	82.8732
1.48	82.6971
1.476	82.6753
1.472	82.5644
1.468	82.5766
1.464	82.6095
1.46	82.7226
1.456	82.4608
1.452	82.5542
1.448	82.6924
1.444	82.8849
1.44	82.7638
1.436	82.6571
1.432	82.58
1.428	82.5397
1.424	82.4558
1.42	82.2025
1.416	81.9192
1.412	81.1801
1.408	80.8575
1.404	80.8519
1.4	81.489
1.396	81.5109
1.392	81.7632
1.388	82.109
1.384	82.3235
1.38	82.4531
1.376	83.0177
1.372	83.3038
1.368	82.8836
1.364	82.7275
1.36	83.0804
1.356	83.5946
1.352	83.7168
1.348	83.4789
1.344	83.1738
1.34	83.2391
1.336	83.1118
1.332	82.9387
1.328	83.2271
1.324	83.3047
1.32	83.2018
1.316	83.2018
1.312	83.2095
1.308	82.9607
1.304	83.1
1.3	83.0006
1.296	82.8975
1.292	82.9825
1.288	82.9679
1.284	83.0055
1.28	83.1105
1.276	83.0576
1.272	83.2722
1.268	83.3463
1.264	83.4177
1.26	83.1325
1.256	83.1401
1.252	83.3852
1.248	83.0455
1.244	82.7011
1.24	82.7346
1.236	82.6512
1.232	82.6177
1.228	82.557
1.224	82.6722
1.22	82.7364
1.216	82.8644
1.212	83.1048
1.208	82.9179
1.204	82.9318
1.2	82.9619
1.196	82.7722
1.192	82.7446
1.188	82.7241
1.184	82.7576
1.18	82.7876
1.176	82.9346
1.172	83.0722
1.168	83.0252
1.164	83.0866
1.16	82.9501
1.156	82.9858
1.152	82.7736
1.148	82.705
1.144	82.8926
1.14	83.1421
1.136	83.108
1.132	82.9408
1.128	82.4962
1.124	82.5518
1.12	82.4984
1.116	82.4248
1.112	82.5551
1.108	82.8043
1.104	82.8384
1.1	82.8374
1.096	82.6595
1.092	82.5569
1.088	82.6663
1.084	82.8909
1.08	83.0401
1.076	83.2224
1.072	83.2491
1.068	83.4995
1.064	83.442
1.06	83.2945
1.056	83.3667
1.052	83.237
1.048	83.1576
1.044	83.0401
1.04	83.6713
1.036	83.5838
1.032	83.7096
1.028	83.6408
1.024	83.9824
1.02	84.0711
1.016	84.0283
1.012	84.1176
1.008	84.5236
1.004	84.6646
1	84.6994
0.996	84.3639
0.992	84.4069
0.988	84.7358
0.984	84.6471
0.98	84.5712
0.976	84.6235
0.972	85.4764
0.968	85.2316
0.964	85.0291
0.96	85.1931
0.956	85.0501
0.952	85.4112
0.948	85.5665
0.944	85.9468
0.94	85.7663
0.936	85.4816
0.932	86.1269
0.928	85.8563
0.924	86.0511
0.92	86.0162
0.916	86.3859
0.912	86.5848
0.908	86.75
0.904	86.741
0.9	86.9677
0.896	86.5295
0.892	86.8162
0.888	86.9529
0.884	86.8568
0.88	86.9585
0.876	87.1977
0.872	87.1331
0.868	87.2472
0.864	87.1884
0.86	87.2502
0.856	87.1264
0.852	87.3091
0.848	87.5399
0.844	87.3589
0.84	87.5225
0.836	87.6272
0.832	87.8995
0.828	87.9288
0.824	87.9058
0.82	88.2819
0.816	88.2203
0.812	87.7346
0.808	87.6249
0.804	88.3009
0.8	88.4926
0.799	88.4965
0.798	88.4972
0.797	88.8065
0.796	88.6897
0.795	88.8552
0.794	88.91
0.793	88.8135
0.792	88.7364
0.791	89.0683
0.79	88.8163
0.789	88.5746
0.788	88.6725
0.787	88.619
0.786	88.6553
0.785	88.8834
0.784	88.8235
0.783	88.7267
0.782	88.6886
0.781	88.7665
0.78	88.5523
0.779	88.8719
0.778	88.8943
0.777	88.709
0.776	88.5179
0.775	88.5883
0.774	88.8306
0.773	89.1652
0.772	88.8834
0.771	88.6679
0.77	88.768
0.769	88.9576
0.768	88.8956
0.767	88.9377
0.766	88.8719
0.765	88.7334
0.764	88.7334
0.763	88.8621
0.762	88.8227
0.761	88.6227
0.76	89.1277
0.759	88.9537
0.758	88.6742
0.757	88.4808
0.756	88.5481
0.755	88.8034
0.754	88.8295
0.753	88.8679
0.752	89.0783
0.751	88.853
0.75	88.6721
0.749	88.7414
0.748	88.6172
0.747	88.5277
0.746	88.8589
0.745	88.8076
0.744	88.4431
0.743	88.4272
0.742	88.6299
0.741	88.7633
0.74	88.8055
0.739	88.6185
0.738	88.8641
0.737	88.4591
0.736	88.1006
0.735	88.7633
0.734	89.2261
0.733	89.1801
0.732	89.1342
0.731	88.9742
0.73	88.9231
0.729	88.7412
0.728	88.6233
0.727	88.3008
0.726	88.3576
0.725	88.7555
0.724	89.3336
0.723	88.9919
0.722	88.7687
0.721	88.5441
0.72	88.6729
0.719	88.6343
0.718	88.9875
0.717	89.0636
0.716	89.0323
0.715	89.0246
0.714	89.1353
0.713	88.8567
0.712	88.7116
0.711	88.964
0.71	88.8656
0.709	88.6023
0.708	88.4807
0.707	88.4071
0.706	88.6876
0.705	88.5786
0.704	88.5026
0.703	88.5026
0.702	88.4269
0.701	88.7156
0.7	88.8361
0.699	89.2501
0.698	88.8751
0.697	88.7839
0.696	88.7488
0.695	88.6725
0.694	88.7773
0.693	88.9431
0.692	88.5785
0.691	88.8487
0.69	88.7763
0.689	88.7686
0.688	88.7248
0.687	88.887
0.686	89.2344
0.685	89.2668
0.684	89.1171
0.683	89.1334
0.682	89.0765
0.681	88.9464
0.68	88.6269
0.679	88.4823
0.678	88.7968
0.677	88.971
0.676	88.8814
0.675	88.8046
0.674	88.8845
0.673	88.967
0.672	88.9535
0.671	88.9239
0.67	88.6665
0.669	88.8038
0.668	88.9699
0.667	88.6187
0.666	88.7058
0.665	88.6489
0.664	88.867
0.663	88.7586
0.662	88.7204
0.661	88.5825
0.66	88.7647
0.659	88.7248
0.658	88.8013
0.657	88.7861
0.656	88.7934
0.655	88.5347
0.654	88.5573
0.653	88.5061
0.652	88.4984
0.651	88.6722
0.65	88.5248
0.649	88.2927
0.648	88.3938
0.647	88.3214
0.646	88.2891
0.645	88.2854
0.644	88.4187
0.643	88.6761
0.642	88.5385
0.641	88.3538
0.64	88.5342
0.639	88.5937
0.638	88.6782
0.637	88.5767
0.636	88.1352
0.635	88.3526
0.634	88.5193
0.633	88.2398
0.632	88.215
0.631	88.1673
0.63	88.0986
0.629	88.0228
0.628	88.2575
0.627	88.3965
0.626	88.3526
0.625	88.0558
0.624	88.3927
0.623	88.6692
0.622	88.6
0.621	88.2112
0.62	88.006
0.619	87.8686
0.618	87.6089
0.617	87.594
0.616	87.8025
0.615	88.1457
0.614	88.295
0.613	88.1567
0.612	88.3675
0.611	88.4406
0.61	88.295
0.609	87.8536
0.608	87.8246
0.607	87.7839
0.606	87.8386
0.605	87.8131
0.604	87.7103
0.603	87.6552
0.602	87.8004
0.601	87.7958
0.6	87.8044
0.599	88.0502
0.598	88.1371
0.597	87.6677
0.596	87.3471
0.595	87.4401
0.594	87.7862
0.593	87.9873
0.592	87.6465
0.591	87.4536
0.59	87.2844
0.589	87.5036
0.588	87.5103
0.587	87.5463
0.586	87.3735
0.585	87.7149
0.584	87.2318
0.583	87.202
0.582	87.7318
0.581	87.3179
0.58	87.2519
0.579	87.4135
0.578	87.7572
0.577	87.9072
0.576	87.9729
0.575	87.7193
0.574	87.7449
0.573	87.7617
0.572	87.814
0.571	87.5839
0.57	87.3247
0.569	87.5015
0.568	87.4285
0.567	87.5163
0.566	87.4583
0.565	87.4258
0.564	87.5658
0.563	87.626
0.562	87.5503
0.561	87.3889
0.56	87.3489
0.559	87.205
0.558	85.5903
0.557	85.4457
0.556	85.5444
0.555	85.5512
0.554	85.5801
0.553	85.6296
0.552	85.763
0.551	85.6432
0.55	85.6973
0.549	85.6672
0.548	85.6274
0.547	85.4719
0.546	85.6021
0.545	85.7118
0.544	85.9004
0.543	85.6969
0.542	85.782
0.541	85.7167
0.54	85.5534
0.539	85.4577
0.538	85.6027
0.537	85.8083
0.536	85.9052
0.535	85.7354
0.534	86.2387
0.533	86.3729
0.532	86.1666
0.531	86.0734
0.53	85.8764
0.529	85.5342
0.528	85.4951
0.527	85.0389
0.526	85.2762
0.525	85.1473
0.524	85.2111
0.523	85.1904
0.522	85.2197
0.521	85.3007
0.52	84.831
0.519	85.0342
0.518	85.3413
0.517	85.1562
0.516	85.135
0.515	84.9006
0.514	84.8406
0.513	84.9021
0.512	84.9493
0.511	84.9863
0.51	84.9371
0.509	84.8949
0.508	84.7511
0.507	84.4226
0.506	84.2878
0.505	84.2894
0.504	84.0594
0.503	84.2535
0.502	84.008
0.501	84.1984
0.5	84.2146
0.499	84.1081
0.498	84.1959
0.497	84.1174
0.496	83.8814
0.495	83.9724
0.494	83.5212
0.493	83.7583
0.492	83.544
0.491	83.8189
0.49	83.5975
0.489	83.9106
0.488	83.6731
0.487	83.5404
0.486	82.8746
0.485	82.7253
0.484	83.131
0.483	83.3211
0.482	83.1534
0.481	82.8867
0.48	82.9717
0.479	83.0427
0.478	82.6913
0.477	82.7247
0.476	82.7938
0.475	82.8637
0.474	82.8603
0.473	82.6934
0.472	82.3907
0.471	82.2564
0.47	82.2235
0.469	81.7869
0.468	81.7541
0.467	81.486
0.466	81.6867
0.465	81.9051
0.464	81.5691
0.463	81.5519
0.462	81.4844
0.461	81.216
0.46	81.0149
0.459	81.319
0.458	81.2845
0.457	81.1152
0.456	81.4498
0.455	81.1641
0.454	80.9976
0.453	80.9623
0.452	80.6618
0.451	80.4772
0.45	80.3377
0.449	80.5022
0.448	80.1002
0.447	80.2275
0.446	79.9448
0.445	79.8237
0.444	79.7321
0.443	79.7428
0.442	79.7033
0.441	79.6811
0.44	79.4282
0.439	79.1684
0.438	78.8301
0.437	78.8205
0.436	78.6067
0.435	78.5163
0.434	78.3712
0.433	78.5055
0.432	78.3689
0.431	78.0279
0.43	77.8522
0.429	77.4669
0.428	77.5313
0.427	77.6626
0.426	77.4132
0.425	76.9416
0.424	76.5024
0.423	76.4202
0.422	76.5186
0.421	76.4868
0.42	76.3605
0.419	76.2298
0.418	76.2937
0.417	76.1263
0.416	76.0348
0.415	75.4844
0.414	75.3277
0.413	75.0249
0.412	74.9687
0.411	74.7973
0.41	74.5945
0.409	74.4408
0.408	73.9716
0.407	73.8778
0.406	73.6005
0.405	73.1946
0.404	72.9061
0.403	72.8145
0.402	72.7457
0.401	72.4459
0.4	72.1806
