Name: Rhyolite
Type: Rocks
Class: Igneous
Subclass: Felsic
Particle Size: 0-75 micrometers
Sample No.: Rhyolite.H1
Owner: JHU
Wavelength range: All
Origin: From Pennsylvania Hill near Rosita, Custer County, Colorado, via 
Smithsonian (Cat. No.:  NMNH 111123-525)
Description: Sample from which powder was derived is reddish, banded, 
porphyritic rock with the phenocrysts small (< 1 mm) and variable in size.




Measurement: Directional (10 degree) hemispherical reflectance
First Column: X
Second Column: Y
X Units: Wavelength (micrometers)
Y Units: Reflectance (percent)
First X Value: 14.0112
Last X Value: 0.4000
Number of X Values: 2844
Additional information: rhyoli1a.txt

14.011	2.3100
13.973	1.5900
13.936	1.3088
13.899	1.1850
13.861	2.1637
13.824	2.1300
13.788	0.7284
13.751	0.6862
13.715	0.8372
13.679	1.0125
13.643	0.9769
13.607	0.8597
13.571	1.3013
13.536	1.5563
13.500	1.1775
13.465	0.9361
13.430	1.2675
13.396	1.3594
13.361	1.4423
13.327	1.7288
13.293	1.5174
13.259	1.3730
13.225	1.4864
13.191	1.5506
13.158	1.3013
13.124	1.2028
13.091	1.2904
13.058	1.3387
13.026	1.2984
12.993	1.3116
12.960	1.4486
12.928	1.4299
12.896	1.3355
12.864	1.4198
12.832	1.4405
12.800	1.2979
12.769	1.2593
12.737	1.2900
12.706	1.2610
12.675	1.1920
12.644	1.1738
12.614	1.1002
12.583	1.0493
12.552	1.0036
12.522	1.0057
12.492	1.0062
12.462	1.0158
12.432	1.1532
12.402	1.2904
12.373	1.4158
12.343	1.6589
12.314	1.9106
12.285	2.2332
12.256	2.5645
12.227	2.9963
12.198	3.3155
12.169	3.6253
12.141	4.0420
12.113	4.4076
12.084	4.8169
12.056	5.1291
12.028	5.3555
12.000	5.5950
11.973	5.7937
11.945	6.0628
11.918	6.2203
11.890	6.3584
11.863	6.4547
11.836	6.4519
11.809	6.5057
11.782	6.6361
11.755	6.6623
11.729	6.6018
11.702	6.5632
11.676	6.5749
11.650	6.6192
11.624	6.5906
11.598	6.5862
11.572	6.6002
11.546	6.6140
11.520	6.5698
11.495	6.5355
11.469	6.5794
11.444	6.5651
11.419	6.5714
11.394	6.6270
11.369	6.5695
11.344	6.5076
11.319	6.4626
11.294	6.3684
11.270	6.2821
11.245	6.1675
11.221	6.0750
11.197	5.9875
11.173	5.8465
11.149	5.7389
11.125	5.6231
11.101	5.4612
11.077	5.2938
11.054	5.1187
11.030	4.9650
11.007	4.8766
10.983	4.7299
10.960	4.5468
10.937	4.4002
10.914	4.3017
10.891	4.2375
10.868	4.1566
10.846	4.0080
10.823	3.9143
10.800	3.8187
10.778	3.6935
10.755	3.5995
10.733	3.5187
10.711	3.4252
10.689	3.3541
10.667	3.2688
10.645	3.1886
10.623	3.1374
10.602	3.0816
10.580	3.0347
10.558	3.0330
10.537	2.9327
10.516	2.8491
10.494	2.8174
10.473	2.8221
10.452	2.8099
10.431	2.7694
10.410	2.7358
10.389	2.7098
10.368	2.6925
10.348	2.6838
10.327	2.6813
10.306	2.6616
10.286	2.6252
10.266	2.6083
10.245	2.6278
10.225	2.6749
10.205	2.6756
10.185	2.6439
10.165	2.6381
10.145	2.6262
10.125	2.6460
10.106	2.6704
10.086	2.6564
10.066	2.6104
10.047	2.6501
10.027	2.7253
10.008	2.7293
9.9887	2.6660
9.9695	2.6452
9.9504	2.7018
9.9313	2.7068
9.9123	2.7101
9.8934	2.7438
9.8746	2.7337
9.8558	2.6941
9.8371	2.7302
9.8185	2.7420
9.7999	2.7291
9.7814	2.6958
9.7630	2.6730
9.7447	2.6787
9.7264	2.6990
9.7082	2.7161
9.6900	2.6808
9.6719	2.6325
9.6539	2.6576
9.6360	2.6794
9.6181	2.6721
9.6003	2.6890
9.5825	2.7070
9.5649	2.6964
9.5472	2.6238
9.5297	2.5821
9.5122	2.5957
9.4948	2.5777
9.4774	2.5600
9.4601	2.5429
9.4429	2.5525
9.4257	2.5169
9.4086	2.4966
9.3916	2.5015
9.3746	2.5408
9.3577	2.5444
9.3408	2.5547
9.3240	2.6290
9.3073	2.6595
9.2906	2.7094
9.2740	2.8141
9.2574	2.8985
9.2409	2.9618
9.2245	3.0647
9.2081	3.1193
9.1918	3.1280
9.1755	3.1472
9.1593	3.2041
9.1431	3.2268
9.1270	3.2189
9.1110	3.2381
9.0950	3.2311
9.0791	3.2198
9.0632	3.2196
9.0474	3.2316
9.0316	3.2595
9.0159	3.2604
9.0003	3.2489
8.9847	3.2367
8.9691	3.1976
8.9536	3.1668
8.9382	3.1807
8.9228	3.2051
8.9075	3.1704
8.8922	3.1514
8.8770	3.1746
8.8618	3.1969
8.8467	3.1823
8.8316	3.1847
8.8166	3.2119
8.8016	3.1924
8.7867	3.2145
8.7718	3.2405
8.7570	3.2527
8.7422	3.2436
8.7275	3.2564
8.7129	3.2883
8.6982	3.2909
8.6837	3.2747
8.6692	3.2636
8.6547	3.2777
8.6403	3.2981
8.6259	3.2820
8.6116	3.2590
8.5973	3.2517
8.5830	3.2496
8.5688	3.2198
8.5547	3.1668
8.5406	3.1551
8.5266	3.1592
8.5126	3.1085
8.4986	3.0504
8.4847	3.0335
8.4708	3.0527
8.4570	3.0325
8.4432	2.9442
8.4295	2.8868
8.4158	2.8610
8.4022	2.7745
8.3886	2.6670
8.3750	2.5882
8.3615	2.4516
8.3481	2.4680
8.3347	2.5594
8.3213	2.5498
8.3079	2.5404
8.2946	2.4992
8.2814	2.4740
8.2682	2.4537
8.2550	2.4153
8.2419	2.4084
8.2288	2.4080
8.2158	2.3421
8.2028	2.2826
8.1898	2.2179
8.1769	2.1340
8.1640	2.0883
8.1512	2.0519
8.1384	2.0072
8.1256	1.9621
8.1129	1.9228
8.1002	1.8717
8.0876	1.8338
8.0750	1.8014
8.0624	1.7517
8.0499	1.7390
8.0374	1.7360
8.0250	1.6982
8.0126	1.6355
8.0002	1.6369
7.9879	1.6933
7.9756	1.6938
7.9634	1.6556
7.9512	1.6455
7.9390	1.6512
7.9268	1.6416
7.9147	1.6280
7.9027	1.6026
7.8906	1.5823
7.8786	1.6055
7.8667	1.6036
7.8548	1.5564
7.8429	1.5026
7.8310	1.4789
7.8192	1.4602
7.8075	1.4410
7.7957	1.4067
7.7840	1.3709
7.7723	1.3575
7.7607	1.3571
7.7491	1.3374
7.7375	1.3167
7.7260	1.3000
7.7145	1.2951
7.7031	1.2875
7.6916	1.2764
7.6802	1.2829
7.6689	1.3233
7.6575	1.2992
7.6462	1.2774
7.6350	1.2851
7.6238	1.2994
7.6126	1.3193
7.6014	1.3137
7.5903	1.3357
7.5792	1.3596
7.5681	1.3805
7.5571	1.4013
7.5461	1.4243
7.5351	1.4667
7.5242	1.4967
7.5133	1.5220
7.5024	1.5600
7.4916	1.5984
7.4807	1.6186
7.4700	1.6458
7.4592	1.6798
7.4485	1.7327
7.4378	1.8031
7.4272	1.8551
7.4165	1.8829
7.4059	1.9395
7.3954	1.9912
7.3848	2.0364
7.3743	2.1108
7.3639	2.1972
7.3534	2.2943
7.3430	2.3337
7.3326	2.3733
7.3223	2.4639
7.3119	2.5249
7.3016	2.5667
7.2914	2.6482
7.2811	2.7387
7.2709	2.8099
7.2607	2.8774
7.2506	2.9496
7.2404	3.0296
7.2303	3.1078
7.2203	3.1800
7.2102	3.2545
7.2002	3.3612
7.1902	3.4500
7.1803	3.5332
7.1703	3.6138
7.1604	3.7078
7.1506	3.7865
7.1407	3.8756
7.1309	3.9677
7.1211	4.0423
7.1113	4.1124
7.1016	4.2028
7.0919	4.2818
7.0822	4.3556
7.0725	4.4255
7.0629	4.4867
7.0533	4.5447
7.0437	4.6179
7.0341	4.7053
7.0246	4.7700
7.0151	4.8382
7.0056	4.9068
6.9962	4.9711
6.9867	5.0693
6.9773	5.1211
6.9679	5.1396
6.9586	5.1947
6.9493	5.3081
6.9400	5.3896
6.9307	5.4849
6.9214	5.5826
6.9122	5.6716
6.9030	5.7537
6.8938	5.8411
6.8847	5.9267
6.8755	6.0070
6.8664	6.0260
6.8573	6.1111
6.8483	6.2878
6.8393	6.4033
6.8302	6.4807
6.8213	6.5587
6.8123	6.6876
6.8034	6.8355
6.7944	6.8899
6.7855	6.9766
6.7767	7.1229
6.7678	7.2433
6.7590	7.3620
6.7502	7.4714
6.7414	7.5682
6.7327	7.6444
6.7239	7.7095
6.7152	7.7702
6.7065	7.8740
6.6979	7.9978
6.6892	8.0273
6.6806	8.0571
6.6720	8.1534
6.6634	8.2500
6.6549	8.3325
6.6464	8.3177
6.6378	8.2917
6.6294	8.4194
6.6209	8.5636
6.6124	8.6491
6.6040	8.7316
6.5956	8.7787
6.5872	8.8451
6.5789	8.9158
6.5705	8.9711
6.5622	9.1228
6.5539	9.2367
6.5456	9.3581
6.5374	9.4767
6.5292	9.5667
6.5209	9.6324
6.5128	9.7366
6.5046	9.7511
6.4964	9.7070
6.4883	9.7863
6.4802	9.9663
6.4721	10.111
6.4640	10.206
6.4560	10.260
6.4480	10.294
6.4399	10.295
6.4320	10.276
6.4240	10.237
6.4160	10.099
6.4081	10.130
6.4002	10.286
6.3923	10.316
6.3844	10.304
6.3766	10.230
6.3687	10.137
6.3609	10.131
6.3531	10.050
6.3454	9.8761
6.3376	9.8371
6.3299	9.8304
6.3221	9.7441
6.3144	9.6314
6.3068	9.5325
6.2991	9.4268
6.2914	9.2992
6.2838	9.1935
6.2762	9.0810
6.2686	8.9690
6.2611	8.8763
6.2535	8.7722
6.2460	8.6618
6.2385	8.5561
6.2310	8.4729
6.2235	8.3704
6.2160	8.2598
6.2086	8.1684
6.2011	8.0930
6.1937	7.9753
6.1863	7.8429
6.1790	7.8314
6.1716	7.8447
6.1643	7.7974
6.1570	7.7646
6.1496	7.7862
6.1424	7.8368
6.1351	7.9054
6.1278	7.9753
6.1206	7.9884
6.1134	8.0262
6.1062	8.1755
6.0990	8.3348
6.0918	8.4761
6.0847	8.6062
6.0776	8.6883
6.0704	8.8364
6.0633	9.0644
6.0563	9.1670
6.0492	9.1739
6.0421	9.4675
6.0351	9.8081
6.0281	10.036
6.0211	10.223
6.0141	10.401
6.0071	10.646
6.0002	10.863
5.9932	10.985
5.9863	11.176
5.9794	11.424
5.9725	11.596
5.9657	11.813
5.9588	12.086
5.9520	12.247
5.9451	12.377
5.9383	12.402
5.9315	12.616
5.9247	12.929
5.9180	13.091
5.9112	13.235
5.9045	13.329
5.8978	13.274
5.8911	13.368
5.8844	13.381
5.8777	13.419
5.8711	13.651
5.8644	13.677
5.8578	13.679
5.8512	13.699
5.8446	13.720
5.8380	13.675
5.8314	13.577
5.8249	13.428
5.8184	13.411
5.8118	13.528
5.8053	13.520
5.7988	13.464
5.7923	13.436
5.7859	13.382
5.7794	13.308
5.7730	13.188
5.7666	13.035
5.7602	13.117
5.7538	13.172
5.7474	13.071
5.7410	13.066
5.7347	13.069
5.7283	13.043
5.7220	12.991
5.7157	12.924
5.7094	12.879
5.7031	12.922
5.6969	12.918
5.6906	12.870
5.6844	12.862
5.6782	12.818
5.6719	12.824
5.6657	12.886
5.6596	12.882
5.6534	12.873
5.6472	12.850
5.6411	12.828
5.6349	12.938
5.6288	13.043
5.6227	13.093
5.6166	13.156
5.6106	13.233
5.6045	13.268
5.5984	13.341
5.5924	13.444
5.5864	13.504
5.5804	13.535
5.5744	13.667
5.5684	13.877
5.5624	13.974
5.5564	14.080
5.5505	14.223
5.5445	14.380
5.5386	14.535
5.5327	14.672
5.5268	14.772
5.5209	14.894
5.5151	15.057
5.5092	15.198
5.5033	15.330
5.4975	15.496
5.4917	15.651
5.4859	15.732
5.4801	15.786
5.4743	15.909
5.4685	15.988
5.4628	16.059
5.4570	16.184
5.4513	16.255
5.4455	16.273
5.4398	16.312
5.4341	16.330
5.4284	16.258
5.4228	16.128
5.4171	16.090
5.4114	16.035
5.4058	15.896
5.4002	15.704
5.3945	15.443
5.3889	15.168
5.3833	14.866
5.3778	14.515
5.3722	14.170
5.3666	13.864
5.3611	13.569
5.3555	13.280
5.3500	13.082
5.3445	12.967
5.3390	12.915
5.3335	12.873
5.3280	12.877
5.3225	12.949
5.3171	13.060
5.3116	13.180
5.3062	13.311
5.3008	13.509
5.2954	13.737
5.2900	13.979
5.2846	14.295
5.2792	14.636
5.2738	14.986
5.2684	15.354
5.2631	15.764
5.2578	16.205
5.2524	16.667
5.2471	17.137
5.2418	17.664
5.2365	18.201
5.2312	18.703
5.2260	19.205
5.2207	19.692
5.2154	20.135
5.2102	20.594
5.2050	21.078
5.1998	21.474
5.1945	21.864
5.1893	22.226
5.1842	22.568
5.1790	22.874
5.1738	23.131
5.1686	23.376
5.1635	23.610
5.1584	23.830
5.1532	24.025
5.1481	24.180
5.1430	24.359
5.1379	24.525
5.1328	24.641
5.1277	24.730
5.1227	24.830
5.1176	24.911
5.1126	24.948
5.1075	24.997
5.1025	25.014
5.0975	24.996
5.0925	24.984
5.0875	24.939
5.0825	24.880
5.0775	24.842
5.0726	24.763
5.0676	24.691
5.0627	24.632
5.0577	24.569
5.0528	24.506
5.0479	24.432
5.0430	24.383
5.0380	24.346
5.0332	24.293
5.0283	24.227
5.0234	24.177
5.0185	24.160
5.0137	24.175
5.0088	24.189
5.0040	24.222
4.9992	24.235
4.9944	24.263
4.9896	24.318
4.9848	24.384
4.9800	24.458
4.9752	24.559
4.9704	24.661
4.9657	24.786
4.9609	24.996
4.9562	25.232
4.9514	25.495
4.9467	25.824
4.9420	26.204
4.9373	26.627
4.9326	27.088
4.9279	27.605
4.9232	28.150
4.9186	28.684
4.9139	29.240
4.9092	29.791
4.9046	30.340
4.9000	30.875
4.8953	31.398
4.8907	31.908
4.8861	32.404
4.8815	32.890
4.8769	33.367
4.8723	33.812
4.8678	34.220
4.8632	34.607
4.8586	34.991
4.8541	35.362
4.8495	35.703
4.8450	36.036
4.8405	36.407
4.8360	36.711
4.8315	36.930
4.8270	37.169
4.8225	37.385
4.8180	37.609
4.8135	37.835
4.8090	38.046
4.8046	38.226
4.8001	38.398
4.7957	38.570
4.7913	38.740
4.7868	38.876
4.7824	39.019
4.7780	39.171
4.7736	39.294
4.7692	39.423
4.7648	39.563
4.7605	39.666
4.7561	39.784
4.7517	39.864
4.7474	39.954
4.7431	40.062
4.7387	40.157
4.7344	40.247
4.7301	40.344
4.7258	40.429
4.7215	40.500
4.7172	40.594
4.7129	40.712
4.7086	40.781
4.7043	40.838
4.7000	40.923
4.6958	41.000
4.6915	41.066
4.6873	41.127
4.6831	41.204
4.6788	41.270
4.6746	41.350
4.6704	41.431
4.6662	41.484
4.6620	41.567
4.6578	41.625
4.6536	41.689
4.6495	41.776
4.6453	41.855
4.6411	41.957
4.6370	42.113
4.6328	42.236
4.6287	42.364
4.6246	42.518
4.6205	42.678
4.6163	42.873
4.6122	43.062
4.6081	43.231
4.6040	43.396
4.6000	43.556
4.5959	43.713
4.5918	43.880
4.5877	44.065
4.5837	44.239
4.5796	44.380
4.5756	44.523
4.5716	44.664
4.5675	44.826
4.5635	44.995
4.5595	45.157
4.5555	45.301
4.5515	45.465
4.5475	45.636
4.5435	45.772
4.5395	45.934
4.5356	46.137
4.5316	46.288
4.5276	46.426
4.5237	46.578
4.5197	46.719
4.5158	46.840
4.5119	46.960
4.5080	47.105
4.5040	47.234
4.5001	47.353
4.4962	47.477
4.4923	47.597
4.4884	47.685
4.4846	47.819
4.4807	47.963
4.4768	48.031
4.4730	48.116
4.4691	48.219
4.4652	48.283
4.4614	48.348
4.4576	48.419
4.4537	48.491
4.4499	48.542
4.4461	48.593
4.4423	48.679
4.4385	48.706
4.4347	48.734
4.4309	48.786
4.4271	48.835
4.4233	48.864
4.4196	48.892
4.4158	48.942
4.4120	49.006
4.4083	49.063
4.4045	49.128
4.4008	49.194
4.3971	49.306
4.3934	49.420
4.3896	49.514
4.3859	49.649
4.3822	49.820
4.3785	50.001
4.3748	50.169
4.3711	50.345
4.3674	50.541
4.3638	50.712
4.3601	50.900
4.3564	51.115
4.3528	51.330
4.3491	51.507
4.3455	51.710
4.3418	51.915
4.3382	52.103
4.3346	52.311
4.3310	52.517
4.3273	52.714
4.3237	52.895
4.3201	53.084
4.3165	53.266
4.3129	53.452
4.3094	53.633
4.3058	53.797
4.3022	53.952
4.2986	54.118
4.2951	54.278
4.2915	54.426
4.2880	54.559
4.2844	54.677
4.2809	54.697
4.2774	54.527
4.2738	54.466
4.2703	54.736
4.2668	55.086
4.2633	55.344
4.2598	55.534
4.2563	55.716
4.2528	55.857
4.2493	55.997
4.2458	56.138
4.2424	56.221
4.2389	56.282
4.2354	56.395
4.2320	56.490
4.2285	56.554
4.2251	56.620
4.2216	56.704
4.2182	56.767
4.2148	56.805
4.2113	56.824
4.2079	56.882
4.2045	56.940
4.2011	56.986
4.1977	57.040
4.1943	57.106
4.1909	57.146
4.1875	57.190
4.1841	57.255
4.1808	57.319
4.1774	57.368
4.1740	57.410
4.1707	57.477
4.1673	57.542
4.1640	57.585
4.1606	57.654
4.1573	57.709
4.1540	57.780
4.1506	57.851
4.1473	57.895
4.1440	57.955
4.1407	58.006
4.1374	58.044
4.1341	58.119
4.1308	58.185
4.1275	58.270
4.1242	58.322
4.1209	58.361
4.1177	58.416
4.1144	58.485
4.1111	58.564
4.1079	58.625
4.1046	58.672
4.1014	58.712
4.0981	58.777
4.0949	58.858
4.0917	58.922
4.0884	58.986
4.0852	59.055
4.0820	59.087
4.0788	59.124
4.0756	59.186
4.0724	59.251
4.0692	59.308
4.0660	59.357
4.0628	59.408
4.0596	59.434
4.0565	59.470
4.0533	59.521
4.0501	59.588
4.0470	59.653
4.0438	59.708
4.0406	59.761
4.0375	59.792
4.0344	59.836
4.0312	59.868
4.0281	59.902
4.0250	59.965
4.0218	60.026
4.0187	60.058
4.0156	60.089
4.0125	60.115
4.0094	60.153
4.0063	60.217
4.0032	60.243
4.0001	60.269
3.9970	60.294
3.9940	60.322
3.9909	60.337
3.9878	60.376
3.9847	60.382
3.9817	60.386
3.9786	60.423
3.9756	60.447
3.9725	60.438
3.9695	60.455
3.9665	60.497
3.9634	60.503
3.9604	60.500
3.9574	60.526
3.9544	60.546
3.9513	60.540
3.9483	60.532
3.9453	60.532
3.9423	60.540
3.9393	60.546
3.9363	60.547
3.9333	60.540
3.9304	60.539
3.9274	60.567
3.9244	60.586
3.9214	60.555
3.9185	60.568
3.9155	60.583
3.9126	60.583
3.9096	60.586
3.9067	60.576
3.9037	60.559
3.9008	60.550
3.8979	60.552
3.8949	60.582
3.8920	60.581
3.8891	60.538
3.8862	60.534
3.8833	60.530
3.8804	60.537
3.8775	60.524
3.8746	60.493
3.8717	60.496
3.8688	60.489
3.8659	60.472
3.8630	60.459
3.8601	60.434
3.8573	60.427
3.8544	60.423
3.8515	60.409
3.8487	60.390
3.8458	60.368
3.8430	60.354
3.8401	60.336
3.8373	60.313
3.8344	60.283
3.8316	60.266
3.8288	60.235
3.8259	60.225
3.8231	60.224
3.8203	60.180
3.8175	60.138
3.8147	60.109
3.8119	60.080
3.8091	60.063
3.8063	60.032
3.8035	59.975
3.8007	59.928
3.7979	59.906
3.7951	59.867
3.7924	59.838
3.7896	59.774
3.7868	59.727
3.7841	59.690
3.7813	59.640
3.7785	59.587
3.7758	59.523
3.7730	59.451
3.7703	59.400
3.7676	59.334
3.7648	59.267
3.7621	59.245
3.7594	59.184
3.7566	59.093
3.7539	59.045
3.7512	58.984
3.7485	58.912
3.7458	58.880
3.7431	58.833
3.7404	58.757
3.7377	58.694
3.7350	58.669
3.7323	58.625
3.7296	58.555
3.7269	58.515
3.7242	58.463
3.7216	58.400
3.7189	58.372
3.7162	58.346
3.7136	58.321
3.7109	58.289
3.7083	58.251
3.7056	58.209
3.7030	58.177
3.7003	58.127
3.6977	58.066
3.6950	58.012
3.6924	57.954
3.6898	57.908
3.6872	57.867
3.6845	57.866
3.6819	57.808
3.6793	57.729
3.6767	57.664
3.6741	57.591
3.6715	57.534
3.6689	57.501
3.6663	57.469
3.6637	57.402
3.6611	57.357
3.6585	57.269
3.6560	57.195
3.6534	57.146
3.6508	57.097
3.6482	57.032
3.6457	56.946
3.6431	56.843
3.6406	56.800
3.6380	56.763
3.6355	56.695
3.6329	56.621
3.6304	56.525
3.6278	56.435
3.6253	56.397
3.6227	56.350
3.6202	56.232
3.6177	56.124
3.6152	56.033
3.6127	55.958
3.6101	55.892
3.6076	55.809
3.6051	55.710
3.6026	55.614
3.6001	55.527
3.5976	55.424
3.5951	55.334
3.5926	55.269
3.5901	55.175
3.5876	55.090
3.5852	55.005
3.5827	54.891
3.5802	54.802
3.5777	54.729
3.5753	54.631
3.5728	54.502
3.5704	54.402
3.5679	54.304
3.5654	54.184
3.5630	54.083
3.5605	53.986
3.5581	53.868
3.5557	53.739
3.5532	53.637
3.5508	53.539
3.5484	53.407
3.5459	53.289
3.5435	53.170
3.5411	53.030
3.5387	52.891
3.5363	52.714
3.5338	52.540
3.5314	52.397
3.5290	52.188
3.5266	51.963
3.5242	51.698
3.5218	51.365
3.5195	51.004
3.5171	50.575
3.5147	50.024
3.5123	49.410
3.5099	48.711
3.5075	48.030
3.5052	47.592
3.5028	47.430
3.5004	47.502
3.4981	47.738
3.4957	48.030
3.4934	48.356
3.4910	48.641
3.4887	48.808
3.4863	48.885
3.4840	48.873
3.4816	48.837
3.4793	48.813
3.4770	48.806
3.4746	48.787
3.4723	48.754
3.4700	48.700
3.4677	48.632
3.4653	48.536
3.4630	48.386
3.4607	48.207
3.4584	48.033
3.4561	47.857
3.4538	47.653
3.4515	47.454
3.4492	47.214
3.4469	46.964
3.4446	46.725
3.4423	46.469
3.4400	46.189
3.4378	45.850
3.4355	45.468
3.4332	45.020
3.4309	44.478
3.4287	43.887
3.4264	43.274
3.4241	42.718
3.4219	42.229
3.4196	41.919
3.4174	41.813
3.4151	41.886
3.4129	42.060
3.4106	42.289
3.4084	42.566
3.4061	42.874
3.4039	43.161
3.4017	43.429
3.3994	43.664
3.3972	43.860
3.3950	43.958
3.3928	43.992
3.3906	43.974
3.3883	43.901
3.3861	43.770
3.3839	43.607
3.3817	43.492
3.3795	43.394
3.3773	43.330
3.3751	43.343
3.3729	43.396
3.3707	43.452
3.3685	43.509
3.3663	43.558
3.3641	43.612
3.3620	43.609
3.3598	43.613
3.3576	43.621
3.3554	43.589
3.3533	43.515
3.3511	43.453
3.3489	43.404
3.3468	43.354
3.3446	43.271
3.3425	43.142
3.3403	43.044
3.3382	42.962
3.3360	42.883
3.3339	42.762
3.3317	42.666
3.3296	42.556
3.3274	42.440
3.3253	42.324
3.3232	42.208
3.3210	42.098
3.3189	42.022
3.3168	41.876
3.3147	41.747
3.3126	41.641
3.3104	41.526
3.3083	41.370
3.3062	41.266
3.3041	41.154
3.3020	41.006
3.2999	40.900
3.2978	40.776
3.2957	40.631
3.2936	40.485
3.2915	40.364
3.2894	40.245
3.2874	40.139
3.2853	39.982
3.2832	39.822
3.2811	39.715
3.2790	39.613
3.2770	39.493
3.2749	39.354
3.2728	39.230
3.2708	39.095
3.2687	38.953
3.2666	38.815
3.2646	38.688
3.2625	38.528
3.2605	38.425
3.2584	38.305
3.2564	38.153
3.2543	38.003
3.2523	37.880
3.2503	37.796
3.2482	37.669
3.2462	37.530
3.2442	37.389
3.2421	37.246
3.2401	37.126
3.2381	37.012
3.2361	36.895
3.2340	36.760
3.2320	36.608
3.2300	36.450
3.2280	36.321
3.2260	36.222
3.2240	36.130
3.2220	36.020
3.2200	35.874
3.2180	35.697
3.2160	35.582
3.2140	35.466
3.2120	35.357
3.2100	35.233
3.2080	35.081
3.2060	34.961
3.2040	34.813
3.2021	34.682
3.2001	34.586
3.1981	34.467
3.1961	34.353
3.1942	34.221
3.1922	34.097
3.1902	33.992
3.1883	33.881
3.1863	33.742
3.1844	33.622
3.1824	33.480
3.1805	33.343
3.1785	33.225
3.1766	33.118
3.1746	32.981
3.1727	32.871
3.1707	32.759
3.1688	32.630
3.1669	32.500
3.1649	32.386
3.1630	32.288
3.1611	32.192
3.1591	32.054
3.1572	31.904
3.1553	31.822
3.1534	31.726
3.1515	31.571
3.1495	31.441
3.1476	31.343
3.1457	31.229
3.1438	31.133
3.1419	31.015
3.1400	30.873
3.1381	30.754
3.1362	30.666
3.1343	30.584
3.1324	30.490
3.1305	30.349
3.1286	30.234
3.1268	30.138
3.1249	30.033
3.1230	29.917
3.1211	29.819
3.1192	29.742
3.1174	29.650
3.1155	29.541
3.1136	29.454
3.1117	29.365
3.1099	29.252
3.1080	29.146
3.1061	29.082
3.1043	29.041
3.1024	28.947
3.1006	28.872
3.0987	28.805
3.0969	28.696
3.0950	28.629
3.0932	28.563
3.0913	28.490
3.0895	28.454
3.0876	28.393
3.0858	28.333
3.0840	28.273
3.0821	28.180
3.0803	28.125
3.0785	28.101
3.0766	28.063
3.0748	28.040
3.0730	27.976
3.0712	27.934
3.0694	27.911
3.0675	27.908
3.0657	27.835
3.0639	27.769
3.0621	27.744
3.0603	27.691
3.0585	27.667
3.0567	27.635
3.0549	27.611
3.0531	27.590
3.0513	27.569
3.0495	27.504
3.0477	27.451
3.0459	27.420
3.0441	27.403
3.0423	27.361
3.0406	27.289
3.0388	27.223
3.0370	27.192
3.0352	27.173
3.0334	27.161
3.0317	27.155
3.0299	27.109
3.0281	27.042
3.0264	26.967
3.0246	26.954
3.0228	26.928
3.0211	26.870
3.0193	26.804
3.0176	26.732
3.0158	26.671
3.0140	26.635
3.0123	26.630
3.0105	26.584
3.0088	26.501
3.0070	26.444
3.0053	26.417
3.0036	26.379
3.0018	26.309
3.0001	26.233
2.9984	26.181
2.9966	26.125
2.9949	26.066
2.9932	26.038
2.9914	25.993
2.9897	25.984
2.9880	25.938
2.9863	25.849
2.9845	25.806
2.9828	25.774
2.9811	25.723
2.9794	25.705
2.9777	25.673
2.9760	25.576
2.9743	25.521
2.9726	25.522
2.9709	25.494
2.9692	25.436
2.9675	25.376
2.9658	25.341
2.9641	25.320
2.9624	25.312
2.9607	25.273
2.9590	25.230
2.9573	25.209
2.9556	25.146
2.9539	25.105
2.9523	25.101
2.9506	25.100
2.9489	25.100
2.9472	25.099
2.9455	25.112
2.9439	25.090
2.9422	25.081
2.9405	25.040
2.9389	24.957
2.9372	24.955
2.9355	24.994
2.9339	25.023
2.9322	25.015
2.9306	24.995
2.9289	24.995
2.9272	24.997
2.9256	25.028
2.9239	25.004
2.9223	25.015
2.9207	25.076
2.9190	25.072
2.9174	25.068
2.9157	25.107
2.9141	25.122
2.9124	25.114
2.9108	25.100
2.9092	25.100
2.9075	25.129
2.9059	25.159
2.9043	25.206
2.9027	25.215
2.9010	25.206
2.8994	25.265
2.8978	25.315
2.8962	25.367
2.8946	25.387
2.8929	25.414
2.8913	25.457
2.8897	25.464
2.8881	25.510
2.8865	25.538
2.8849	25.555
2.8833	25.573
2.8817	25.631
2.8801	25.671
2.8785	25.717
2.8769	25.708
2.8753	25.751
2.8737	25.833
2.8721	25.836
2.8705	25.855
2.8689	25.921
2.8673	25.949
2.8658	25.960
2.8642	25.983
2.8626	26.013
2.8610	26.066
2.8594	26.137
2.8579	26.167
2.8563	26.171
2.8547	26.163
2.8531	26.211
2.8516	26.251
2.8500	26.303
2.8484	26.397
2.8469	26.445
2.8453	26.466
2.8437	26.466
2.8422	26.526
2.8406	26.578
2.8391	26.619
2.8375	26.589
2.8360	26.601
2.8344	26.626
2.8329	26.672
2.8313	26.729
2.8298	26.756
2.8282	26.779
2.8267	26.864
2.8252	26.955
2.8236	26.979
2.8221	26.996
2.8205	27.031
2.8190	27.062
2.8175	27.122
2.8159	27.179
2.8144	27.286
2.8129	27.373
2.8114	27.421
2.8098	27.487
2.8083	27.523
2.8068	27.564
2.8053	27.591
2.8038	27.538
2.8022	27.627
2.8007	27.742
2.7992	27.807
2.7977	27.847
2.7962	27.863
2.7947	27.884
2.7932	27.934
2.7917	27.992
2.7902	28.024
2.7887	28.004
2.7872	28.019
2.7857	28.142
2.7842	28.277
2.7827	28.285
2.7812	28.345
2.7797	28.420
2.7782	28.524
2.7767	28.601
2.7752	28.692
2.7738	28.765
2.7723	28.792
2.7708	28.734
2.7693	28.796
2.7678	28.789
2.7664	28.764
2.7649	28.618
2.7634	28.239
2.7619	28.116
2.7605	28.572
2.7590	29.130
2.7575	29.502
2.7561	29.604
2.7546	29.831
2.7531	30.353
2.7517	30.708
2.7502	31.023
2.7488	31.326
2.7473	31.551
2.7458	31.823
2.7444	32.125
2.7429	32.344
2.7415	32.367
2.7400	32.470
2.7386	32.891
2.7371	33.472
2.7357	33.884
2.7343	34.320
2.7328	35.023
2.7314	35.562
2.7299	35.994
2.7285	36.483
2.7271	36.876
2.7256	37.078
2.7242	37.395
2.7228	38.194
2.7213	38.714
2.7199	39.114
2.7185	40.062
2.7171	40.744
2.7156	41.188
2.7142	41.525
2.7128	41.730
2.7114	41.517
2.7100	41.525
2.7085	41.840
2.7071	42.192
2.7057	42.559
2.7043	43.017
2.7029	43.763
2.7015	44.638
2.7001	45.792
2.6987	47.155
2.6973	48.294
2.6959	49.087
2.6945	49.698
2.6931	50.423
2.6917	51.513
2.6903	52.330
2.6889	52.917
2.6875	53.381
2.6861	53.790
2.6847	54.242
2.6833	54.641
2.6819	55.104
2.6805	55.474
2.6791	55.505
2.6778	55.791
2.6764	56.007
2.6750	56.611
2.6736	57.362
2.6722	57.939
2.6709	57.940
2.6695	58.888
2.6681	60.413
2.6667	60.751
2.6654	61.067
2.6640	61.836
2.6626	62.730
2.6613	62.963
2.6599	63.100
2.6585	63.358
2.6572	63.779
2.6558	63.840
2.6545	63.945
2.6531	63.983
2.6517	64.094
2.6504	64.472
2.6490	64.723
2.6477	64.773
2.6463	64.700
2.6450	64.710
2.6436	65.007
2.6423	65.086
2.6409	65.101
2.6396	65.174
2.6382	65.337
2.6369	65.370
2.6356	65.389
2.6342	65.256
2.6329	65.308
2.6315	65.146
2.6302	64.702
2.6289	65.193
2.6275	65.403
2.6262	65.144
2.6249	65.567
2.6236	65.815
2.6222	65.823
2.6209	65.345
2.6196	65.147
2.6183	65.533
2.6169	65.255
2.6156	65.424
2.6143	65.848
2.6130	65.879
2.6117	66.020
2.6103	65.910
2.6090	65.729
2.6077	65.745
2.6064	65.470
2.6051	65.155
2.6038	65.497
2.6025	65.786
2.6012	65.916
2.5999	66.086
2.5986	66.154
2.5973	65.953
2.5960	65.296
2.5947	64.436
2.5934	65.005
2.5921	66.016
2.5908	66.238
2.5895	66.123
2.5882	65.990
2.5869	65.916
2.5856	66.071
2.5843	65.764
2.5830	65.664
2.5817	66.043
2.5805	66.124
2.5792	66.376
2.5779	66.281
2.5766	66.105
2.5753	66.212
2.5741	66.034
2.5728	65.895
2.5715	66.259
2.5702	66.197
2.5690	66.114
2.5677	66.363
2.5664	66.482
2.5651	66.273
2.5639	66.019
2.5626	65.988
2.5613	66.063
2.5601	66.242
2.5588	66.456
2.5575	66.551
2.5563	66.601
2.5550	66.617
2.5538	66.500
2.5525	66.386
2.5513	66.410
2.5500	66.556
2.5487	66.638
2.5475	66.593
2.5462	66.648
2.5450	66.644
2.5437	66.590
2.5425	66.546
2.5413	66.662
2.5400	66.757
2.5388	66.752
2.5375	66.781
2.5363	66.736
2.5350	66.789
2.5338	66.832
2.5326	66.728
2.5313	66.716
2.5301	66.842
2.5289	66.927
2.5276	66.935
2.5264	66.912
2.5252	66.901
2.5239	66.935
2.5227	66.944
2.5215	66.968
2.5202	66.981
2.5190	66.991
2.5178	67.052
2.5166	67.034
2.5154	67.001
2.5141	67.063
2.5129	67.092
2.5117	67.063
2.5105	67.042
2.5093	67.125
2.5081	67.158
2.5068	67.167
2.5056	67.146
2.5044	67.156
2.5032	67.149
2.5020	67.176
2.5008	67.204
2.4996	67.173
2.4984	67.197
2.4972	67.261
2.4960	67.299
2.4948	67.265
2.4936	67.313
2.4924	67.294
2.4912	67.330
2.4900	67.357
2.4888	67.363
2.4876	67.344
2.4864	67.376
2.4852	67.428
2.4840	67.440
2.4828	67.406
2.4816	67.468
2.4805	67.486
2.4793	67.474
2.4781	67.499
2.4769	67.595
2.4757	67.597
2.4745	67.570
2.4734	67.524
2.4722	67.623
2.4710	67.659
2.4698	67.643
2.4686	67.672
2.4675	67.658
2.4663	67.684
2.4651	67.760
2.4640	67.827
2.4628	67.782
2.4616	67.762
2.4604	67.824
2.4593	67.880
2.4581	67.888
2.4569	67.886
2.4558	67.956
2.4546	67.939
2.4535	67.883
2.4523	67.817
2.4511	67.861
2.4500	67.994
2.4488	68.098
2.4477	68.078
2.4465	67.989
2.4454	67.997
2.4442	68.048
2.4431	68.006
2.4419	68.006
2.4408	68.116
2.4396	68.182
2.4385	68.213
2.4373	68.209
2.4362	68.230
2.4350	68.268
2.4339	68.275
2.4327	68.270
2.4316	68.365
2.4305	68.358
2.4293	68.348
2.4282	68.391
2.4270	68.459
2.4259	68.452
2.4248	68.428
2.4236	68.365
2.4225	68.448
2.4214	68.512
2.4202	68.588
2.4191	68.534
2.4180	68.478
2.4169	68.512
2.4157	68.582
2.4146	68.516
2.4135	68.491
2.4124	68.590
2.4112	68.661
2.4101	68.712
2.4090	68.653
2.4079	68.660
2.4068	68.695
2.4056	68.661
2.4045	68.682
2.4034	68.703
2.4023	68.664
2.4012	68.734
2.4001	68.828
2.3990	68.803
2.3979	68.781
2.3967	68.769
2.3956	68.779
2.3945	68.775
2.3934	68.878
2.3923	68.815
2.3912	68.713
2.3901	68.787
2.3890	68.815
2.3879	68.817
2.3868	68.828
2.3857	68.867
2.3846	68.856
2.3835	68.840
2.3824	68.836
2.3813	68.901
2.3802	68.951
2.3791	68.936
2.3781	68.969
2.3770	68.964
2.3759	68.971
2.3748	68.982
2.3737	68.942
2.3726	68.902
2.3715	68.899
2.3704	68.949
2.3694	68.964
2.3683	69.012
2.3672	69.053
2.3661	69.039
2.3650	68.978
2.3640	68.972
2.3629	69.049
2.3618	69.087
2.3607	69.091
2.3597	69.044
2.3586	69.088
2.3575	69.088
2.3564	69.028
2.3554	69.025
2.3543	69.034
2.3532	69.066
2.3522	68.989
2.3511	69.019
2.3500	69.010
2.3490	69.093
2.3479	69.096
2.3468	69.098
2.3458	69.128
2.3447	69.114
2.3436	69.088
2.3426	69.087
2.3415	69.052
2.3405	69.097
2.3394	69.045
2.3384	69.047
2.3373	69.137
2.3363	69.064
2.3352	69.006
2.3342	69.036
2.3331	69.050
2.3321	69.136
2.3310	69.200
2.3300	69.082
2.3289	69.038
2.3279	69.095
2.3268	69.188
2.3258	69.145
2.3247	69.057
2.3237	69.049
2.3226	69.039
2.3216	69.019
2.3206	68.998
2.3195	69.047
2.3185	69.047
2.3175	69.023
2.3164	69.034
2.3154	69.033
2.3144	69.006
2.3133	69.011
2.3123	68.946
2.3113	68.888
2.3102	68.937
2.3092	68.966
2.3082	68.945
2.3071	68.891
2.3061	68.789
2.3051	68.799
2.3041	68.924
2.3030	68.898
2.3020	68.959
2.3010	68.971
2.3000	68.945
2.2990	68.943
2.2979	69.057
2.2969	69.076
2.2959	69.005
2.2949	69.008
2.2939	69.005
2.2929	69.042
2.2918	69.075
2.2908	69.052
2.2898	69.020
2.2888	69.069
2.2878	69.015
2.2868	68.976
2.2858	68.868
2.2848	68.949
2.2838	69.041
2.2828	69.001
2.2818	68.945
2.2808	68.993
2.2798	69.048
2.2787	69.006
2.2777	69.004
2.2767	69.011
2.2757	69.003
2.2747	69.032
2.2738	69.035
2.2728	68.987
2.2718	69.013
2.2708	68.993
2.2698	69.071
2.2688	69.092
2.2678	69.019
2.2668	69.017
2.2658	69.060
2.2648	69.055
2.2638	69.061
2.2628	68.950
2.2618	68.934
2.2609	69.013
2.2599	69.007
2.2589	68.960
2.2579	68.993
2.2569	69.045
2.2559	68.977
2.2550	68.938
2.2540	69.000
2.2530	68.955
2.2520	68.996
2.2510	69.045
2.2501	68.978
2.2491	68.985
2.2481	69.041
2.2471	69.036
2.2462	68.987
2.2452	68.901
2.2442	68.888
2.2433	68.995
2.2423	68.995
2.2413	69.049
2.2403	69.016
2.2394	68.964
2.2384	69.008
2.2374	69.014
2.2365	68.970
2.2355	68.998
2.2345	68.998
2.2336	68.984
2.2326	68.964
2.2317	68.972
2.2307	68.901
2.2297	68.894
2.2288	68.905
2.2278	68.960
2.2269	68.939
2.2259	68.976
2.2250	68.937
2.2240	68.917
2.2231	68.915
2.2221	68.845
2.2211	68.887
2.2202	68.869
2.2192	68.857
2.2183	68.819
2.2173	68.842
2.2164	68.839
2.2155	68.777
2.2145	68.794
2.2136	68.800
2.2126	68.772
2.2117	68.674
2.2107	68.755
2.2098	68.799
2.2088	68.711
2.2079	68.709
2.2070	68.694
2.2060	68.738
2.2051	68.747
2.2041	68.757
2.2032	68.823
2.2023	68.861
2.2013	68.787
2.2004	68.876
2.1995	69.034
2.1985	69.051
2.1976	68.960
2.1967	68.908
2.1957	68.946
2.1948	68.980
2.1939	69.006
2.1930	68.968
2.1920	68.958
2.1911	68.989
2.1902	68.997
2.1893	68.998
2.1883	69.032
2.1874	69.028
2.1865	69.071
2.1856	69.022
2.1846	69.069
2.1837	69.149
2.1828	69.167
2.1819	69.185
2.1810	69.214
2.1800	69.185
2.1791	69.207
2.1782	69.282
2.1773	69.344
2.1764	69.273
2.1755	69.305
2.1746	69.302
2.1736	69.316
2.1727	69.394
2.1718	69.494
2.1709	69.446
2.1700	69.464
2.1691	69.442
2.1682	69.413
2.1673	69.493
2.1664	69.519
2.1655	69.563
2.1646	69.484
2.1637	69.575
2.1628	69.627
2.1619	69.551
2.1610	69.565
2.1601	69.573
2.1592	69.616
2.1583	69.625
2.1574	69.649
2.1565	69.556
2.1556	69.523
2.1547	69.547
2.1538	69.602
2.1529	69.608
2.1520	69.623
2.1511	69.697
2.1502	69.741
2.1493	69.678
2.1484	69.645
2.1475	69.693
2.1466	69.724
2.1458	69.706
2.1449	69.678
2.1440	69.746
2.1431	69.797
2.1422	69.749
2.1413	69.746
2.1404	69.813
2.1396	69.842
2.1387	69.746
2.1378	69.797
2.1369	69.776
2.1360	69.777
2.1352	69.755
2.1343	69.719
2.1334	69.774
2.1325	69.756
2.1316	69.760
2.1308	69.750
2.1299	69.745
2.1290	69.805
2.1281	69.782
2.1273	69.810
2.1264	69.839
2.1255	69.725
2.1247	69.783
2.1238	69.835
2.1229	69.781
2.1220	69.721
2.1212	69.758
2.1203	69.778
2.1194	69.785
2.1186	69.867
2.1177	69.835
2.1168	69.864
2.1160	69.927
2.1151	69.851
2.1143	69.831
2.1134	69.778
2.1125	69.730
2.1117	69.817
2.1108	69.820
2.1100	69.809
2.1091	69.889
2.1082	69.896
2.1074	69.729
2.1065	69.759
2.1057	69.826
2.1048	69.763
2.1040	69.684
2.1031	69.784
2.1023	69.908
2.1014	69.831
2.1005	69.790
2.0997	69.770
2.0988	69.772
2.0980	69.755
2.0971	69.751
2.0963	69.780
2.0955	69.709
2.0946	69.637
2.0938	69.642
2.0929	69.753
2.0921	69.785
2.0912	69.940
2.0904	69.810
2.0895	69.777
2.0887	69.798
2.0879	69.785
2.0870	69.810
2.0862	69.796
2.0853	69.755
2.0845	69.704
2.0837	69.712
2.0828	69.781
2.0820	69.719
2.0812	69.695
2.0803	69.634
2.0795	69.678
2.0760	69.678
2.0720	69.860
2.0680	69.831
2.0640	69.923
2.0600	69.923
2.0560	70.229
2.0520	70.169
2.0480	69.529
2.0440	69.317
2.0400	69.469
2.0360	68.954
2.0320	68.561
2.0280	68.496
2.0240	68.561
2.0200	68.209
2.0160	68.300
2.0120	67.836
2.0080	67.845
2.0040	67.613
2.0000	67.547
1.9960	67.547
1.9920	67.365
1.9880	67.250
1.9840	66.581
1.9800	66.344
1.9760	66.414
1.9720	66.592
1.9680	66.389
1.9640	65.881
1.9600	65.790
1.9560	65.868
1.9520	65.911
1.9480	65.898
1.9440	65.815
1.9400	65.604
1.9360	65.193
1.9320	64.980
1.9280	65.114
1.9240	64.519
1.9200	64.132
1.9160	64.403
1.9120	64.218
1.9080	63.959
1.9040	63.783
1.9000	64.002
1.8960	64.433
1.8920	64.552
1.8880	65.300
1.8840	65.379
1.8800	66.012
1.8760	66.312
1.8720	66.411
1.8680	66.093
1.8640	66.300
1.8600	66.423
1.8560	66.558
1.8520	66.814
1.8480	67.170
1.8440	67.147
1.8400	67.137
1.8360	67.316
1.8320	67.391
1.8280	67.358
1.8240	67.133
1.8200	66.878
1.8160	66.711
1.8120	66.535
1.8080	66.546
1.8040	66.480
1.8000	66.568
1.7960	66.723
1.7920	66.380
1.7880	66.127
1.7840	66.181
1.7800	65.820
1.7760	66.038
1.7720	65.828
1.7680	65.740
1.7640	65.959
1.7600	65.925
1.7560	65.870
1.7520	66.102
1.7480	66.423
1.7440	66.081
1.7400	66.368
1.7360	66.768
1.7320	66.913
1.7280	66.913
1.7240	67.091
1.7200	66.913
1.7160	66.623
1.7120	66.457
1.7080	66.302
1.7040	65.917
1.7000	65.862
1.6960	65.774
1.6920	65.807
1.6880	66.093
1.6840	65.984
1.6800	65.929
1.6760	65.862
1.6720	65.652
1.6680	65.652
1.6640	65.685
1.6600	65.631
1.6560	65.499
1.6520	65.594
1.6480	65.417
1.6440	65.737
1.6400	65.574
1.6360	65.469
1.6320	65.608
1.6280	65.771
1.6240	65.761
1.6200	65.682
1.6160	65.220
1.6120	65.024
1.6080	64.867
1.6040	65.477
1.6000	65.477
1.5960	65.403
1.5920	65.260
1.5880	64.813
1.5840	64.600
1.5800	64.494
1.5760	64.936
1.5720	64.864
1.5680	64.864
1.5640	64.781
1.5600	64.971
1.5560	64.669
1.5520	64.445
1.5480	64.658
1.5440	64.922
1.5400	64.781
1.5360	64.445
1.5320	64.621
1.5280	64.834
1.5240	65.011
1.5200	64.869
1.5160	64.727
1.5120	64.568
1.5080	64.392
1.5040	64.252
1.5000	64.323
1.4960	63.250
1.4920	63.988
1.4880	63.971
1.4840	64.023
1.4800	63.999
1.4760	64.076
1.4720	64.076
1.4680	63.859
1.4640	63.894
1.4600	63.790
1.4560	63.596
1.4520	63.733
1.4480	63.609
1.4440	63.643
1.4400	63.623
1.4360	63.604
1.4320	63.515
1.4280	63.367
1.4240	63.315
1.4200	63.262
1.4160	63.101
1.4120	63.074
1.4080	63.179
1.4040	63.006
1.4000	63.143
1.3960	63.164
1.3920	63.095
1.3880	63.164
1.3840	63.537
1.3800	63.750
1.3760	63.770
1.3720	63.528
1.3680	63.630
1.3640	63.801
1.3600	63.762
1.3560	64.120
1.3520	63.947
1.3480	63.724
1.3440	64.005
1.3400	63.844
1.3360	63.564
1.3320	63.461
1.3280	63.584
1.3240	63.338
1.3200	63.648
1.3160	63.855
1.3120	63.753
1.3080	63.910
1.3040	63.962
1.3000	64.014
1.2960	64.067
1.2920	64.136
1.2880	64.028
1.2840	64.025
1.2800	63.880
1.2760	63.486
1.2720	63.750
1.2680	63.754
1.2640	63.386
1.2600	63.156
1.2560	63.208
1.2520	63.144
1.2480	63.263
1.2440	63.189
1.2400	63.489
1.2360	63.499
1.2320	63.042
1.2280	63.070
1.2240	62.958
1.2200	62.944
1.2160	62.922
1.2120	62.173
1.2080	62.806
1.2040	63.057
1.2000	63.094
1.1960	62.939
1.1920	62.898
1.1880	62.796
1.1840	62.694
1.1800	62.489
1.1760	62.680
1.1720	62.731
1.1680	62.489
1.1640	62.553
1.1600	62.478
1.1560	62.328
1.1520	62.252
1.1480	62.341
1.1440	61.958
1.1400	61.957
1.1360	61.994
1.1320	61.868
1.1280	61.472
1.1240	61.514
1.1200	61.437
1.1160	61.287
1.1120	61.237
1.1080	60.942
1.1040	60.903
1.1000	61.269
1.0960	60.853
1.0920	61.169
1.0880	60.892
1.0840	60.992
1.0800	60.735
1.0760	60.597
1.0720	60.233
1.0680	60.243
1.0640	59.814
1.0600	59.999
1.0560	59.910
1.0520	60.056
1.0480	59.654
1.0440	59.469
1.0400	58.878
1.0360	58.803
1.0320	58.817
1.0280	58.783
1.0240	58.618
1.0200	58.197
1.0160	58.244
1.0120	58.238
1.0080	57.843
1.0040	57.703
1.0000	57.116
0.9960	56.940
0.9920	56.503
0.9880	56.421
0.9840	56.249
0.9800	56.206
0.9760	55.708
0.9720	55.263
0.9680	55.132
0.9640	54.734
0.9600	54.425
0.9560	54.424
0.9520	53.937
0.9480	53.583
0.9440	53.406
0.9400	53.267
0.9360	53.088
0.9320	52.694
0.9280	52.261
0.9240	52.257
0.9200	52.081
0.9160	51.817
0.9120	51.729
0.9080	51.662
0.9040	51.329
0.9000	51.190
0.8960	51.137
0.8920	50.872
0.8880	50.730
0.8840	50.601
0.8800	50.580
0.8760	50.226
0.8720	50.179
0.8680	49.913
0.8640	49.905
0.8600	49.972
0.8560	49.575
0.8520	49.575
0.8480	49.526
0.8440	49.356
0.8400	49.059
0.8360	49.138
0.8320	48.890
0.8280	48.841
0.8240	48.762
0.8200	48.811
0.8160	48.565
0.8120	48.584
0.8080	48.419
0.8040	48.263
0.8000	48.294
0.7990	48.294
0.7980	48.294
0.7970	48.318
0.7960	48.776
0.7950	48.580
0.7940	48.485
0.7930	48.379
0.7920	48.502
0.7910	48.469
0.7900	48.287
0.7890	48.389
0.7880	48.475
0.7870	48.096
0.7860	48.135
0.7850	48.194
0.7840	48.013
0.7830	48.226
0.7820	48.135
0.7810	48.355
0.7800	48.163
0.7790	48.077
0.7780	47.996
0.7770	47.950
0.7760	47.954
0.7750	47.709
0.7740	47.620
0.7730	47.663
0.7720	47.563
0.7710	47.521
0.7700	47.594
0.7690	47.775
0.7680	47.721
0.7670	47.594
0.7660	47.679
0.7650	47.509
0.7640	47.448
0.7630	47.294
0.7620	46.922
0.7610	47.168
0.7600	46.881
0.7590	46.731
0.7580	47.137
0.7570	47.090
0.7560	46.922
0.7550	46.689
0.7540	46.556
0.7530	46.718
0.7520	46.801
0.7510	46.718
0.7500	46.378
0.7490	46.435
0.7480	46.073
0.7470	46.128
0.7460	46.114
0.7450	46.182
0.7440	46.223
0.7430	46.216
0.7420	45.771
0.7410	46.079
0.7400	45.976
0.7390	45.983
0.7380	45.539
0.7370	45.879
0.7360	46.148
0.7350	45.742
0.7340	45.742
0.7330	45.403
0.7320	45.211
0.7310	45.435
0.7300	45.461
0.7290	45.180
0.7280	45.446
0.7270	45.662
0.7260	45.182
0.7250	44.915
0.7240	45.061
0.7230	45.182
0.7220	45.198
0.7210	45.198
0.7200	44.980
0.7190	44.764
0.7180	44.513
0.7170	44.258
0.7160	44.285
0.7150	44.347
0.7140	44.258
0.7130	44.241
0.7120	44.404
0.7110	44.506
0.7100	44.012
0.7090	43.624
0.7080	43.585
0.7070	43.998
0.7060	43.905
0.7050	44.023
0.7040	43.752
0.7030	43.948
0.7020	43.888
0.7010	43.748
0.7000	43.709
0.6990	43.581
0.6980	43.114
0.6970	42.976
0.6960	43.055
0.6950	43.153
0.6940	43.153
0.6930	43.153
0.6920	43.213
0.6910	43.093
0.6900	43.093
0.6890	42.994
0.6880	43.053
0.6870	42.797
0.6860	43.014
0.6850	43.114
0.6840	43.055
0.6830	42.758
0.6820	42.617
0.6810	42.500
0.6800	42.617
0.6790	42.342
0.6780	42.342
0.6770	42.103
0.6760	42.081
0.6750	42.120
0.6740	42.375
0.6730	42.275
0.6720	42.119
0.6710	42.020
0.6700	41.982
0.6690	41.882
0.6680	41.509
0.6670	41.585
0.6660	41.508
0.6650	41.530
0.6640	41.600
0.6630	41.677
0.6620	41.600
0.6610	41.600
0.6600	41.401
0.6590	41.325
0.6580	41.325
0.6570	41.027
0.6560	40.815
0.6550	41.026
0.6540	40.828
0.6530	40.617
0.6520	40.979
0.6510	41.193
0.6500	40.717
0.6490	40.506
0.6480	40.531
0.6470	40.629
0.6460	40.667
0.6450	40.468
0.6440	40.667
0.6430	40.431
0.6420	40.220
0.6410	40.406
0.6400	40.505
0.6390	40.418
0.6380	40.181
0.6370	40.033
0.6360	40.008
0.6350	40.070
0.6340	39.934
0.6330	40.033
0.6320	40.070
0.6310	39.897
0.6300	39.573
0.6290	39.420
0.6280	39.410
0.6270	39.420
0.6260	39.493
0.6250	39.393
0.6240	39.420
0.6230	39.456
0.6220	39.193
0.6210	39.156
0.6200	39.156
0.6190	39.093
0.6180	39.201
0.6170	39.029
0.6160	38.993
0.6150	38.821
0.6140	38.957
0.6130	38.785
0.6120	38.785
0.6110	38.457
0.6100	38.393
0.6090	38.535
0.6080	38.328
0.6070	38.093
0.6060	38.028
0.6050	37.928
0.6040	37.697
0.6030	37.631
0.6020	37.430
0.6010	37.129
0.6000	37.201
0.5990	37.235
0.5980	37.204
0.5970	37.172
0.5960	36.969
0.5950	36.937
0.5940	36.666
0.5930	36.428
0.5920	36.429
0.5910	36.327
0.5900	36.429
0.5890	36.361
0.5880	36.225
0.5870	36.021
0.5860	35.647
0.5850	35.446
0.5840	35.308
0.5830	35.374
0.5820	35.107
0.5810	35.042
0.5800	34.811
0.5790	34.540
0.5780	34.306
0.5770	34.035
0.5760	34.028
0.5750	34.129
0.5740	33.933
0.5730	33.684
0.5720	33.531
0.5710	33.531
0.5700	33.002
0.5690	32.703
0.5680	32.315
0.5670	32.292
0.5660	32.209
0.5650	32.008
0.5640	31.721
0.5630	31.808
0.5620	31.535
0.5610	31.363
0.5600	31.175
0.5590	31.030
0.5580	30.132
0.5570	30.198
0.5560	29.832
0.5550	29.736
0.5540	29.452
0.5530	29.315
0.5520	29.144
0.5510	29.098
0.5500	29.150
0.5490	28.963
0.5480	28.920
0.5470	28.766
0.5460	28.791
0.5450	28.474
0.5440	28.379
0.5430	28.281
0.5420	28.186
0.5410	28.356
0.5400	27.771
0.5390	27.844
0.5380	27.719
0.5370	27.476
0.5360	27.597
0.5350	27.522
0.5340	27.352
0.5330	27.352
0.5320	27.086
0.5310	27.157
0.5300	27.181
0.5290	27.105
0.5280	26.984
0.5270	26.867
0.5260	26.867
0.5250	27.181
0.5240	26.935
0.5230	26.720
0.5220	26.556
0.5210	26.459
0.5200	26.359
0.5190	26.450
0.5180	26.352
0.5170	26.159
0.5160	26.302
0.5150	26.250
0.5140	26.136
0.5130	26.182
0.5120	26.204
0.5110	26.375
0.5100	26.114
0.5090	26.159
0.5080	25.848
0.5070	25.817
0.5060	25.687
0.5050	25.986
0.5040	26.026
0.5030	25.709
0.5020	25.479
0.5010	25.470
0.5000	25.687
0.4990	25.490
0.4980	25.109
0.4970	25.425
0.4960	25.479
0.4950	25.286
0.4940	25.157
0.4930	25.197
0.4920	25.262
0.4910	25.066
0.4900	25.329
0.4890	25.113
0.4880	25.035
0.4870	25.013
0.4860	24.904
0.4850	24.820
0.4840	24.820
0.4830	24.904
0.4820	24.799
0.4810	24.820
0.4800	24.647
0.4790	24.722
0.4780	24.709
0.4770	24.688
0.4760	24.787
0.4750	24.594
0.4740	24.516
0.4730	24.440
0.4720	24.497
0.4710	24.399
0.4700	24.399
0.4690	24.301
0.4680	24.357
0.4670	24.420
0.4660	24.225
0.4650	24.245
0.4640	24.050
0.4630	24.107
0.4620	24.047
0.4610	24.047
0.4600	23.971
0.4590	24.056
0.4580	24.094
0.4570	24.132
0.4560	24.052
0.4550	24.071
0.4540	24.052
0.4530	23.872
0.4520	24.050
0.4510	23.949
0.4500	23.908
0.4490	23.910
0.4480	23.787
0.4470	23.706
0.4460	23.459
0.4450	23.617
0.4440	23.488
0.4430	23.507
0.4420	23.557
0.4410	23.275
0.4400	23.257
0.4390	23.238
0.4380	23.293
0.4370	22.978
0.4360	23.182
0.4350	23.256
0.4340	22.893
0.4330	22.857
0.4320	22.929
0.4310	22.947
0.4300	22.861
0.4290	22.790
0.4280	22.583
0.4270	22.585
0.4260	22.516
0.4250	22.790
0.4240	22.378
0.4230	22.635
0.4220	22.583
0.4210	22.274
0.4200	22.410
0.4190	22.221
0.4180	22.427
0.4170	22.204
0.4160	22.189
0.4150	21.915
0.4140	21.984
0.4130	21.947
0.4120	22.033
0.4110	22.153
0.4100	21.881
0.4090	21.780
0.4080	21.780
0.4070	21.639
0.4060	21.687
0.4050	21.757
0.4040	21.804
0.4030	21.687
0.4020	21.820
0.4010	21.645
0.4000	21.199
