Name: Monzonite
Type: Rocks
Class: Igneous
Subclass: Intermediate
Particle Size: 0-75 micrometers
Sample No.: Monzonite.H1
Owner: JHU
Wavelength range: All
Origin: Near Silverton, San Juan County, Colorado, via Ward's Scientific 
(Cat. No.  W-22)
Description: Sample from which the powder was derived is purplish-gray, 
medium-grained granular rock composed of feldspar, a greenish to black 
mafic mineral and opaques.



Measurement: Directional (10 degree) hemispherical reflectance
First Column: X
Second Column: Y
X Units: Wavelength (micrometers)
Y Units: Reflectance (percent)
First X Value: 14.0112
Last X Value: 0.4000
Number of X Values: 2844
Additional information: monzon1a.txt

14.011	0.9956
13.973	2.4488
13.936	1.5675
13.899	1.1494
13.861	0.2297
13.824	0.2969
13.788	0.3270
13.751	0.4735
13.715	1.2197
13.679	1.5657
13.643	1.0369
13.607	0.3262
13.571	0.5484
13.536	1.4756
13.500	1.5094
13.465	1.2675
13.430	1.1592
13.396	0.7748
13.361	0.4097
13.327	1.3018
13.293	1.8979
13.259	1.3186
13.225	1.1198
13.191	1.3186
13.158	1.1499
13.124	1.0158
13.091	1.0143
13.058	1.1159
13.026	1.2133
12.993	1.0940
12.960	1.1779
12.928	1.5031
12.896	1.4437
12.864	1.1946
12.832	1.1486
12.800	1.1995
12.769	1.1759
12.737	1.0483
12.706	1.1829
12.675	1.2192
12.644	1.2190
12.614	1.2468
12.583	1.3530
12.552	1.4585
12.522	1.5722
12.492	1.6488
12.462	1.7006
12.432	1.8140
12.402	2.0259
12.373	2.1309
12.343	2.2767
12.314	2.3412
12.285	2.6218
12.256	2.9498
12.227	3.0553
12.198	3.1650
12.169	3.3933
12.141	3.5634
12.113	3.8184
12.084	4.0083
12.056	3.9811
12.028	3.9774
12.000	4.0434
11.973	4.1075
11.945	4.1784
11.918	4.3174
11.890	4.3577
11.863	4.2379
11.836	4.2564
11.809	4.3153
11.782	4.2537
11.755	4.2103
11.729	4.2942
11.702	4.2799
11.676	4.2958
11.650	4.2612
11.624	4.2255
11.598	4.2314
11.572	4.2722
11.546	4.2581
11.520	4.1510
11.495	4.0882
11.469	4.0547
11.444	3.9979
11.419	4.0434
11.394	4.1306
11.369	4.0826
11.344	3.9543
11.319	3.8519
11.294	3.8314
11.270	3.7730
11.245	3.7784
11.221	3.7818
11.197	3.7062
11.173	3.5847
11.149	3.5285
11.125	3.4624
11.101	3.3488
11.077	3.2906
11.054	3.2644
11.030	3.1671
11.007	3.0896
10.983	3.0434
10.960	2.9637
10.937	2.8959
10.914	2.8324
10.891	2.8094
10.868	2.7302
10.846	2.7153
10.823	2.7140
10.800	2.6836
10.778	2.6719
10.755	2.6004
10.733	2.5638
10.711	2.5605
10.689	2.5504
10.667	2.5563
10.645	2.5114
10.623	2.5078
10.602	2.5153
10.580	2.4753
10.558	2.4431
10.537	2.4368
10.516	2.4605
10.494	2.4963
10.473	2.4434
10.452	2.3859
10.431	2.3730
10.410	2.3796
10.389	2.3592
10.368	2.3384
10.348	2.3255
10.327	2.2982
10.306	2.3104
10.286	2.3670
10.266	2.4169
10.245	2.4276
10.225	2.3960
10.205	2.3885
10.185	2.4443
10.165	2.4893
10.145	2.4935
10.125	2.4595
10.106	2.4828
10.086	2.5158
10.066	2.5151
10.047	2.5174
10.027	2.5101
10.008	2.5094
9.9887	2.5214
9.9695	2.5303
9.9504	2.5355
9.9313	2.5643
9.9123	2.6268
9.8934	2.6501
9.8746	2.5929
9.8558	2.5457
9.8371	2.5109
9.8185	2.5428
9.7999	2.5418
9.7814	2.4857
9.7630	2.4947
9.7447	2.5392
9.7264	2.5336
9.7082	2.4724
9.6900	2.4992
9.6719	2.5915
9.6539	2.6515
9.6360	2.6553
9.6181	2.6364
9.6003	2.6062
9.5825	2.5788
9.5649	2.5680
9.5472	2.5618
9.5297	2.5483
9.5122	2.5411
9.4948	2.6179
9.4774	2.6592
9.4601	2.6053
9.4429	2.6379
9.4257	2.7098
9.4086	2.7349
9.3916	2.7436
9.3746	2.7898
9.3577	2.8860
9.3408	2.9426
9.3240	2.9683
9.3073	2.9702
9.2906	2.9651
9.2740	2.9543
9.2574	2.9813
9.2409	3.0036
9.2245	2.9543
9.2081	2.9782
9.1918	3.0159
9.1755	2.9100
9.1593	2.9367
9.1431	2.9482
9.1270	2.8671
9.1110	2.7994
9.0950	2.7694
9.0791	2.7917
9.0632	2.8603
9.0474	2.8720
9.0316	2.8277
9.0159	2.8057
9.0003	2.7727
8.9847	2.7694
8.9691	2.7867
8.9536	2.7958
8.9382	2.8327
8.9228	2.7935
8.9075	2.7698
8.8922	2.7588
8.8770	2.7633
8.8618	2.7862
8.8467	2.8083
8.8316	2.8172
8.8166	2.8214
8.8016	2.8353
8.7867	2.8739
8.7718	2.8598
8.7570	2.8621
8.7422	2.8678
8.7275	2.8901
8.7129	2.8617
8.6982	2.8205
8.6837	2.8132
8.6692	2.7553
8.6547	2.7060
8.6403	2.6847
8.6259	2.6576
8.6116	2.7276
8.5973	2.8507
8.5830	2.9220
8.5688	2.9489
8.5547	3.0054
8.5406	3.0577
8.5266	3.1094
8.5126	3.1647
8.4986	3.2018
8.4847	3.2226
8.4708	3.2416
8.4570	3.2381
8.4432	3.2890
8.4295	3.3799
8.4158	3.3785
8.4022	3.3930
8.3886	3.4397
8.3750	3.4610
8.3615	3.4549
8.3481	3.5008
8.3347	3.5888
8.3213	3.6260
8.3079	3.6262
8.2946	3.6249
8.2814	3.7088
8.2682	3.7486
8.2550	3.7231
8.2419	3.7584
8.2288	3.7758
8.2158	3.7542
8.2028	3.7284
8.1898	3.6799
8.1769	3.6075
8.1640	3.5229
8.1512	3.3612
8.1384	3.1919
8.1256	3.1327
8.1129	3.0535
8.1002	2.9405
8.0876	2.8332
8.0750	2.7129
8.0624	2.6154
8.0499	2.5164
8.0374	2.4296
8.0250	2.3688
8.0126	2.3200
8.0002	2.2308
7.9879	2.1497
7.9756	2.1514
7.9634	2.1108
7.9512	2.0356
7.9390	1.9315
7.9268	1.8706
7.9147	1.8680
7.9027	1.8628
7.8906	1.8057
7.8786	1.7678
7.8667	1.7766
7.8548	1.7824
7.8429	1.7439
7.8310	1.7543
7.8192	1.7639
7.8075	1.7579
7.7957	1.7653
7.7840	1.7862
7.7723	1.7967
7.7607	1.8377
7.7491	1.8790
7.7375	1.9097
7.7260	1.9106
7.7145	1.9094
7.7031	1.9439
7.6916	1.9860
7.6802	2.0117
7.6689	2.0480
7.6575	2.0632
7.6462	2.1091
7.6350	2.1228
7.6238	2.1539
7.6126	2.1984
7.6014	2.2650
7.5903	2.3008
7.5792	2.3309
7.5681	2.3545
7.5571	2.3909
7.5461	2.4272
7.5351	2.4825
7.5242	2.5397
7.5133	2.5929
7.5024	2.6309
7.4916	2.6847
7.4807	2.7244
7.4700	2.7244
7.4592	2.7621
7.4485	2.8457
7.4378	2.9065
7.4272	2.9477
7.4165	2.9988
7.4059	3.0488
7.3954	3.0736
7.3848	3.1177
7.3743	3.1936
7.3639	3.2693
7.3534	3.2993
7.3430	3.3618
7.3326	3.4273
7.3223	3.4579
7.3119	3.4982
7.3016	3.5843
7.2914	3.6443
7.2811	3.7120
7.2709	3.7828
7.2607	3.8590
7.2506	3.9492
7.2404	4.0127
7.2303	4.0678
7.2203	4.1468
7.2102	4.1990
7.2002	4.2251
7.1902	4.3021
7.1803	4.3774
7.1703	4.3969
7.1604	4.4604
7.1506	4.5398
7.1407	4.6067
7.1309	4.6955
7.1211	4.7817
7.1113	4.8467
7.1016	4.9184
7.0919	4.9675
7.0822	5.0187
7.0725	5.0489
7.0629	5.0894
7.0533	5.1511
7.0437	5.1942
7.0341	5.2514
7.0246	5.2959
7.0151	5.3158
7.0056	5.3590
6.9962	5.4112
6.9867	5.4548
6.9773	5.4714
6.9679	5.5486
6.9586	5.6098
6.9493	5.6634
6.9400	5.7283
6.9307	5.7665
6.9214	5.8193
6.9122	5.8807
6.9030	5.9124
6.8938	5.9367
6.8847	5.9410
6.8755	5.9733
6.8664	6.0501
6.8573	6.0714
6.8483	6.0949
6.8393	6.1423
6.8302	6.1652
6.8213	6.1933
6.8123	6.2004
6.8034	6.2046
6.7944	6.2437
6.7855	6.2868
6.7767	6.3052
6.7678	6.3445
6.7590	6.3778
6.7502	6.3924
6.7414	6.3846
6.7327	6.3956
6.7239	6.4582
6.7152	6.4860
6.7065	6.4884
6.6979	6.5306
6.6892	6.5894
6.6806	6.6907
6.6720	6.7997
6.6634	6.8597
6.6549	6.8948
6.6464	6.9506
6.6378	7.0085
6.6294	7.0467
6.6209	7.0519
6.6124	7.0741
6.6040	7.1220
6.5956	7.1745
6.5872	7.1894
6.5789	7.1948
6.5705	7.2309
6.5622	7.2543
6.5539	7.2267
6.5456	7.2698
6.5374	7.3308
6.5292	7.3912
6.5209	7.5039
6.5128	7.6125
6.5046	7.7156
6.4964	7.8494
6.4883	7.9600
6.4802	8.0039
6.4721	8.0608
6.4640	8.1358
6.4560	8.1684
6.4480	8.1989
6.4399	8.2394
6.4320	8.2441
6.4240	8.2408
6.4160	8.2516
6.4081	8.2127
6.4002	8.2003
6.3923	8.1600
6.3844	8.0854
6.3766	8.0334
6.3687	7.9802
6.3609	7.9350
6.3531	7.8852
6.3454	7.8063
6.3376	7.7597
6.3299	7.7174
6.3221	7.6579
6.3144	7.5494
6.3068	7.4280
6.2991	7.3455
6.2914	7.2471
6.2838	7.1644
6.2762	7.1360
6.2686	7.1029
6.2611	7.0673
6.2535	6.9916
6.2460	6.9239
6.2385	6.9013
6.2310	6.9229
6.2235	6.8972
6.2160	6.8569
6.2086	6.8402
6.2011	6.8702
6.1937	6.9007
6.1863	6.9330
6.1790	6.9761
6.1716	7.0265
6.1643	7.1194
6.1570	7.2295
6.1496	7.3005
6.1424	7.3725
6.1351	7.4833
6.1278	7.5288
6.1206	7.6036
6.1134	7.7426
6.1062	7.8467
6.0990	7.9153
6.0918	8.0083
6.0847	8.0958
6.0776	8.1496
6.0704	8.1998
6.0633	8.2452
6.0563	8.3049
6.0492	8.3465
6.0421	8.3927
6.0351	8.4574
6.0281	8.4895
6.0211	8.5327
6.0141	8.5956
6.0071	8.6208
6.0002	8.6006
5.9932	8.5652
5.9863	8.5331
5.9794	8.5493
5.9725	8.5643
5.9657	8.5465
5.9588	8.5670
5.9520	8.5574
5.9451	8.4972
5.9383	8.5075
5.9315	8.5912
5.9247	8.6623
5.9180	8.7173
5.9112	8.7862
5.9045	8.8720
5.8978	8.9730
5.8911	9.0735
5.8844	9.1495
5.8777	9.2538
5.8711	9.3231
5.8644	9.3865
5.8578	9.4451
5.8512	9.5124
5.8446	9.6204
5.8380	9.6893
5.8314	9.7104
5.8249	9.7610
5.8184	9.7931
5.8118	9.8460
5.8053	9.8719
5.7988	9.8735
5.7923	9.8995
5.7859	9.9665
5.7794	9.9852
5.7730	9.9928
5.7666	10.035
5.7602	10.086
5.7538	10.101
5.7474	10.101
5.7410	10.102
5.7347	10.143
5.7283	10.171
5.7220	10.186
5.7157	10.183
5.7094	10.152
5.7031	10.153
5.6969	10.145
5.6906	10.105
5.6844	10.075
5.6782	10.054
5.6719	10.023
5.6657	9.9443
5.6596	9.8789
5.6534	9.8468
5.6472	9.7833
5.6411	9.7000
5.6349	9.6478
5.6288	9.6244
5.6227	9.6063
5.6166	9.5976
5.6106	9.6272
5.6045	9.6135
5.5984	9.6070
5.5924	9.6324
5.5864	9.6651
5.5804	9.7132
5.5744	9.7376
5.5684	9.7880
5.5624	9.8800
5.5564	10.005
5.5505	10.135
5.5445	10.245
5.5386	10.367
5.5327	10.522
5.5268	10.666
5.5209	10.798
5.5151	10.929
5.5092	11.077
5.5033	11.231
5.4975	11.337
5.4917	11.449
5.4859	11.593
5.4801	11.711
5.4743	11.831
5.4685	11.960
5.4628	12.063
5.4570	12.141
5.4513	12.219
5.4455	12.278
5.4398	12.324
5.4341	12.349
5.4284	12.357
5.4228	12.343
5.4171	12.310
5.4114	12.233
5.4058	12.163
5.4002	12.074
5.3945	11.899
5.3889	11.744
5.3833	11.612
5.3778	11.476
5.3722	11.368
5.3666	11.306
5.3611	11.260
5.3555	11.229
5.3500	11.221
5.3445	11.244
5.3390	11.307
5.3335	11.392
5.3280	11.466
5.3225	11.524
5.3171	11.620
5.3116	11.727
5.3062	11.796
5.3008	11.878
5.2954	11.971
5.2900	12.092
5.2846	12.232
5.2792	12.369
5.2738	12.505
5.2684	12.676
5.2631	12.879
5.2578	13.075
5.2524	13.273
5.2471	13.495
5.2418	13.716
5.2365	13.947
5.2312	14.197
5.2260	14.448
5.2207	14.658
5.2154	14.844
5.2102	15.033
5.2050	15.201
5.1998	15.324
5.1945	15.412
5.1893	15.506
5.1842	15.584
5.1790	15.628
5.1738	15.682
5.1686	15.757
5.1635	15.815
5.1584	15.869
5.1532	15.947
5.1481	15.988
5.1430	16.021
5.1379	16.099
5.1328	16.202
5.1277	16.260
5.1227	16.350
5.1176	16.426
5.1126	16.516
5.1075	16.647
5.1025	16.688
5.0975	16.691
5.0925	16.726
5.0875	16.738
5.0825	16.718
5.0775	16.708
5.0726	16.727
5.0676	16.780
5.0627	16.834
5.0577	16.874
5.0528	16.915
5.0479	16.947
5.0430	16.970
5.0380	17.028
5.0332	17.074
5.0283	17.084
5.0234	17.099
5.0185	17.117
5.0137	17.160
5.0088	17.198
5.0040	17.250
4.9992	17.360
4.9944	17.465
4.9896	17.533
4.9848	17.662
4.9800	17.808
4.9752	17.984
4.9704	18.226
4.9657	18.459
4.9609	18.629
4.9562	18.795
4.9514	18.965
4.9467	19.070
4.9420	19.124
4.9373	19.203
4.9326	19.297
4.9279	19.396
4.9232	19.509
4.9186	19.647
4.9139	19.783
4.9092	19.952
4.9046	20.163
4.9000	20.367
4.8953	20.530
4.8907	20.717
4.8861	20.935
4.8815	21.081
4.8769	21.160
4.8723	21.281
4.8678	21.406
4.8632	21.509
4.8586	21.621
4.8541	21.718
4.8495	21.779
4.8450	21.816
4.8405	21.864
4.8360	21.918
4.8315	21.989
4.8270	22.029
4.8225	22.078
4.8180	22.128
4.8135	22.158
4.8090	22.189
4.8046	22.201
4.8001	22.234
4.7957	22.292
4.7913	22.322
4.7868	22.362
4.7824	22.432
4.7780	22.471
4.7736	22.531
4.7692	22.603
4.7648	22.660
4.7605	22.694
4.7561	22.753
4.7517	22.828
4.7474	22.894
4.7431	22.952
4.7387	23.006
4.7344	23.013
4.7301	23.048
4.7258	23.105
4.7215	23.173
4.7172	23.264
4.7129	23.311
4.7086	23.300
4.7043	23.338
4.7000	23.384
4.6958	23.362
4.6915	23.339
4.6873	23.366
4.6831	23.414
4.6788	23.451
4.6746	23.491
4.6704	23.548
4.6662	23.629
4.6620	23.728
4.6578	23.774
4.6536	23.861
4.6495	23.955
4.6453	24.033
4.6411	24.142
4.6370	24.216
4.6328	24.275
4.6287	24.336
4.6246	24.410
4.6205	24.502
4.6163	24.572
4.6122	24.662
4.6081	24.771
4.6040	24.848
4.6000	24.938
4.5959	25.056
4.5918	25.135
4.5877	25.185
4.5837	25.249
4.5796	25.293
4.5756	25.342
4.5716	25.424
4.5675	25.511
4.5635	25.589
4.5595	25.650
4.5555	25.711
4.5515	25.798
4.5475	25.868
4.5435	25.914
4.5395	25.951
4.5356	25.993
4.5316	26.039
4.5276	26.073
4.5237	26.126
4.5197	26.166
4.5158	26.161
4.5119	26.156
4.5080	26.190
4.5040	26.221
4.5001	26.231
4.4962	26.231
4.4923	26.276
4.4884	26.307
4.4846	26.336
4.4807	26.397
4.4768	26.411
4.4730	26.451
4.4691	26.494
4.4652	26.564
4.4614	26.632
4.4576	26.706
4.4537	26.789
4.4499	26.876
4.4461	26.921
4.4423	26.960
4.4385	27.027
4.4347	27.105
4.4309	27.214
4.4271	27.302
4.4233	27.362
4.4196	27.406
4.4158	27.455
4.4120	27.520
4.4083	27.589
4.4045	27.664
4.4008	27.746
4.3971	27.790
4.3934	27.852
4.3896	27.928
4.3859	28.034
4.3822	28.084
4.3785	28.093
4.3748	28.166
4.3711	28.270
4.3674	28.340
4.3638	28.405
4.3601	28.469
4.3564	28.513
4.3528	28.593
4.3491	28.669
4.3455	28.674
4.3418	28.701
4.3382	28.764
4.3346	28.806
4.3310	28.835
4.3273	28.906
4.3237	28.934
4.3201	28.986
4.3165	29.049
4.3129	29.080
4.3094	29.099
4.3058	29.140
4.3022	29.184
4.2986	29.217
4.2951	29.252
4.2915	29.288
4.2880	29.263
4.2844	29.288
4.2809	29.373
4.2774	29.415
4.2738	29.444
4.2703	29.459
4.2668	29.519
4.2633	29.553
4.2598	29.532
4.2563	29.584
4.2528	29.651
4.2493	29.688
4.2458	29.690
4.2424	29.705
4.2389	29.718
4.2354	29.752
4.2320	29.761
4.2285	29.792
4.2251	29.849
4.2216	29.899
4.2182	29.897
4.2148	29.894
4.2113	29.932
4.2079	29.952
4.2045	29.961
4.2011	29.998
4.1977	30.013
4.1943	30.053
4.1909	30.077
4.1875	30.057
4.1841	30.074
4.1808	30.117
4.1774	30.182
4.1740	30.225
4.1707	30.211
4.1673	30.199
4.1640	30.208
4.1606	30.265
4.1573	30.291
4.1540	30.311
4.1506	30.340
4.1473	30.309
4.1440	30.340
4.1407	30.385
4.1374	30.381
4.1341	30.415
4.1308	30.454
4.1275	30.464
4.1242	30.452
4.1209	30.505
4.1177	30.546
4.1144	30.547
4.1111	30.539
4.1079	30.549
4.1046	30.546
4.1014	30.587
4.0981	30.607
4.0949	30.607
4.0917	30.644
4.0884	30.673
4.0852	30.664
4.0820	30.661
4.0788	30.695
4.0756	30.724
4.0724	30.723
4.0692	30.729
4.0660	30.699
4.0628	30.701
4.0596	30.748
4.0565	30.757
4.0533	30.743
4.0501	30.768
4.0470	30.789
4.0438	30.789
4.0406	30.763
4.0375	30.752
4.0344	30.755
4.0312	30.792
4.0281	30.796
4.0250	30.800
4.0218	30.807
4.0187	30.801
4.0156	30.760
4.0125	30.742
4.0094	30.748
4.0063	30.746
4.0032	30.726
4.0001	30.742
3.9970	30.736
3.9940	30.671
3.9909	30.668
3.9878	30.695
3.9847	30.703
3.9817	30.698
3.9786	30.700
3.9756	30.670
3.9725	30.694
3.9695	30.756
3.9665	30.779
3.9634	30.786
3.9604	30.789
3.9574	30.820
3.9544	30.849
3.9513	30.872
3.9483	30.914
3.9453	30.911
3.9423	30.922
3.9393	30.990
3.9363	31.026
3.9333	31.025
3.9304	31.073
3.9274	31.104
3.9244	31.101
3.9214	31.112
3.9185	31.094
3.9155	31.087
3.9126	31.140
3.9096	31.157
3.9067	31.104
3.9037	31.086
3.9008	31.096
3.8979	31.086
3.8949	31.096
3.8920	31.117
3.8891	31.106
3.8862	31.099
3.8833	31.116
3.8804	31.130
3.8775	31.137
3.8746	31.152
3.8717	31.121
3.8688	31.104
3.8659	31.122
3.8630	31.117
3.8601	31.103
3.8573	31.108
3.8544	31.153
3.8515	31.161
3.8487	31.163
3.8458	31.162
3.8430	31.125
3.8401	31.140
3.8373	31.188
3.8344	31.185
3.8316	31.147
3.8288	31.154
3.8259	31.214
3.8231	31.242
3.8203	31.211
3.8175	31.194
3.8147	31.187
3.8119	31.190
3.8091	31.234
3.8063	31.285
3.8035	31.284
3.8007	31.213
3.7979	31.211
3.7951	31.241
3.7924	31.250
3.7896	31.236
3.7868	31.237
3.7841	31.221
3.7813	31.217
3.7785	31.190
3.7758	31.199
3.7730	31.226
3.7703	31.218
3.7676	31.235
3.7648	31.264
3.7621	31.255
3.7594	31.195
3.7566	31.190
3.7539	31.203
3.7512	31.197
3.7485	31.171
3.7458	31.150
3.7431	31.163
3.7404	31.184
3.7377	31.200
3.7350	31.186
3.7323	31.172
3.7296	31.168
3.7269	31.151
3.7242	31.136
3.7216	31.151
3.7189	31.147
3.7162	31.142
3.7136	31.135
3.7109	31.101
3.7083	31.080
3.7056	31.090
3.7030	31.105
3.7003	31.104
3.6977	31.089
3.6950	31.081
3.6924	31.070
3.6898	31.051
3.6872	31.049
3.6845	31.066
3.6819	31.062
3.6793	31.068
3.6767	31.054
3.6741	31.011
3.6715	31.026
3.6689	31.032
3.6663	31.031
3.6637	30.994
3.6611	30.984
3.6585	31.025
3.6560	31.018
3.6534	30.976
3.6508	30.955
3.6482	30.960
3.6457	30.949
3.6431	30.905
3.6406	30.896
3.6380	30.927
3.6355	30.918
3.6329	30.888
3.6304	30.897
3.6278	30.920
3.6253	30.905
3.6227	30.843
3.6202	30.812
3.6177	30.789
3.6152	30.821
3.6127	30.819
3.6101	30.776
3.6076	30.762
3.6051	30.782
3.6026	30.750
3.6001	30.701
3.5976	30.705
3.5951	30.695
3.5926	30.695
3.5901	30.696
3.5876	30.656
3.5852	30.648
3.5827	30.635
3.5802	30.623
3.5777	30.625
3.5753	30.633
3.5728	30.604
3.5704	30.528
3.5679	30.538
3.5654	30.525
3.5630	30.479
3.5605	30.440
3.5581	30.386
3.5557	30.365
3.5532	30.396
3.5508	30.387
3.5484	30.340
3.5459	30.316
3.5435	30.306
3.5411	30.295
3.5387	30.290
3.5363	30.260
3.5338	30.234
3.5314	30.230
3.5290	30.225
3.5266	30.195
3.5242	30.138
3.5218	30.108
3.5195	30.070
3.5171	30.055
3.5147	30.045
3.5123	30.047
3.5099	30.006
3.5075	29.937
3.5052	29.918
3.5028	29.929
3.5004	29.892
3.4981	29.862
3.4957	29.878
3.4934	29.846
3.4910	29.773
3.4887	29.756
3.4863	29.743
3.4840	29.717
3.4816	29.699
3.4793	29.707
3.4770	29.689
3.4746	29.598
3.4723	29.550
3.4700	29.575
3.4677	29.549
3.4653	29.504
3.4630	29.475
3.4607	29.492
3.4584	29.472
3.4561	29.439
3.4538	29.420
3.4515	29.364
3.4492	29.322
3.4469	29.281
3.4446	29.253
3.4423	29.261
3.4400	29.224
3.4378	29.162
3.4355	29.127
3.4332	29.086
3.4309	29.049
3.4287	28.985
3.4264	28.913
3.4241	28.881
3.4219	28.843
3.4196	28.767
3.4174	28.706
3.4151	28.653
3.4129	28.656
3.4106	28.601
3.4084	28.524
3.4061	28.553
3.4039	28.549
3.4017	28.484
3.3994	28.417
3.3972	28.382
3.3950	28.342
3.3928	28.293
3.3906	28.262
3.3883	28.218
3.3861	28.151
3.3839	28.083
3.3817	28.072
3.3795	28.002
3.3773	27.929
3.3751	27.934
3.3729	27.924
3.3707	27.885
3.3685	27.844
3.3663	27.815
3.3641	27.745
3.3620	27.641
3.3598	27.578
3.3576	27.553
3.3554	27.486
3.3533	27.401
3.3511	27.397
3.3489	27.371
3.3468	27.279
3.3446	27.218
3.3425	27.180
3.3403	27.130
3.3382	27.052
3.3360	26.997
3.3339	26.989
3.3317	26.930
3.3296	26.856
3.3274	26.811
3.3253	26.738
3.3232	26.624
3.3210	26.577
3.3189	26.543
3.3168	26.495
3.3147	26.414
3.3126	26.405
3.3104	26.407
3.3083	26.334
3.3062	26.214
3.3041	26.203
3.3020	26.202
3.2999	26.106
3.2978	26.039
3.2957	26.019
3.2936	25.971
3.2915	25.921
3.2894	25.853
3.2874	25.747
3.2853	25.654
3.2832	25.640
3.2811	25.633
3.2790	25.534
3.2770	25.443
3.2749	25.373
3.2728	25.317
3.2708	25.263
3.2687	25.181
3.2666	25.078
3.2646	24.951
3.2625	24.898
3.2605	24.883
3.2584	24.794
3.2564	24.646
3.2543	24.525
3.2523	24.445
3.2503	24.408
3.2482	24.315
3.2462	24.207
3.2442	24.110
3.2421	24.013
3.2401	23.902
3.2381	23.812
3.2361	23.695
3.2340	23.573
3.2320	23.417
3.2300	23.311
3.2280	23.209
3.2260	23.103
3.2240	22.989
3.2220	22.889
3.2200	22.776
3.2180	22.648
3.2160	22.522
3.2140	22.408
3.2120	22.272
3.2100	22.137
3.2080	22.009
3.2060	21.872
3.2040	21.778
3.2021	21.701
3.2001	21.562
3.1981	21.445
3.1961	21.351
3.1942	21.210
3.1922	21.071
3.1902	20.986
3.1883	20.922
3.1863	20.814
3.1844	20.705
3.1824	20.576
3.1805	20.427
3.1785	20.333
3.1766	20.258
3.1746	20.128
3.1727	20.046
3.1707	19.968
3.1688	19.856
3.1669	19.776
3.1649	19.691
3.1630	19.587
3.1611	19.552
3.1591	19.499
3.1572	19.351
3.1553	19.261
3.1534	19.256
3.1515	19.172
3.1495	19.041
3.1476	18.971
3.1457	18.930
3.1438	18.861
3.1419	18.788
3.1400	18.724
3.1381	18.676
3.1362	18.572
3.1343	18.478
3.1324	18.432
3.1305	18.395
3.1286	18.347
3.1268	18.249
3.1249	18.188
3.1230	18.143
3.1211	18.060
3.1192	18.003
3.1174	17.962
3.1155	17.925
3.1136	17.888
3.1117	17.812
3.1099	17.752
3.1080	17.714
3.1061	17.624
3.1043	17.518
3.1024	17.457
3.1006	17.447
3.0987	17.428
3.0969	17.382
3.0950	17.361
3.0932	17.295
3.0913	17.157
3.0895	17.134
3.0876	17.088
3.0858	17.058
3.0840	17.029
3.0821	16.970
3.0803	16.979
3.0785	16.963
3.0766	16.936
3.0748	16.934
3.0730	16.854
3.0712	16.814
3.0694	16.877
3.0675	16.855
3.0657	16.826
3.0639	16.756
3.0621	16.746
3.0603	16.734
3.0585	16.740
3.0567	16.725
3.0549	16.699
3.0531	16.652
3.0513	16.601
3.0495	16.626
3.0477	16.681
3.0459	16.681
3.0441	16.620
3.0423	16.577
3.0406	16.590
3.0388	16.582
3.0370	16.539
3.0352	16.477
3.0334	16.467
3.0317	16.460
3.0299	16.396
3.0281	16.357
3.0264	16.316
3.0246	16.267
3.0228	16.249
3.0211	16.243
3.0193	16.199
3.0176	16.127
3.0158	16.073
3.0140	16.034
3.0123	15.987
3.0105	15.983
3.0088	15.947
3.0070	15.831
3.0053	15.813
3.0036	15.805
3.0018	15.756
3.0001	15.681
2.9984	15.615
2.9966	15.572
2.9949	15.552
2.9932	15.472
2.9914	15.347
2.9897	15.333
2.9880	15.321
2.9863	15.239
2.9845	15.208
2.9828	15.178
2.9811	15.108
2.9794	15.137
2.9777	15.120
2.9760	15.059
2.9743	15.014
2.9726	14.960
2.9709	14.943
2.9692	14.911
2.9675	14.894
2.9658	14.837
2.9641	14.773
2.9624	14.776
2.9607	14.777
2.9590	14.762
2.9573	14.758
2.9556	14.774
2.9539	14.760
2.9523	14.691
2.9506	14.655
2.9489	14.673
2.9472	14.632
2.9455	14.638
2.9439	14.680
2.9422	14.702
2.9405	14.679
2.9389	14.694
2.9372	14.702
2.9355	14.693
2.9339	14.718
2.9322	14.729
2.9306	14.762
2.9289	14.773
2.9272	14.774
2.9256	14.750
2.9239	14.806
2.9223	14.848
2.9207	14.853
2.9190	14.855
2.9174	14.944
2.9157	15.054
2.9141	15.104
2.9124	15.110
2.9108	15.205
2.9092	15.211
2.9075	15.174
2.9059	15.225
2.9043	15.319
2.9027	15.324
2.9010	15.407
2.8994	15.502
2.8978	15.549
2.8962	15.543
2.8946	15.556
2.8929	15.600
2.8913	15.669
2.8897	15.757
2.8881	15.817
2.8865	15.861
2.8849	15.856
2.8833	15.912
2.8817	15.978
2.8801	15.952
2.8785	15.960
2.8769	16.032
2.8753	16.029
2.8737	16.025
2.8721	16.050
2.8705	16.063
2.8689	16.093
2.8673	16.081
2.8658	16.084
2.8642	16.067
2.8626	16.113
2.8610	16.181
2.8594	16.223
2.8579	16.177
2.8563	16.208
2.8547	16.276
2.8531	16.312
2.8516	16.357
2.8500	16.364
2.8484	16.345
2.8469	16.380
2.8453	16.443
2.8437	16.382
2.8422	16.312
2.8406	16.361
2.8391	16.370
2.8375	16.357
2.8360	16.339
2.8344	16.306
2.8329	16.294
2.8313	16.305
2.8298	16.327
2.8282	16.304
2.8267	16.237
2.8252	16.228
2.8236	16.242
2.8221	16.292
2.8205	16.300
2.8190	16.241
2.8175	16.213
2.8159	16.197
2.8144	16.243
2.8129	16.288
2.8114	16.326
2.8098	16.316
2.8083	16.327
2.8068	16.413
2.8053	16.401
2.8038	16.357
2.8022	16.388
2.8007	16.456
2.7992	16.484
2.7977	16.442
2.7962	16.440
2.7947	16.465
2.7932	16.517
2.7917	16.580
2.7902	16.613
2.7887	16.596
2.7872	16.562
2.7857	16.583
2.7842	16.608
2.7827	16.581
2.7812	16.490
2.7797	16.473
2.7782	16.467
2.7767	16.453
2.7752	16.358
2.7738	16.289
2.7723	16.230
2.7708	16.135
2.7693	16.105
2.7678	16.143
2.7664	16.041
2.7649	15.899
2.7634	15.823
2.7619	15.792
2.7605	15.740
2.7590	15.742
2.7575	15.788
2.7561	15.858
2.7546	15.900
2.7531	15.989
2.7517	16.176
2.7502	16.364
2.7488	16.474
2.7473	16.505
2.7458	16.488
2.7444	16.521
2.7429	16.735
2.7415	17.022
2.7400	17.292
2.7386	17.570
2.7371	17.588
2.7357	17.384
2.7343	17.236
2.7328	17.232
2.7314	17.458
2.7299	18.073
2.7285	18.865
2.7271	19.310
2.7256	19.327
2.7242	19.043
2.7228	18.804
2.7213	19.049
2.7199	20.206
2.7185	21.740
2.7171	22.855
2.7156	23.427
2.7142	23.908
2.7128	24.424
2.7114	24.820
2.7100	25.168
2.7085	25.576
2.7071	25.922
2.7057	26.199
2.7043	26.407
2.7029	26.590
2.7015	26.842
2.7001	27.176
2.6987	27.452
2.6973	27.703
2.6959	27.997
2.6945	28.321
2.6931	28.696
2.6917	29.001
2.6903	29.253
2.6889	29.510
2.6875	29.798
2.6861	30.028
2.6847	30.205
2.6833	30.414
2.6819	30.629
2.6805	30.748
2.6791	30.828
2.6778	30.925
2.6764	31.029
2.6750	31.054
2.6736	31.046
2.6722	31.164
2.6709	31.327
2.6695	31.379
2.6681	31.412
2.6667	31.450
2.6654	31.549
2.6640	31.585
2.6626	31.585
2.6613	31.590
2.6599	31.607
2.6585	31.628
2.6572	31.665
2.6558	31.705
2.6545	31.723
2.6531	31.792
2.6517	31.859
2.6504	31.802
2.6490	31.798
2.6477	31.802
2.6463	31.835
2.6450	31.830
2.6436	31.837
2.6423	31.849
2.6409	31.899
2.6396	31.936
2.6382	31.908
2.6369	31.859
2.6356	31.849
2.6342	31.872
2.6329	31.937
2.6315	31.940
2.6302	31.929
2.6289	31.918
2.6275	31.950
2.6262	32.000
2.6249	31.992
2.6236	31.958
2.6222	31.934
2.6209	31.945
2.6196	32.009
2.6183	31.992
2.6169	31.993
2.6156	32.009
2.6143	32.036
2.6130	32.039
2.6117	32.009
2.6103	31.975
2.6090	32.020
2.6077	32.014
2.6064	31.997
2.6051	32.076
2.6038	32.082
2.6025	32.040
2.6012	32.037
2.5999	31.998
2.5986	32.002
2.5973	32.050
2.5960	32.027
2.5947	32.052
2.5934	32.134
2.5921	32.109
2.5908	32.081
2.5895	32.045
2.5882	32.032
2.5869	32.092
2.5856	32.115
2.5843	32.127
2.5830	32.177
2.5817	32.137
2.5805	32.116
2.5792	32.089
2.5779	32.167
2.5766	32.176
2.5753	32.102
2.5741	32.044
2.5728	32.048
2.5715	32.109
2.5702	32.113
2.5690	32.085
2.5677	32.155
2.5664	32.138
2.5651	32.085
2.5639	32.175
2.5626	32.260
2.5613	32.199
2.5601	32.126
2.5588	32.188
2.5575	32.222
2.5563	32.166
2.5550	32.161
2.5538	32.215
2.5525	32.229
2.5513	32.218
2.5500	32.225
2.5487	32.181
2.5475	32.103
2.5462	32.138
2.5450	32.193
2.5437	32.183
2.5425	32.213
2.5413	32.361
2.5400	32.351
2.5388	32.235
2.5375	32.183
2.5363	32.245
2.5350	32.333
2.5338	32.293
2.5326	32.243
2.5313	32.231
2.5301	32.208
2.5289	32.201
2.5276	32.233
2.5264	32.253
2.5252	32.234
2.5239	32.226
2.5227	32.220
2.5215	32.218
2.5202	32.262
2.5190	32.328
2.5178	32.310
2.5166	32.293
2.5154	32.323
2.5141	32.280
2.5129	32.284
2.5117	32.318
2.5105	32.305
2.5093	32.374
2.5081	32.449
2.5068	32.421
2.5056	32.380
2.5044	32.337
2.5032	32.367
2.5020	32.380
2.5008	32.344
2.4996	32.307
2.4984	32.301
2.4972	32.306
2.4960	32.357
2.4948	32.324
2.4936	32.272
2.4924	32.382
2.4912	32.446
2.4900	32.386
2.4888	32.303
2.4876	32.297
2.4864	32.338
2.4852	32.297
2.4840	32.247
2.4828	32.356
2.4816	32.364
2.4805	32.350
2.4793	32.440
2.4781	32.454
2.4769	32.392
2.4757	32.348
2.4745	32.408
2.4734	32.432
2.4722	32.421
2.4710	32.399
2.4698	32.421
2.4686	32.451
2.4675	32.459
2.4663	32.458
2.4651	32.452
2.4640	32.458
2.4628	32.444
2.4616	32.363
2.4604	32.370
2.4593	32.372
2.4581	32.461
2.4569	32.486
2.4558	32.378
2.4546	32.367
2.4535	32.419
2.4523	32.439
2.4511	32.482
2.4500	32.395
2.4488	32.313
2.4477	32.428
2.4465	32.555
2.4454	32.507
2.4442	32.466
2.4431	32.455
2.4419	32.452
2.4408	32.402
2.4396	32.429
2.4385	32.448
2.4373	32.459
2.4362	32.469
2.4350	32.426
2.4339	32.407
2.4327	32.450
2.4316	32.470
2.4305	32.479
2.4293	32.464
2.4282	32.443
2.4270	32.460
2.4259	32.433
2.4248	32.422
2.4236	32.448
2.4225	32.487
2.4214	32.404
2.4202	32.342
2.4191	32.364
2.4180	32.387
2.4169	32.481
2.4157	32.480
2.4146	32.542
2.4135	32.554
2.4124	32.431
2.4112	32.448
2.4101	32.512
2.4090	32.458
2.4079	32.476
2.4068	32.485
2.4056	32.423
2.4045	32.461
2.4034	32.506
2.4023	32.431
2.4012	32.420
2.4001	32.380
2.3990	32.368
2.3979	32.398
2.3967	32.408
2.3956	32.322
2.3945	32.308
2.3934	32.352
2.3923	32.349
2.3912	32.341
2.3901	32.327
2.3890	32.308
2.3879	32.416
2.3868	32.468
2.3857	32.410
2.3846	32.438
2.3835	32.462
2.3824	32.418
2.3813	32.411
2.3802	32.422
2.3791	32.402
2.3781	32.341
2.3770	32.382
2.3759	32.452
2.3748	32.474
2.3737	32.439
2.3726	32.495
2.3715	32.455
2.3704	32.416
2.3694	32.423
2.3683	32.495
2.3672	32.545
2.3661	32.498
2.3650	32.461
2.3640	32.450
2.3629	32.378
2.3618	32.372
2.3607	32.454
2.3597	32.452
2.3586	32.361
2.3575	32.333
2.3564	32.353
2.3554	32.345
2.3543	32.349
2.3532	32.342
2.3522	32.374
2.3511	32.464
2.3500	32.443
2.3490	32.352
2.3479	32.348
2.3468	32.361
2.3458	32.392
2.3447	32.375
2.3436	32.324
2.3426	32.349
2.3415	32.342
2.3405	32.300
2.3394	32.366
2.3384	32.352
2.3373	32.217
2.3363	32.280
2.3352	32.328
2.3342	32.361
2.3331	32.374
2.3321	32.320
2.3310	32.248
2.3300	32.176
2.3289	32.187
2.3279	32.286
2.3268	32.286
2.3258	32.308
2.3247	32.345
2.3237	32.352
2.3226	32.286
2.3216	32.276
2.3206	32.344
2.3195	32.327
2.3185	32.373
2.3175	32.424
2.3164	32.378
2.3154	32.326
2.3144	32.333
2.3133	32.376
2.3123	32.473
2.3113	32.519
2.3102	32.485
2.3092	32.491
2.3082	32.503
2.3071	32.513
2.3061	32.442
2.3051	32.542
2.3041	32.648
2.3030	32.629
2.3020	32.510
2.3010	32.435
2.3000	32.411
2.2990	32.606
2.2979	32.669
2.2969	32.616
2.2959	32.629
2.2949	32.691
2.2939	32.697
2.2929	32.727
2.2918	32.721
2.2908	32.666
2.2898	32.692
2.2888	32.725
2.2878	32.647
2.2868	32.623
2.2858	32.742
2.2848	32.853
2.2838	32.791
2.2828	32.752
2.2818	32.771
2.2808	32.843
2.2798	32.868
2.2787	32.854
2.2777	32.828
2.2767	32.833
2.2757	32.845
2.2747	32.812
2.2738	32.774
2.2728	32.815
2.2718	32.834
2.2708	32.841
2.2698	32.837
2.2688	32.759
2.2678	32.739
2.2668	32.800
2.2658	32.729
2.2648	32.745
2.2638	32.860
2.2628	32.783
2.2618	32.713
2.2609	32.730
2.2599	32.749
2.2589	32.735
2.2579	32.694
2.2569	32.727
2.2559	32.790
2.2550	32.742
2.2540	32.728
2.2530	32.745
2.2520	32.655
2.2510	32.698
2.2501	32.764
2.2491	32.766
2.2481	32.734
2.2471	32.757
2.2462	32.772
2.2452	32.722
2.2442	32.703
2.2433	32.712
2.2423	32.725
2.2413	32.756
2.2403	32.753
2.2394	32.736
2.2384	32.691
2.2374	32.716
2.2365	32.696
2.2355	32.763
2.2345	32.823
2.2336	32.790
2.2326	32.786
2.2317	32.758
2.2307	32.783
2.2297	32.816
2.2288	32.803
2.2278	32.798
2.2269	32.872
2.2259	32.881
2.2250	32.803
2.2240	32.780
2.2231	32.737
2.2221	32.774
2.2211	32.850
2.2202	32.888
2.2192	32.806
2.2183	32.724
2.2173	32.791
2.2164	32.787
2.2155	32.710
2.2145	32.772
2.2136	32.809
2.2126	32.726
2.2117	32.712
2.2107	32.768
2.2098	32.746
2.2088	32.746
2.2079	32.641
2.2070	32.698
2.2060	32.740
2.2051	32.704
2.2041	32.781
2.2032	32.805
2.2023	32.797
2.2013	32.789
2.2004	32.757
2.1995	32.746
2.1985	32.805
2.1976	32.786
2.1967	32.753
2.1957	32.784
2.1948	32.759
2.1939	32.759
2.1930	32.770
2.1920	32.787
2.1911	32.769
2.1902	32.857
2.1893	32.942
2.1883	32.902
2.1874	32.857
2.1865	32.912
2.1856	32.869
2.1846	32.805
2.1837	32.849
2.1828	32.904
2.1819	32.803
2.1810	32.814
2.1800	32.919
2.1791	32.906
2.1782	32.912
2.1773	32.925
2.1764	32.862
2.1755	32.878
2.1746	32.951
2.1736	32.991
2.1727	33.037
2.1718	33.012
2.1709	32.947
2.1700	32.946
2.1691	32.978
2.1682	32.983
2.1673	33.027
2.1664	33.063
2.1655	32.980
2.1646	32.988
2.1637	33.058
2.1628	33.047
2.1619	33.013
2.1610	33.010
2.1601	32.979
2.1592	32.972
2.1583	33.046
2.1574	33.049
2.1565	33.008
2.1556	32.995
2.1547	32.990
2.1538	33.053
2.1529	33.047
2.1520	32.967
2.1511	32.954
2.1502	33.038
2.1493	33.063
2.1484	32.960
2.1475	32.844
2.1466	33.028
2.1458	33.130
2.1449	33.034
2.1440	32.985
2.1431	32.986
2.1422	33.043
2.1413	33.089
2.1404	33.025
2.1396	33.047
2.1387	33.056
2.1378	33.024
2.1369	32.980
2.1360	32.984
2.1352	33.031
2.1343	33.030
2.1334	33.074
2.1325	33.087
2.1316	33.019
2.1308	33.024
2.1299	33.067
2.1290	33.008
2.1281	32.978
2.1273	33.032
2.1264	32.988
2.1255	32.924
2.1247	32.884
2.1238	33.022
2.1229	33.051
2.1220	32.949
2.1212	32.968
2.1203	32.972
2.1194	32.981
2.1186	33.051
2.1177	32.959
2.1168	32.901
2.1160	32.923
2.1151	32.994
2.1143	33.032
2.1134	33.008
2.1125	32.939
2.1117	32.958
2.1108	32.895
2.1100	32.920
2.1091	32.985
2.1082	32.975
2.1074	33.003
2.1065	33.082
2.1057	32.984
2.1048	32.920
2.1040	32.925
2.1031	33.008
2.1023	33.013
2.1014	33.076
2.1005	33.039
2.0997	32.953
2.0988	33.035
2.0980	33.025
2.0971	32.980
2.0963	32.980
2.0955	33.005
2.0946	33.030
2.0938	33.073
2.0929	33.090
2.0921	33.047
2.0912	33.035
2.0904	32.940
2.0895	32.812
2.0887	32.871
2.0879	32.979
2.0870	32.919
2.0862	32.899
2.0853	32.934
2.0845	32.973
2.0837	32.963
2.0828	32.930
2.0820	32.883
2.0812	32.903
2.0803	32.968
2.0795	32.923
2.0760	32.923
2.0720	32.936
2.0680	32.680
2.0640	32.773
2.0600	32.865
2.0560	32.949
2.0520	32.901
2.0480	32.875
2.0440	32.805
2.0400	32.748
2.0360	32.425
2.0320	32.356
2.0280	32.517
2.0240	32.448
2.0200	32.151
2.0160	32.242
2.0120	31.990
2.0080	32.333
2.0040	32.288
2.0000	32.083
1.9960	31.992
1.9920	31.992
1.9880	32.015
1.9840	31.690
1.9800	31.657
1.9760	31.838
1.9720	31.857
1.9680	31.881
1.9640	31.757
1.9600	31.847
1.9560	31.948
1.9520	31.992
1.9480	31.912
1.9440	31.899
1.9400	31.827
1.9360	31.762
1.9320	31.527
1.9280	31.386
1.9240	31.158
1.9200	31.091
1.9160	31.252
1.9120	31.252
1.9080	31.151
1.9040	31.083
1.9000	31.174
1.8960	31.321
1.8920	31.407
1.8880	31.820
1.8840	31.675
1.8800	31.998
1.8760	32.232
1.8720	32.401
1.8680	32.083
1.8640	31.859
1.8600	31.576
1.8560	31.539
1.8520	31.820
1.8480	32.176
1.8440	32.308
1.8400	32.498
1.8360	32.498
1.8320	32.064
1.8280	31.830
1.8240	31.698
1.8200	31.689
1.8160	31.591
1.8120	31.748
1.8080	31.758
1.8040	31.559
1.8000	31.471
1.7960	31.735
1.7920	31.568
1.7880	31.471
1.7840	31.503
1.7800	31.342
1.7760	31.471
1.7720	31.503
1.7680	31.591
1.7640	31.722
1.7600	31.754
1.7560	31.722
1.7520	31.666
1.7480	31.698
1.7440	31.866
1.7400	32.021
1.7360	31.886
1.7320	31.652
1.7280	31.474
1.7240	31.474
1.7200	31.741
1.7160	31.853
1.7120	31.932
1.7080	31.755
1.7040	31.591
1.7000	31.559
1.6960	31.559
1.6920	31.527
1.6880	31.591
1.6840	31.438
1.6800	31.494
1.6760	31.471
1.6720	31.415
1.6680	31.415
1.6640	31.559
1.6600	31.527
1.6560	31.329
1.6520	31.313
1.6480	31.313
1.6440	31.345
1.6400	31.248
1.6360	31.166
1.6320	31.216
1.6280	31.136
1.6240	31.214
1.6200	31.313
1.6160	31.248
1.6120	31.273
1.6080	31.248
1.6040	31.507
1.6000	31.596
1.5960	31.232
1.5920	31.200
1.5880	31.216
1.5840	31.176
1.5800	31.113
1.5760	31.273
1.5720	31.089
1.5680	31.089
1.5640	31.117
1.5600	31.152
1.5560	31.025
1.5520	30.934
1.5480	31.061
1.5440	30.884
1.5400	30.853
1.5360	30.758
1.5320	30.758
1.5280	30.884
1.5240	30.796
1.5200	30.764
1.5160	30.733
1.5120	30.727
1.5080	30.639
1.5040	30.676
1.5000	30.575
1.4960	30.463
1.4920	30.432
1.4880	30.370
1.4840	30.488
1.4800	30.355
1.4760	30.432
1.4720	30.432
1.4680	30.324
1.4640	30.293
1.4600	30.319
1.4560	30.411
1.4520	30.599
1.4480	30.630
1.4440	30.667
1.4400	30.673
1.4360	30.590
1.4320	30.590
1.4280	30.417
1.4240	30.386
1.4200	30.355
1.4160	30.240
1.4120	30.222
1.4080	30.196
1.4040	29.950
1.4000	30.048
1.3960	29.954
1.3920	29.861
1.3880	29.865
1.3840	29.748
1.3800	30.052
1.3760	30.048
1.3720	29.823
1.3680	29.945
1.3640	30.165
1.3600	29.995
1.3560	29.995
1.3520	30.064
1.3480	30.078
1.3440	30.161
1.3400	29.847
1.3360	29.937
1.3320	29.790
1.3280	29.499
1.3240	29.559
1.3200	29.651
1.3160	29.772
1.3120	29.648
1.3080	29.651
1.3040	29.681
1.3000	29.711
1.2960	29.653
1.2920	29.567
1.2880	29.569
1.2840	29.543
1.2800	29.666
1.2760	29.428
1.2720	29.491
1.2680	29.428
1.2640	29.216
1.2600	29.097
1.2560	29.394
1.2520	29.375
1.2480	29.317
1.2440	29.378
1.2400	29.500
1.2360	29.329
1.2320	29.118
1.2280	29.078
1.2240	29.348
1.2200	29.358
1.2160	29.360
1.2120	29.028
1.2080	28.879
1.2040	28.909
1.2000	28.791
1.1960	28.791
1.1920	28.684
1.1880	28.625
1.1840	28.567
1.1800	28.384
1.1760	28.685
1.1720	28.714
1.1680	28.559
1.1640	28.470
1.1600	28.440
1.1560	28.379
1.1520	28.436
1.1480	28.436
1.1440	28.387
1.1400	28.412
1.1360	28.408
1.1320	28.323
1.1280	28.441
1.1240	28.387
1.1200	28.445
1.1160	28.092
1.1120	28.329
1.1080	28.102
1.1040	28.042
1.1000	28.010
1.0960	28.102
1.0920	28.130
1.0880	27.985
1.0840	28.042
1.0800	28.052
1.0760	28.023
1.0720	27.878
1.0680	28.023
1.0640	27.825
1.0600	27.881
1.0560	27.793
1.0520	27.878
1.0480	28.115
1.0440	27.881
1.0400	27.741
1.0360	27.853
1.0320	27.789
1.0280	27.963
1.0240	28.166
1.0200	27.966
1.0160	27.906
1.0120	27.761
1.0080	27.701
1.0040	27.896
1.0000	27.843
0.9960	27.755
0.9920	27.653
0.9880	27.677
0.9840	27.701
0.9800	27.729
0.9760	27.691
0.9720	27.578
0.9680	27.485
0.9640	27.425
0.9600	27.253
0.9560	27.364
0.9520	27.514
0.9480	27.425
0.9440	27.425
0.9400	27.331
0.9360	27.387
0.9320	27.303
0.9280	27.280
0.9240	27.159
0.9200	26.983
0.9160	26.983
0.9120	27.159
0.9080	27.377
0.9040	27.275
0.9000	27.237
0.8960	27.144
0.8920	27.144
0.8880	27.051
0.8840	27.023
0.8800	27.268
0.8760	27.179
0.8720	27.119
0.8680	27.119
0.8640	27.086
0.8600	27.077
0.8560	27.049
0.8520	26.960
0.8480	26.988
0.8440	26.932
0.8400	26.848
0.8360	26.904
0.8320	26.881
0.8280	26.909
0.8240	26.853
0.8200	26.825
0.8160	26.891
0.8120	26.956
0.8080	27.077
0.8040	26.966
0.8000	26.975
0.7990	26.975
0.7980	26.975
0.7970	26.854
0.7960	27.074
0.7950	26.975
0.7940	27.070
0.7930	27.037
0.7920	27.103
0.7910	27.008
0.7900	26.850
0.7890	27.070
0.7880	27.133
0.7870	26.946
0.7860	27.069
0.7850	27.066
0.7840	27.098
0.7830	27.352
0.7820	27.165
0.7810	27.256
0.7800	26.968
0.7790	27.097
0.7780	26.942
0.7770	27.002
0.7760	26.623
0.7750	26.654
0.7740	26.779
0.7730	26.811
0.7720	26.902
0.7710	26.871
0.7700	26.997
0.7690	26.964
0.7680	26.996
0.7670	26.901
0.7660	26.964
0.7650	26.838
0.7640	26.957
0.7630	26.772
0.7620	26.709
0.7610	26.678
0.7600	26.773
0.7590	26.709
0.7580	27.085
0.7570	26.835
0.7560	26.517
0.7550	26.390
0.7540	26.267
0.7530	26.483
0.7520	26.642
0.7510	26.483
0.7500	26.422
0.7490	26.605
0.7480	26.359
0.7470	26.328
0.7460	26.390
0.7450	26.418
0.7440	26.353
0.7430	26.443
0.7420	26.229
0.7410	26.507
0.7400	26.288
0.7390	26.507
0.7380	26.103
0.7370	26.288
0.7360	26.537
0.7350	26.257
0.7340	26.353
0.7330	26.168
0.7320	26.168
0.7310	26.478
0.7300	26.476
0.7290	26.195
0.7280	26.250
0.7270	26.437
0.7260	26.344
0.7250	26.095
0.7240	26.250
0.7230	26.344
0.7220	26.474
0.7210	26.474
0.7200	26.380
0.7190	26.095
0.7180	26.218
0.7170	25.841
0.7160	25.999
0.7150	26.123
0.7140	26.034
0.7130	26.095
0.7120	26.091
0.7110	26.151
0.7100	26.026
0.7090	25.968
0.7080	25.841
0.7070	26.150
0.7060	26.057
0.7050	26.054
0.7040	25.799
0.7030	26.148
0.7020	26.079
0.7010	26.142
0.7000	26.304
0.6990	26.339
0.6980	26.386
0.6970	26.391
0.6960	26.492
0.6950	26.518
0.6940	26.419
0.6930	26.518
0.6920	26.585
0.6910	26.586
0.6900	26.586
0.6890	26.586
0.6880	26.617
0.6870	26.290
0.6860	26.485
0.6850	26.486
0.6840	26.456
0.6830	26.456
0.6820	26.520
0.6810	26.488
0.6800	26.619
0.6790	26.455
0.6780	26.356
0.6770	26.388
0.6760	26.453
0.6750	26.584
0.6740	26.815
0.6730	26.715
0.6720	26.683
0.6710	26.485
0.6700	26.453
0.6690	26.551
0.6680	26.487
0.6670	26.552
0.6660	26.288
0.6650	26.223
0.6640	26.351
0.6630	26.715
0.6620	26.450
0.6610	26.351
0.6600	26.252
0.6590	26.286
0.6580	26.286
0.6570	26.286
0.6560	26.190
0.6550	26.286
0.6540	26.385
0.6530	26.190
0.6520	26.516
0.6510	26.814
0.6500	26.848
0.6490	26.351
0.6480	26.286
0.6470	26.584
0.6460	26.418
0.6450	26.518
0.6440	26.318
0.6430	26.385
0.6420	26.486
0.6410	26.351
0.6400	26.351
0.6390	26.748
0.6380	26.316
0.6370	26.385
0.6360	26.351
0.6350	26.418
0.6340	26.385
0.6330	26.385
0.6320	26.418
0.6310	26.253
0.6300	26.418
0.6290	26.349
0.6280	26.351
0.6270	26.449
0.6260	26.514
0.6250	26.514
0.6240	26.549
0.6230	26.581
0.6220	26.514
0.6210	26.481
0.6200	26.781
0.6190	26.714
0.6180	26.714
0.6170	26.447
0.6160	26.514
0.6150	26.249
0.6140	26.382
0.6130	26.316
0.6120	26.416
0.6110	26.382
0.6100	26.414
0.6090	26.546
0.6080	26.447
0.6070	26.414
0.6060	26.447
0.6050	26.347
0.6040	26.212
0.6030	26.245
0.6020	26.144
0.6010	26.144
0.6000	26.106
0.5990	26.139
0.5980	26.306
0.5970	26.373
0.5960	26.474
0.5950	26.541
0.5940	26.472
0.5930	26.439
0.5920	26.335
0.5910	26.335
0.5900	26.437
0.5890	26.369
0.5880	26.132
0.5870	26.132
0.5860	26.166
0.5850	25.864
0.5840	26.335
0.5830	26.198
0.5820	26.236
0.5810	25.967
0.5800	25.836
0.5790	26.172
0.5780	26.139
0.5770	26.172
0.5760	26.373
0.5750	26.373
0.5740	26.172
0.5730	26.112
0.5720	26.049
0.5710	26.049
0.5700	26.017
0.5690	26.017
0.5680	25.921
0.5670	26.014
0.5660	26.144
0.5650	26.043
0.5640	25.846
0.5630	26.144
0.5620	25.976
0.5610	25.908
0.5600	25.836
0.5590	25.800
0.5580	25.800
0.5570	25.863
0.5560	25.967
0.5550	25.967
0.5540	25.587
0.5530	25.457
0.5520	25.482
0.5510	25.251
0.5500	25.810
0.5490	25.835
0.5480	25.819
0.5470	25.735
0.5460	25.765
0.5450	25.540
0.5440	25.561
0.5430	25.659
0.5420	25.661
0.5410	25.846
0.5400	25.632
0.5390	25.525
0.5380	25.710
0.5370	25.629
0.5360	25.464
0.5350	25.612
0.5340	25.545
0.5330	25.545
0.5320	25.361
0.5310	25.154
0.5300	25.183
0.5290	25.310
0.5280	25.085
0.5270	25.038
0.5260	25.038
0.5250	25.183
0.5240	25.025
0.5230	24.880
0.5220	24.796
0.5210	24.796
0.5200	24.988
0.5190	25.006
0.5180	24.909
0.5170	24.617
0.5160	24.675
0.5150	24.732
0.5140	24.589
0.5130	24.646
0.5120	24.871
0.5110	24.742
0.5100	24.463
0.5090	24.422
0.5080	24.105
0.5070	24.189
0.5060	24.273
0.5050	24.352
0.5040	24.330
0.5030	24.301
0.5020	24.133
0.5010	24.149
0.5000	24.175
0.4990	23.978
0.4980	23.769
0.4970	23.699
0.4960	23.546
0.4950	23.548
0.4940	23.483
0.4930	23.632
0.4920	23.714
0.4910	23.617
0.4900	23.505
0.4890	23.382
0.4880	23.309
0.4870	23.282
0.4860	23.294
0.4850	23.088
0.4840	23.088
0.4830	23.196
0.4820	22.964
0.4810	22.893
0.4800	22.529
0.4790	22.599
0.4780	22.608
0.4770	22.778
0.4760	22.778
0.4750	22.585
0.4740	22.611
0.4730	22.344
0.4720	22.293
0.4710	22.096
0.4700	22.293
0.4690	22.194
0.4680	22.239
0.4670	22.220
0.4660	22.025
0.4650	22.149
0.4640	22.052
0.4630	22.000
0.4620	21.924
0.4610	21.924
0.4600	21.755
0.4590	23.141
0.4580	23.027
0.4570	23.111
0.4560	22.738
0.4550	22.464
0.4540	22.438
0.4530	22.364
0.4520	22.567
0.4510	22.567
0.4500	22.645
0.4490	22.415
0.4480	22.518
0.4470	22.442
0.4460	22.215
0.4450	22.089
0.4440	22.290
0.4430	22.010
0.4420	22.213
0.4410	21.734
0.4400	21.811
0.4390	21.786
0.4380	21.759
0.4370	21.678
0.4360	21.678
0.4350	21.879
0.4340	21.701
0.4330	21.652
0.4320	21.343
0.4310	21.469
0.4300	21.185
0.4290	21.089
0.4280	20.984
0.4270	21.024
0.4260	20.725
0.4250	20.682
0.4240	20.575
0.4230	20.443
0.4220	20.510
0.4210	20.303
0.4200	20.246
0.4190	20.130
0.4180	20.031
0.4170	20.006
0.4160	19.952
0.4150	19.689
0.4140	19.747
0.4130	19.733
0.4120	19.813
0.4110	19.603
0.4100	19.442
0.4090	19.442
0.4080	19.442
0.4070	19.425
0.4060	19.183
0.4050	19.039
0.4040	19.102
0.4030	19.183
0.4020	19.123
0.4010	19.060
0.4000	18.603
