Name: Red Quartzite 
Type:  Rocks
Class:  Metamorphic 
Subclass: Quartzite
Particle Size:  0-75 Micrometer
Sample No.:   qtzite1.doc
Owner:  JHU
Wavelength Range:  All
Origin:  Sample No. 377, The Hunt and Salisbury Collection at the U.S. 
Geological Survey, Denver, Co.
Description:  A well-compacted sample with medium-grained subangular to 
subrounded quartz grains and small amounts of interstitial calcite cement.  There 
is also a trace amount of secondary quartz cement   Fluid inclusions are common 
in the quartz with some grains showing strain, and trace amounts of feldspar are 
present.  The calcite cement itself is stained with ferruginous material and some 
clay.  Modal analyses gave 69% quartz, 25% calcite, 5% clay, 1% feldspar.    
Measurement:  Directional (10 Degree) Hemispherical Reflectance
First Column:  X
Second Column:  Y  
X Units:  Wavelength (micrometers)
Y Units:  Reflectance (percent)
First X Value: 14.0112	
Last X Value:  0.4
Number of X Values:  2844
Additional Information:  None

14.983	6.0428
14.940	6.1380
14.897	6.2112
14.854	6.1826
14.812	6.0547
14.770	5.8640
14.728	5.6218
14.686	5.3229
14.645	4.9854
14.603	4.6255
14.562	4.2428
14.521	3.8232
14.481	3.3855
14.441	2.9917
14.400	2.7115
14.361	2.6142
14.321	2.7480
14.281	3.0895
14.242	3.5425
14.203	3.9617
14.164	4.2447
14.126	4.3738
14.087	4.4029
14.049	4.4569
14.011	4.6932
13.973	5.1901
13.936	5.9005
13.899	6.7026
13.861	7.4642
13.824	8.0839
13.788	8.5036
13.751	8.7435
13.715	8.8749
13.679	8.9481
13.643	8.9756
13.607	8.9606
13.571	8.9031
13.536	8.7982
13.500	8.6447
13.465	8.4557
13.430	8.2466
13.396	8.0257
13.361	7.8009
13.327	7.5864
13.293	7.3877
13.259	7.2013
13.225	7.0121
13.191	6.8037
13.158	6.5662
13.124	6.2939
13.091	5.9855
13.058	5.6590
13.026	5.3414
12.993	5.0586
12.960	4.8232
12.928	4.6404
12.896	4.5099
12.864	4.4154
12.832	4.3264
12.800	4.2193
12.769	4.0839
12.737	3.9236
12.706	3.7505
12.675	3.5875
12.644	3.4599
12.614	3.3796
12.583	3.3438
12.552	3.3379
12.522	3.3391
12.492	3.3275
12.462	3.2920
12.432	3.2389
12.402	3.1892
12.373	3.1736
12.343	3.2354
12.314	3.4071
12.285	3.6960
12.256	4.0900
12.227	4.5660
12.198	5.0949
12.169	5.6492
12.141	6.2081
12.113	6.7606
12.084	7.2987
12.056	7.8107
12.028	8.2850
12.000	8.7340
11.973	9.1610
11.945	9.5262
11.918	9.7850
11.890	9.9205
11.863	9.9531
11.836	9.9330
11.809	9.9337
11.782	10.060
11.755	10.349
11.729	10.715
11.702	11.059
11.676	11.307
11.650	11.404
11.624	11.309
11.598	11.006
11.572	10.517
11.546	9.8603
11.520	9.0577
11.495	8.2014
11.469	7.4223
11.444	6.8307
11.419	6.5058
11.394	6.4914
11.369	6.7777
11.344	7.2965
11.319	7.9499
11.294	8.6376
11.270	9.2427
11.245	9.6526
11.221	9.8245
11.197	9.7866
11.173	9.5948
11.149	9.3118
11.125	8.9931
11.101	8.6682
11.077	8.3314
11.054	7.9665
11.030	7.5769
11.007	7.1871
10.983	6.8288
10.960	6.5368
10.937	6.3346
10.914	6.2261
10.891	6.2008
10.868	6.2415
10.846	6.3249
10.823	6.4293
10.800	6.5361
10.778	6.6304
10.755	6.6950
10.733	6.7168
10.711	6.6931
10.689	6.6375
10.667	6.5750
10.645	6.5352
10.623	6.5510
10.602	6.6436
10.580	6.8170
10.558	7.0597
10.537	7.3465
10.516	7.6442
10.494	7.9196
10.473	8.1498
10.452	8.3272
10.431	8.4512
10.410	8.5294
10.389	8.5739
10.368	8.5967
10.348	8.6052
10.327	8.6042
10.306	8.5969
10.286	8.5822
10.266	8.5535
10.245	8.5010
10.225	8.4193
10.205	8.3035
10.185	8.1540
10.165	7.9755
10.145	7.7756
10.125	7.5625
10.106	7.3411
10.086	7.1142
10.066	6.8849
10.047	6.6574
10.027	6.4357
10.008	6.2245
9.9887	6.0272
9.9695	5.8508
9.9504	5.6983
9.9313	5.5694
9.9123	5.4645
9.8934	5.3840
9.8746	5.3248
9.8558	5.2774
9.8371	5.2336
9.8185	5.1905
9.7999	5.1455
9.7814	5.0979
9.7630	5.0527
9.7447	5.0179
9.7264	4.9973
9.7082	4.9881
9.6900	4.9866
9.6719	4.9895
9.6539	4.9928
9.6360	4.9980
9.6181	5.0132
9.6003	5.0449
9.5825	5.0965
9.5649	5.1683
9.5472	5.2571
9.5297	5.3565
9.5122	5.4638
9.4948	5.5870
9.4774	5.7433
9.4601	5.9483
9.4429	6.2195
9.4257	6.5735
9.4086	7.0107
9.3916	7.5139
9.3746	8.0517
9.3577	8.5836
9.3408	9.0648
9.3240	9.4513
9.3073	9.7203
9.2906	9.8733
9.2740	9.9238
9.2574	9.8994
9.2409	9.8338
9.2245	9.7540
9.2081	9.6758
9.1918	9.6026
9.1755	9.5361
9.1593	9.4729
9.1431	9.4080
9.1270	9.3414
9.1110	9.2751
9.0950	9.2083
9.0791	9.1371
9.0632	9.0544
9.0474	8.9493
9.0316	8.8126
9.0159	8.6485
9.0003	8.4756
8.9847	8.3250
8.9691	8.2324
8.9536	8.2213
8.9382	8.2952
8.9228	8.4359
8.9075	8.6085
8.8922	8.7766
8.8770	8.9133
8.8618	9.0056
8.8467	9.0547
8.8316	9.0644
8.8166	9.0407
8.8016	8.9933
8.7867	8.9301
8.7718	8.8574
8.7570	8.7816
8.7422	8.7080
8.7275	8.6258
8.7129	8.4996
8.6982	8.2900
8.6837	7.9819
8.6692	7.6020
8.6547	7.2155
8.6403	6.9160
8.6259	6.7978
8.6116	6.9039
8.5973	7.1964
8.5830	7.5885
8.5688	7.9868
8.5547	8.3193
8.5406	8.5519
8.5266	8.6902
8.5126	8.7669
8.4986	8.8136
8.4847	8.8455
8.4708	8.8711
8.4570	8.8960
8.4432	8.9249
8.4295	8.9682
8.4158	9.0286
8.4022	9.1075
8.3886	9.2079
8.3750	9.3303
8.3615	9.4703
8.3481	9.6242
8.3347	9.7964
8.3213	9.9958
8.3079	10.225
8.2946	10.492
8.2814	10.802
8.2682	11.156
8.2550	11.546
8.2419	11.962
8.2288	12.395
8.2158	12.825
8.2028	13.227
8.1898	13.572
8.1769	13.825
8.1640	13.967
8.1512	13.990
8.1384	13.902
8.1256	13.725
8.1129	13.495
8.1002	13.248
8.0876	13.006
8.0750	12.787
8.0624	12.602
8.0499	12.456
8.0374	12.346
8.0250	12.265
8.0126	12.210
8.0002	12.164
7.9879	12.110
7.9756	12.025
7.9634	11.895
7.9512	11.717
7.9390	11.502
7.9268	11.268
7.9147	11.038
7.9027	10.832
7.8906	10.661
7.8786	10.526
7.8667	10.418
7.8548	10.332
7.8429	10.260
7.8310	10.203
7.8192	10.171
7.8075	10.174
7.7957	10.219
7.7840	10.309
7.7723	10.430
7.7607	10.560
7.7491	10.674
7.7375	10.758
7.7260	10.804
7.7145	10.814
7.7031	10.792
7.6916	10.743
7.6802	10.668
7.6689	10.561
7.6575	10.423
7.6462	10.265
7.6350	10.099
7.6238	9.9432
7.6126	9.8132
7.6014	9.7168
7.5903	9.6552
7.5792	9.6244
7.5681	9.6171
7.5571	9.6235
7.5461	9.6339
7.5351	9.6384
7.5242	9.6263
7.5133	9.5896
7.5024	9.5259
7.4916	9.4392
7.4807	9.3346
7.4700	9.2195
7.4592	9.1034
7.4485	8.9909
7.4378	8.8830
7.4272	8.7764
7.4165	8.6679
7.4059	8.5512
7.3954	8.4138
7.3848	8.2481
7.3743	8.0532
7.3639	7.8310
7.3534	7.5883
7.3430	7.3370
7.3326	7.0919
7.3223	6.8610
7.3119	6.6460
7.3016	6.4475
7.2914	6.2661
7.2811	6.0997
7.2709	5.9441
7.2607	5.7982
7.2506	5.6601
7.2404	5.5266
7.2303	5.3944
7.2203	5.2639
7.2102	5.1377
7.2002	5.0181
7.1902	4.9082
7.1803	4.8130
7.1703	4.7396
7.1604	4.6965
7.1506	4.6923
7.1407	4.7330
7.1309	4.8142
7.1211	4.9225
7.1113	5.0364
7.1016	5.1292
7.0919	5.1789
7.0822	5.1761
7.0725	5.1273
7.0629	5.0499
7.0533	4.9582
7.0437	4.8677
7.0341	4.7901
7.0246	4.7254
7.0151	4.6660
7.0056	4.6030
6.9962	4.5350
6.9867	4.4645
6.9773	4.3936
6.9679	4.3273
6.9586	4.2748
6.9493	4.2402
6.9400	4.2196
6.9307	4.2092
6.9214	4.2035
6.9122	4.1976
6.9030	4.1879
6.8938	4.1725
6.8847	4.1542
6.8755	4.1372
6.8664	4.1265
6.8573	4.1310
6.8483	4.1481
6.8393	4.1689
6.8302	4.1876
6.8213	4.2016
6.8123	4.2099
6.8034	4.2137
6.7944	4.2205
6.7855	4.2390
6.7767	4.2696
6.7678	4.3055
6.7590	4.3437
6.7502	4.3825
6.7414	4.4218
6.7327	4.4592
6.7239	4.4981
6.7152	4.5421
6.7065	4.5954
6.6979	4.6617
6.6892	4.7396
6.6806	4.8237
6.6720	4.9099
6.6634	4.9937
6.6549	5.0752
6.6464	5.1578
6.6378	5.2512
6.6294	5.3674
6.6209	5.5003
6.6124	5.6376
6.6040	5.7712
6.5956	5.8953
6.5872	6.0113
6.5789	6.1271
6.5705	6.2574
6.5622	6.4175
6.5539	6.6126
6.5456	6.8435
6.5374	7.1023
6.5292	7.3763
6.5209	7.6579
6.5128	7.9492
6.5046	8.2559
6.4964	8.5940
6.4883	8.9864
6.4802	9.4369
6.4721	9.9278
6.4640	10.413
6.4560	10.830
6.4480	11.132
6.4399	11.295
6.4320	11.329
6.4240	11.276
6.4160	11.176
6.4081	11.070
6.4002	10.960
6.3923	10.817
6.3844	10.620
6.3766	10.361
6.3687	10.050
6.3609	9.7023
6.3531	9.3346
6.3454	8.9682
6.3376	8.6161
6.3299	8.2743
6.3221	7.9430
6.3144	7.6333
6.3068	7.3576
6.2991	7.1187
6.2914	6.9096
6.2838	6.7251
6.2762	6.5579
6.2686	6.3981
6.2611	6.2413
6.2535	6.0921
6.2460	5.9571
6.2385	5.8427
6.2310	5.7487
6.2235	5.6717
6.2160	5.6123
6.2086	5.5765
6.2011	5.5789
6.1937	5.6336
6.1863	5.7511
6.1790	5.9410
6.1716	6.2024
6.1643	6.5259
6.1570	6.8923
6.1496	7.2769
6.1424	7.6624
6.1351	8.0333
6.1278	8.3828
6.1206	8.7170
6.1134	9.0414
6.1062	9.3637
6.0990	9.6808
6.0918	9.9666
6.0847	10.195
6.0776	10.354
6.0704	10.459
6.0633	10.535
6.0563	10.605
6.0492	10.703
6.0421	10.855
6.0351	11.033
6.0281	11.191
6.0211	11.302
6.0141	11.354
6.0071	11.337
6.0002	11.246
5.9932	11.103
5.9863	10.949
5.9794	10.787
5.9725	10.609
5.9657	10.430
5.9588	10.267
5.9520	10.134
5.9451	10.060
5.9383	10.078
5.9315	10.219
5.9247	10.473
5.9180	10.789
5.9112	11.134
5.9045	11.480
5.8978	11.818
5.8911	12.167
5.8844	12.539
5.8777	12.954
5.8711	13.405
5.8644	13.847
5.8578	14.249
5.8512	14.587
5.8446	14.858
5.8380	15.080
5.8314	15.280
5.8249	15.497
5.8184	15.757
5.8118	16.056
5.8053	16.356
5.7988	16.618
5.7923	16.825
5.7859	16.971
5.7794	17.074
5.7730	17.166
5.7666	17.293
5.7602	17.486
5.7538	17.724
5.7474	17.978
5.7410	18.230
5.7347	18.455
5.7283	18.637
5.7220	18.774
5.7157	18.879
5.7094	18.959
5.7031	19.007
5.6969	19.007
5.6906	18.953
5.6844	18.840
5.6782	18.653
5.6719	18.386
5.6657	18.033
5.6596	17.598
5.6534	17.101
5.6472	16.569
5.6411	16.032
5.6349	15.515
5.6288	15.014
5.6227	14.508
5.6166	13.947
5.6106	13.268
5.6045	12.438
5.5984	11.468
5.5924	10.410
5.5864	9.3568
5.5804	8.4394
5.5744	7.7967
5.5684	7.5258
5.5624	7.6709
5.5564	8.2343
5.5505	9.1643
5.5445	10.343
5.5386	11.615
5.5327	12.838
5.5268	13.913
5.5209	14.794
5.5151	15.483
5.5092	16.023
5.5033	16.476
5.4975	16.886
5.4917	17.277
5.4859	17.667
5.4801	18.071
5.4743	18.497
5.4685	18.931
5.4628	19.350
5.4570	19.718
5.4513	19.984
5.4455	20.107
5.4398	20.065
5.4341	19.856
5.4284	19.492
5.4228	18.991
5.4171	18.382
5.4114	17.677
5.4058	16.889
5.4002	16.043
5.3945	15.176
5.3889	14.334
5.3833	13.559
5.3778	12.885
5.3722	12.334
5.3666	11.908
5.3611	11.599
5.3555	11.402
5.3500	11.306
5.3445	11.298
5.3390	11.357
5.3335	11.460
5.3280	11.589
5.3225	11.730
5.3171	11.876
5.3116	12.030
5.3062	12.201
5.3008	12.401
5.2954	12.640
5.2900	12.931
5.2846	13.280
5.2792	13.689
5.2738	14.151
5.2684	14.660
5.2631	15.213
5.2578	15.815
5.2524	16.472
5.2471	17.193
5.2418	17.971
5.2365	18.789
5.2312	19.617
5.2260	20.409
5.2207	21.124
5.2154	21.733
5.2102	22.219
5.2050	22.574
5.1998	22.801
5.1945	22.918
5.1893	22.951
5.1842	22.924
5.1790	22.863
5.1738	22.790
5.1686	22.721
5.1635	22.657
5.1584	22.591
5.1532	22.526
5.1481	22.466
5.1430	22.420
5.1379	22.399
5.1328	22.407
5.1277	22.442
5.1227	22.487
5.1176	22.518
5.1126	22.516
5.1075	22.465
5.1025	22.364
5.0975	22.223
5.0925	22.054
5.0875	21.875
5.0825	21.700
5.0775	21.546
5.0726	21.426
5.0676	21.346
5.0627	21.306
5.0577	21.306
5.0528	21.333
5.0479	21.372
5.0430	21.408
5.0380	21.434
5.0332	21.444
5.0283	21.439
5.0234	21.433
5.0185	21.444
5.0137	21.492
5.0088	21.583
5.0040	21.727
4.9992	21.931
4.9944	22.204
4.9896	22.561
4.9848	23.021
4.9800	23.601
4.9752	24.301
4.9704	25.090
4.9657	25.922
4.9609	26.736
4.9562	27.478
4.9514	28.111
4.9467	28.627
4.9420	29.050
4.9373	29.433
4.9326	29.839
4.9279	30.331
4.9232	30.966
4.9186	31.782
4.9139	32.797
4.9092	33.997
4.9046	35.340
4.9000	36.771
4.8953	38.223
4.8907	39.634
4.8861	40.955
4.8815	42.159
4.8769	43.240
4.8723	44.203
4.8678	45.055
4.8632	45.811
4.8586	46.486
4.8541	47.093
4.8495	47.645
4.8450	48.153
4.8405	48.626
4.8360	49.069
4.8315	49.484
4.8270	49.873
4.8225	50.241
4.8180	50.594
4.8135	50.936
4.8090	51.268
4.8046	51.588
4.8001	51.895
4.7957	52.188
4.7913	52.465
4.7868	52.726
4.7824	52.970
4.7780	53.192
4.7736	53.387
4.7692	53.548
4.7648	53.676
4.7605	53.772
4.7561	53.837
4.7517	53.874
4.7474	53.882
4.7431	53.858
4.7387	53.795
4.7344	53.683
4.7301	53.510
4.7258	53.259
4.7215	52.913
4.7172	52.465
4.7129	51.910
4.7086	51.256
4.7043	50.530
4.7000	49.774
4.6958	49.039
4.6915	48.386
4.6873	47.871
4.6831	47.536
4.6788	47.392
4.6746	47.430
4.6704	47.621
4.6662	47.936
4.6620	48.352
4.6578	48.859
4.6536	49.457
4.6495	50.140
4.6453	50.889
4.6411	51.669
4.6370	52.439
4.6328	53.164
4.6287	53.822
4.6246	54.405
4.6205	54.915
4.6163	55.363
4.6122	55.754
4.6081	56.092
4.6040	56.380
4.6000	56.623
4.5959	56.830
4.5918	57.004
4.5877	57.149
4.5837	57.267
4.5796	57.356
4.5756	57.413
4.5716	57.439
4.5675	57.437
4.5635	57.408
4.5595	57.349
4.5555	57.259
4.5515	57.132
4.5475	56.965
4.5435	56.753
4.5395	56.498
4.5356	56.203
4.5316	55.869
4.5276	55.500
4.5237	55.094
4.5197	54.651
4.5158	54.180
4.5119	53.694
4.5080	53.218
4.5040	52.780
4.5001	52.406
4.4962	52.113
4.4923	51.899
4.4884	51.748
4.4846	51.644
4.4807	51.569
4.4768	51.521
4.4730	51.514
4.4691	51.569
4.4652	51.703
4.4614	51.920
4.4576	52.204
4.4537	52.527
4.4499	52.857
4.4461	53.170
4.4423	53.454
4.4385	53.709
4.4347	53.947
4.4309	54.183
4.4271	54.424
4.4233	54.676
4.4196	54.938
4.4158	55.208
4.4120	55.483
4.4083	55.765
4.4045	56.061
4.4008	56.370
4.3971	56.693
4.3934	57.026
4.3896	57.362
4.3859	57.696
4.3822	58.021
4.3785	58.334
4.3748	58.632
4.3711	58.910
4.3674	59.162
4.3638	59.386
4.3601	59.582
4.3564	59.755
4.3528	59.909
4.3491	60.051
4.3455	60.183
4.3418	60.309
4.3382	60.423
4.3346	60.520
4.3310	60.598
4.3273	60.656
4.3237	60.694
4.3201	60.710
4.3165	60.710
4.3129	60.704
4.3094	60.696
4.3058	60.690
4.3022	60.694
4.2986	60.709
4.2951	60.734
4.2915	60.764
4.2880	60.797
4.2844	60.835
4.2809	60.880
4.2774	60.933
4.2738	60.995
4.2703	61.071
4.2668	61.162
4.2633	61.257
4.2598	61.348
4.2563	61.425
4.2528	61.481
4.2493	61.508
4.2458	61.506
4.2424	61.487
4.2389	61.462
4.2354	61.437
4.2320	61.419
4.2285	61.411
4.2251	61.414
4.2216	61.419
4.2182	61.420
4.2148	61.414
4.2113	61.396
4.2079	61.366
4.2045	61.327
4.2011	61.290
4.1977	61.261
4.1943	61.242
4.1909	61.238
4.1875	61.246
4.1841	61.262
4.1808	61.278
4.1774	61.290
4.1740	61.297
4.1707	61.294
4.1673	61.279
4.1640	61.252
4.1606	61.213
4.1573	61.164
4.1540	61.105
4.1506	61.038
4.1473	60.966
4.1440	60.886
4.1407	60.794
4.1374	60.691
4.1341	60.579
4.1308	60.461
4.1275	60.338
4.1242	60.210
4.1209	60.079
4.1177	59.942
4.1144	59.794
4.1111	59.636
4.1079	59.468
4.1046	59.291
4.1014	59.102
4.0981	58.902
4.0949	58.686
4.0917	58.450
4.0884	58.189
4.0852	57.897
4.0820	57.572
4.0788	57.208
4.0756	56.810
4.0724	56.379
4.0692	55.920
4.0660	55.432
4.0628	54.907
4.0596	54.320
4.0565	53.640
4.0533	52.830
4.0501	51.860
4.0470	50.721
4.0438	49.426
4.0406	48.006
4.0375	46.510
4.0344	44.986
4.0312	43.473
4.0281	41.993
4.0250	40.556
4.0218	39.154
4.0187	37.767
4.0156	36.365
4.0125	34.924
4.0094	33.435
4.0063	31.906
4.0032	30.366
4.0001	28.860
3.9970	27.441
3.9940	26.164
3.9909	25.079
3.9878	24.219
3.9847	23.604
3.9817	23.230
3.9786	23.072
3.9756	23.092
3.9725	23.249
3.9695	23.518
3.9665	23.897
3.9634	24.400
3.9604	25.046
3.9574	25.855
3.9544	26.848
3.9513	28.023
3.9483	29.345
3.9453	30.741
3.9423	32.116
3.9393	33.357
3.9363	34.376
3.9333	35.134
3.9304	35.662
3.9274	36.038
3.9244	36.338
3.9214	36.618
3.9185	36.898
3.9155	37.176
3.9126	37.430
3.9096	37.650
3.9067	37.835
3.9037	37.996
3.9008	38.139
3.8979	38.269
3.8949	38.386
3.8920	38.494
3.8891	38.597
3.8862	38.694
3.8833	38.785
3.8804	38.869
3.8775	38.945
3.8746	39.015
3.8717	39.081
3.8688	39.147
3.8659	39.222
3.8630	39.315
3.8601	39.430
3.8573	39.568
3.8544	39.729
3.8515	39.915
3.8487	40.128
3.8458	40.382
3.8430	40.703
3.8401	41.119
3.8373	41.648
3.8344	42.292
3.8316	43.037
3.8288	43.854
3.8259	44.704
3.8231	45.557
3.8203	46.398
3.8175	47.229
3.8147	48.062
3.8119	48.916
3.8091	49.813
3.8063	50.768
3.8035	51.783
3.8007	52.843
3.7979	53.919
3.7951	54.969
3.7924	55.940
3.7896	56.790
3.7868	57.496
3.7841	58.057
3.7813	58.485
3.7785	58.807
3.7758	59.053
3.7730	59.244
3.7703	59.394
3.7676	59.510
3.7648	59.604
3.7621	59.680
3.7594	59.741
3.7566	59.783
3.7539	59.810
3.7512	59.819
3.7485	59.815
3.7458	59.804
3.7431	59.804
3.7404	59.825
3.7377	59.865
3.7350	59.914
3.7323	59.964
3.7296	60.010
3.7269	60.044
3.7242	60.063
3.7216	60.070
3.7189	60.065
3.7162	60.040
3.7136	59.993
3.7109	59.929
3.7083	59.860
3.7056	59.796
3.7030	59.742
3.7003	59.705
3.6977	59.684
3.6950	59.677
3.6924	59.681
3.6898	59.699
3.6872	59.731
3.6845	59.774
3.6819	59.821
3.6793	59.862
3.6767	59.885
3.6741	59.884
3.6715	59.860
3.6689	59.819
3.6663	59.764
3.6637	59.702
3.6611	59.637
3.6585	59.570
3.6560	59.497
3.6534	59.418
3.6508	59.337
3.6482	59.253
3.6457	59.168
3.6431	59.082
3.6406	58.995
3.6380	58.908
3.6355	58.818
3.6329	58.724
3.6304	58.628
3.6278	58.529
3.6253	58.425
3.6227	58.317
3.6202	58.203
3.6177	58.087
3.6152	57.967
3.6127	57.841
3.6101	57.710
3.6076	57.572
3.6051	57.426
3.6026	57.268
3.6001	57.100
3.5976	56.920
3.5951	56.724
3.5926	56.510
3.5901	56.270
3.5876	56.001
3.5852	55.700
3.5827	55.367
3.5802	55.017
3.5777	54.665
3.5753	54.333
3.5728	54.044
3.5704	53.809
3.5679	53.624
3.5654	53.468
3.5630	53.312
3.5605	53.125
3.5581	52.885
3.5557	52.581
3.5532	52.220
3.5508	51.812
3.5484	51.363
3.5459	50.878
3.5435	50.347
3.5411	49.759
3.5387	49.101
3.5363	48.353
3.5338	47.502
3.5314	46.540
3.5290	45.466
3.5266	44.294
3.5242	43.058
3.5218	41.812
3.5195	40.614
3.5171	39.518
3.5147	38.559
3.5123	37.748
3.5099	37.065
3.5075	36.479
3.5052	35.954
3.5028	35.461
3.5004	34.981
3.4981	34.503
3.4957	34.025
3.4934	33.544
3.4910	33.058
3.4887	32.571
3.4863	32.096
3.4840	31.660
3.4816	31.310
3.4793	31.105
3.4770	31.112
3.4746	31.382
3.4723	31.928
3.4700	32.710
3.4677	33.647
3.4653	34.627
3.4630	35.537
3.4607	36.294
3.4584	36.863
3.4561	37.254
3.4538	37.508
3.4515	37.672
3.4492	37.791
3.4469	37.890
3.4446	37.980
3.4423	38.058
3.4400	38.123
3.4378	38.176
3.4355	38.218
3.4332	38.252
3.4309	38.279
3.4287	38.292
3.4264	38.284
3.4241	38.250
3.4219	38.195
3.4196	38.127
3.4174	38.054
3.4151	37.983
3.4129	37.914
3.4106	37.844
3.4084	37.769
3.4061	37.691
3.4039	37.609
3.4017	37.527
3.3994	37.448
3.3972	37.367
3.3950	37.278
3.3928	37.178
3.3906	37.065
3.3883	36.941
3.3861	36.806
3.3839	36.669
3.3817	36.538
3.3795	36.417
3.3773	36.314
3.3751	36.227
3.3729	36.151
3.3707	36.073
3.3685	35.971
3.3663	35.820
3.3641	35.602
3.3620	35.307
3.3598	34.946
3.3576	34.547
3.3554	34.167
3.3533	33.893
3.3511	33.826
3.3489	34.067
3.3468	34.686
3.3446	35.694
3.3425	37.023
3.3403	38.540
3.3382	40.080
3.3360	41.492
3.3339	42.678
3.3317	43.604
3.3296	44.289
3.3274	44.779
3.3253	45.128
3.3232	45.380
3.3210	45.564
3.3189	45.700
3.3168	45.803
3.3147	45.885
3.3126	45.945
3.3104	45.986
3.3083	46.019
3.3062	46.053
3.3041	46.090
3.3020	46.134
3.2999	46.184
3.2978	46.228
3.2957	46.255
3.2936	46.261
3.2915	46.247
3.2894	46.215
3.2874	46.168
3.2853	46.111
3.2832	46.048
3.2811	45.981
3.2790	45.910
3.2770	45.835
3.2749	45.758
3.2728	45.678
3.2708	45.595
3.2687	45.513
3.2666	45.433
3.2646	45.353
3.2625	45.270
3.2605	45.186
3.2584	45.100
3.2564	45.008
3.2543	44.911
3.2523	44.807
3.2503	44.699
3.2482	44.591
3.2462	44.484
3.2442	44.384
3.2421	44.289
3.2401	44.196
3.2381	44.100
3.2361	43.995
3.2340	43.884
3.2320	43.769
3.2300	43.648
3.2280	43.527
3.2260	43.409
3.2240	43.296
3.2220	43.188
3.2200	43.084
3.2180	42.982
3.2160	42.879
3.2140	42.768
3.2120	42.650
3.2100	42.526
3.2080	42.401
3.2060	42.279
3.2040	42.157
3.2021	42.040
3.2001	41.926
3.1981	41.812
3.1961	41.697
3.1942	41.586
3.1922	41.484
3.1902	41.386
3.1883	41.286
3.1863	41.188
3.1844	41.091
3.1824	40.989
3.1805	40.881
3.1785	40.777
3.1766	40.679
3.1746	40.579
3.1727	40.476
3.1707	40.375
3.1688	40.275
3.1669	40.170
3.1649	40.063
3.1630	39.957
3.1611	39.849
3.1591	39.738
3.1572	39.628
3.1553	39.521
3.1534	39.419
3.1515	39.321
3.1495	39.231
3.1476	39.147
3.1457	39.068
3.1438	38.996
3.1419	38.932
3.1400	38.872
3.1381	38.812
3.1362	38.751
3.1343	38.687
3.1324	38.619
3.1305	38.546
3.1286	38.470
3.1268	38.394
3.1249	38.317
3.1230	38.238
3.1211	38.157
3.1192	38.077
3.1174	37.997
3.1155	37.915
3.1136	37.837
3.1117	37.765
3.1099	37.699
3.1080	37.635
3.1061	37.572
3.1043	37.514
3.1024	37.456
3.1006	37.401
3.0987	37.353
3.0969	37.316
3.0950	37.287
3.0932	37.262
3.0913	37.239
3.0895	37.219
3.0876	37.199
3.0858	37.173
3.0840	37.144
3.0821	37.113
3.0803	37.085
3.0785	37.056
3.0766	37.033
3.0748	37.019
3.0730	37.010
3.0712	36.993
3.0694	36.969
3.0675	36.938
3.0657	36.903
3.0639	36.863
3.0621	36.828
3.0603	36.803
3.0585	36.781
3.0567	36.754
3.0549	36.726
3.0531	36.696
3.0513	36.664
3.0495	36.632
3.0477	36.604
3.0459	36.582
3.0441	36.560
3.0423	36.534
3.0406	36.506
3.0388	36.476
3.0370	36.444
3.0352	36.413
3.0334	36.383
3.0317	36.359
3.0299	36.338
3.0281	36.317
3.0264	36.291
3.0246	36.261
3.0228	36.226
3.0211	36.190
3.0193	36.156
3.0176	36.128
3.0158	36.107
3.0140	36.092
3.0123	36.076
3.0105	36.063
3.0088	36.054
3.0070	36.046
3.0053	36.035
3.0036	36.021
3.0018	36.003
3.0001	35.978
2.9984	35.940
2.9966	35.898
2.9949	35.856
2.9932	35.809
2.9914	35.761
2.9897	35.715
2.9880	35.673
2.9863	35.631
2.9845	35.588
2.9828	35.549
2.9811	35.515
2.9794	35.477
2.9777	35.429
2.9760	35.369
2.9743	35.291
2.9726	35.192
2.9709	35.081
2.9692	34.970
2.9675	34.866
2.9658	34.771
2.9641	34.681
2.9624	34.600
2.9607	34.532
2.9590	34.477
2.9573	34.436
2.9556	34.409
2.9539	34.390
2.9523	34.374
2.9506	34.356
2.9489	34.341
2.9472	34.330
2.9455	34.327
2.9439	34.331
2.9422	34.339
2.9405	34.347
2.9389	34.353
2.9372	34.359
2.9355	34.369
2.9339	34.385
2.9322	34.408
2.9306	34.437
2.9289	34.470
2.9272	34.500
2.9256	34.524
2.9239	34.547
2.9223	34.574
2.9207	34.609
2.9190	34.653
2.9174	34.708
2.9157	34.766
2.9141	34.816
2.9124	34.853
2.9108	34.875
2.9092	34.885
2.9075	34.887
2.9059	34.884
2.9043	34.878
2.9027	34.866
2.9010	34.846
2.8994	34.822
2.8978	34.799
2.8962	34.782
2.8946	34.780
2.8929	34.794
2.8913	34.822
2.8897	34.854
2.8881	34.883
2.8865	34.905
2.8849	34.917
2.8833	34.919
2.8817	34.916
2.8801	34.913
2.8785	34.916
2.8769	34.930
2.8753	34.957
2.8737	34.998
2.8721	35.051
2.8705	35.109
2.8689	35.161
2.8673	35.202
2.8658	35.225
2.8642	35.227
2.8626	35.213
2.8610	35.187
2.8594	35.158
2.8579	35.132
2.8563	35.103
2.8547	35.072
2.8531	35.039
2.8516	35.006
2.8500	34.978
2.8484	34.957
2.8469	34.944
2.8453	34.935
2.8437	34.922
2.8422	34.902
2.8406	34.879
2.8391	34.861
2.8375	34.849
2.8360	34.843
2.8344	34.840
2.8329	34.839
2.8313	34.839
2.8298	34.840
2.8282	34.841
2.8267	34.839
2.8252	34.831
2.8236	34.814
2.8221	34.785
2.8205	34.752
2.8190	34.720
2.8175	34.691
2.8159	34.659
2.8144	34.622
2.8129	34.584
2.8114	34.536
2.8098	34.471
2.8083	34.390
2.8068	34.301
2.8053	34.206
2.8038	34.106
2.8022	34.009
2.8007	33.915
2.7992	33.805
2.7977	33.663
2.7962	33.481
2.7947	33.252
2.7932	32.978
2.7917	32.672
2.7902	32.354
2.7887	32.032
2.7872	31.708
2.7857	31.375
2.7842	31.009
2.7827	30.589
2.7812	30.120
2.7797	29.603
2.7782	29.028
2.7767	28.377
2.7752	27.625
2.7738	26.729
2.7723	25.583
2.7708	24.042
2.7693	22.007
2.7678	19.515
2.7664	16.801
2.7649	14.274
2.7634	12.425
2.7619	11.668
2.7605	12.117
2.7590	13.522
2.7575	15.428
2.7561	17.366
2.7546	18.990
2.7531	20.117
2.7517	20.720
2.7502	20.872
2.7488	20.615
2.7473	19.937
2.7458	18.851
2.7444	17.440
2.7429	15.871
2.7415	14.376
2.7400	13.218
2.7386	12.615
2.7371	12.641
2.7357	13.193
2.7343	14.032
2.7328	14.835
2.7314	15.330
2.7299	15.410
2.7285	15.153
2.7271	14.772
2.7256	14.501
2.7242	14.492
2.7228	14.747
2.7213	15.114
2.7199	15.404
2.7185	15.467
2.7171	15.240
2.7156	14.771
2.7142	14.173
2.7128	13.571
2.7114	13.069
2.7100	12.752
2.7085	12.681
2.7071	12.901
2.7057	13.440
2.7043	14.304
2.7029	15.436
2.7015	16.722
2.7001	18.053
2.6987	19.351
2.6973	20.592
2.6959	21.817
2.6945	23.124
2.6931	24.608
2.6917	26.293
2.6903	28.129
2.6889	30.050
2.6875	31.965
2.6861	33.800
2.6847	35.495
2.6833	37.021
2.6819	38.383
2.6805	39.630
2.6791	40.792
2.6778	41.883
2.6764	42.921
2.6750	43.915
2.6736	44.814
2.6722	45.563
2.6709	46.193
2.6695	46.830
2.6681	47.520
2.6667	48.259
2.6654	49.097
2.6640	50.026
2.6626	50.950
2.6613	51.768
2.6599	52.458
2.6585	53.049
2.6572	53.531
2.6558	53.916
2.6545	54.280
2.6531	54.645
2.6517	55.011
2.6504	55.364
2.6490	55.686
2.6477	55.973
2.6463	56.235
2.6450	56.492
2.6436	56.767
2.6423	57.043
2.6409	57.329
2.6396	57.623
2.6382	57.872
2.6369	58.040
2.6356	58.143
2.6342	58.192
2.6329	58.215
2.6315	58.241
2.6302	58.367
2.6289	58.648
2.6275	58.992
2.6262	59.347
2.6249	59.669
2.6236	59.861
2.6222	59.897
2.6209	59.822
2.6196	59.778
2.6183	59.838
2.6169	59.973
2.6156	60.218
2.6143	60.525
2.6130	60.754
2.6117	60.836
2.6103	60.759
2.6090	60.580
2.6077	60.360
2.6064	60.172
2.6051	60.151
2.6038	60.343
2.6025	60.608
2.6012	60.774
2.5999	60.735
2.5986	60.471
2.5973	60.053
2.5960	59.637
2.5947	59.435
2.5934	59.581
2.5921	59.940
2.5908	60.307
2.5895	60.567
2.5882	60.670
2.5869	60.647
2.5856	60.588
2.5843	60.589
2.5830	60.736
2.5817	60.972
2.5805	61.188
2.5792	61.355
2.5779	61.459
2.5766	61.512
2.5753	61.540
2.5741	61.573
2.5728	61.680
2.5715	61.861
2.5702	62.052
2.5690	62.235
2.5677	62.373
2.5664	62.436
2.5651	62.442
2.5639	62.453
2.5626	62.547
2.5613	62.754
2.5601	63.042
2.5588	63.348
2.5575	63.594
2.5563	63.725
2.5550	63.736
2.5538	63.660
2.5525	63.557
2.5513	63.468
2.5500	63.389
2.5487	63.293
2.5475	63.168
2.5462	63.019
2.5450	62.857
2.5437	62.702
2.5425	62.585
2.5413	62.522
2.5400	62.496
2.5388	62.486
2.5375	62.483
2.5363	62.486
2.5350	62.497
2.5338	62.524
2.5326	62.576
2.5313	62.670
2.5301	62.800
2.5289	62.951
2.5276	63.109
2.5264	63.265
2.5252	63.411
2.5239	63.542
2.5227	63.661
2.5215	63.779
2.5202	63.901
2.5190	64.019
2.5178	64.131
2.5166	64.235
2.5154	64.332
2.5141	64.424
2.5129	64.513
2.5117	64.604
2.5105	64.699
2.5093	64.796
2.5081	64.889
2.5068	64.977
2.5056	65.058
2.5044	65.139
2.5032	65.217
2.5020	65.289
2.5008	65.352
2.4996	65.405
2.4984	65.446
2.4972	65.473
2.4960	65.486
2.4948	65.494
2.4936	65.495
2.4924	65.487
2.4912	65.476
2.4900	65.477
2.4888	65.506
2.4876	65.578
2.4864	65.703
2.4852	65.881
2.4840	66.094
2.4828	66.322
2.4816	66.544
2.4805	66.744
2.4793	66.916
2.4781	67.062
2.4769	67.188
2.4757	67.302
2.4745	67.412
2.4734	67.526
2.4722	67.645
2.4710	67.766
2.4698	67.886
2.4686	68.001
2.4675	68.102
2.4663	68.184
2.4651	68.251
2.4640	68.309
2.4628	68.359
2.4616	68.401
2.4604	68.443
2.4593	68.486
2.4581	68.532
2.4569	68.589
2.4558	68.661
2.4546	68.745
2.4535	68.834
2.4523	68.920
2.4511	69.002
2.4500	69.074
2.4488	69.139
2.4477	69.205
2.4465	69.274
2.4454	69.346
2.4442	69.417
2.4431	69.495
2.4419	69.585
2.4408	69.689
2.4396	69.816
2.4385	69.971
2.4373	70.150
2.4362	70.341
2.4350	70.541
2.4339	70.743
2.4327	70.941
2.4316	71.132
2.4305	71.315
2.4293	71.490
2.4282	71.646
2.4270	71.777
2.4259	71.892
2.4248	71.995
2.4236	72.087
2.4225	72.175
2.4214	72.262
2.4202	72.347
2.4191	72.425
2.4180	72.493
2.4169	72.555
2.4157	72.612
2.4146	72.666
2.4135	72.721
2.4124	72.772
2.4112	72.819
2.4101	72.859
2.4090	72.890
2.4079	72.914
2.4068	72.931
2.4056	72.941
2.4045	72.942
2.4034	72.925
2.4023	72.884
2.4012	72.815
2.4001	72.718
2.3990	72.593
2.3979	72.443
2.3967	72.283
2.3956	72.128
2.3945	71.983
2.3934	71.852
2.3923	71.731
2.3912	71.609
2.3901	71.476
2.3890	71.326
2.3879	71.169
2.3868	71.020
2.3857	70.898
2.3846	70.820
2.3835	70.792
2.3824	70.814
2.3813	70.882
2.3802	70.981
2.3791	71.101
2.3781	71.233
2.3770	71.376
2.3759	71.528
2.3748	71.687
2.3737	71.852
2.3726	72.024
2.3715	72.193
2.3704	72.350
2.3694	72.483
2.3683	72.584
2.3672	72.647
2.3661	72.671
2.3650	72.652
2.3640	72.593
2.3629	72.497
2.3618	72.370
2.3607	72.220
2.3597	72.065
2.3586	71.925
2.3575	71.813
2.3564	71.735
2.3554	71.694
2.3543	71.681
2.3532	71.680
2.3522	71.682
2.3511	71.685
2.3500	71.694
2.3490	71.716
2.3479	71.757
2.3468	71.821
2.3458	71.904
2.3447	71.992
2.3436	72.079
2.3426	72.164
2.3415	72.245
2.3405	72.323
2.3394	72.393
2.3384	72.452
2.3373	72.490
2.3363	72.506
2.3352	72.507
2.3342	72.500
2.3331	72.495
2.3321	72.489
2.3310	72.487
2.3300	72.491
2.3289	72.501
2.3279	72.520
2.3268	72.553
2.3258	72.601
2.3247	72.663
2.3237	72.730
2.3226	72.799
2.3216	72.872
2.3206	72.943
2.3195	73.007
2.3185	73.060
2.3175	73.102
2.3164	73.133
2.3154	73.156
2.3144	73.175
2.3133	73.198
2.3123	73.232
2.3113	73.285
2.3102	73.355
2.3092	73.442
2.3082	73.545
2.3071	73.656
2.3061	73.762
2.3051	73.856
2.3041	73.940
2.3030	74.016
2.3020	74.086
2.3010	74.157
2.3000	74.231
2.2990	74.312
2.2979	74.394
2.2969	74.479
2.2959	74.573
2.2949	74.673
2.2939	74.776
2.2929	74.883
2.2918	74.991
2.2908	75.099
2.2898	75.206
2.2888	75.318
2.2878	75.435
2.2868	75.551
2.2858	75.666
2.2848	75.780
2.2838	75.890
2.2828	75.993
2.2818	76.100
2.2808	76.214
2.2798	76.334
2.2787	76.455
2.2777	76.577
2.2767	76.695
2.2757	76.798
2.2747	76.891
2.2738	76.979
2.2728	77.065
2.2718	77.151
2.2708	77.240
2.2698	77.330
2.2688	77.410
2.2678	77.480
2.2668	77.543
2.2658	77.594
2.2648	77.628
2.2638	77.653
2.2628	77.676
2.2618	77.696
2.2609	77.709
2.2599	77.728
2.2589	77.761
2.2579	77.802
2.2569	77.856
2.2559	77.935
2.2550	78.035
2.2540	78.137
2.2530	78.228
2.2520	78.308
2.2510	78.375
2.2501	78.423
2.2491	78.464
2.2481	78.513
2.2471	78.571
2.2462	78.633
2.2452	78.702
2.2442	78.779
2.2433	78.856
2.2423	78.924
2.2413	78.983
2.2403	79.030
2.2394	79.067
2.2384	79.097
2.2374	79.132
2.2365	79.175
2.2355	79.224
2.2345	79.266
2.2336	79.292
2.2326	79.290
2.2317	79.257
2.2307	79.192
2.2297	79.108
2.2288	79.017
2.2278	78.922
2.2269	78.815
2.2259	78.686
2.2250	78.519
2.2240	78.310
2.2231	78.048
2.2221	77.736
2.2211	77.386
2.2202	77.002
2.2192	76.580
2.2183	76.115
2.2173	75.588
2.2164	74.963
2.2155	74.176
2.2145	73.157
2.2136	71.866
2.2126	70.315
2.2117	68.619
2.2107	66.983
2.2098	65.666
2.2088	64.909
2.2079	64.850
2.2070	65.465
2.2060	66.598
2.2051	68.008
2.2041	69.451
2.2032	70.737
2.2023	71.768
2.2013	72.538
2.2004	73.088
2.1995	73.461
2.1985	73.702
2.1976	73.853
2.1967	73.937
2.1957	73.975
2.1948	73.985
2.1939	73.990
2.1930	73.999
2.1920	74.012
2.1911	74.029
2.1902	74.051
2.1893	74.066
2.1883	74.056
2.1874	74.007
2.1865	73.917
2.1856	73.789
2.1846	73.634
2.1837	73.471
2.1828	73.329
2.1819	73.217
2.1810	73.132
2.1800	73.079
2.1791	73.059
2.1782	73.065
2.1773	73.091
2.1764	73.131
2.1755	73.180
2.1746	73.222
2.1736	73.251
2.1727	73.269
2.1718	73.277
2.1709	73.278
2.1700	73.283
2.1691	73.304
2.1682	73.342
2.1673	73.395
2.1664	73.466
2.1655	73.550
2.1646	73.643
2.1637	73.743
2.1628	73.864
2.1619	74.018
2.1610	74.203
2.1601	74.422
2.1592	74.668
2.1583	74.923
2.1574	75.171
2.1565	75.405
2.1556	75.627
2.1547	75.839
2.1538	76.043
2.1529	76.254
2.1520	76.478
2.1511	76.716
2.1502	76.979
2.1493	77.275
2.1484	77.602
2.1475	77.943
2.1466	78.278
2.1458	78.592
2.1449	78.870
2.1440	79.113
2.1431	79.340
2.1422	79.566
2.1413	79.795
2.1404	80.021
2.1396	80.239
2.1387	80.438
2.1378	80.606
2.1369	80.750
2.1360	80.882
2.1352	81.006
2.1343	81.119
2.1334	81.222
2.1325	81.321
2.1316	81.418
2.1308	81.511
2.1299	81.609
2.1290	81.716
2.1281	81.821
2.1273	81.908
2.1264	81.977
2.1255	82.029
2.1247	82.066
2.1238	82.094
2.1229	82.130
2.1220	82.182
2.1212	82.236
2.1203	82.276
2.1194	82.299
2.1186	82.293
2.1177	82.257
2.1168	82.197
2.1160	82.138
2.1151	82.095
2.1143	82.063
2.1134	82.050
2.1125	82.070
2.1117	82.126
2.1108	82.221
2.1100	82.352
2.1091	82.508
2.1082	82.666
2.1074	82.802
2.1065	82.910
2.1057	82.996
2.1048	83.065
2.1040	83.123
2.1031	83.175
2.1023	83.220
2.1014	83.251
2.1005	83.262
2.0997	83.257
2.0988	83.248
2.0980	83.245
2.0971	83.250
2.0963	83.272
2.0955	83.311
2.0946	83.348
2.0938	83.370
2.0929	83.370
2.0921	83.359
2.0912	83.343
2.0904	83.335
2.0895	83.350
2.0887	83.385
2.0879	83.429
2.0870	83.479
2.0862	83.539
2.0853	83.602
2.0845	83.687
2.0837	83.779
2.0828	83.888
2.0820	84.009
2.0812	84.023
2.0803	84.078
2.0795	83.980
2.0760	83.980
2.0720	83.980
2.0680	84.194
2.0640	84.194
2.0600	84.313
2.0560	84.762
2.0520	84.786
2.0480	84.856
2.0440	84.785
2.0400	84.714
2.0360	84.314
2.0320	83.965
2.0280	84.036
2.0240	84.293
2.0200	84.245
2.0160	84.269
2.0120	83.967
2.0080	83.828
2.0040	83.411
2.0000	83.250
1.9960	83.045
1.9920	82.650
1.9880	82.422
1.9840	82.329
1.9800	82.195
1.9760	82.086
1.9720	82.111
1.9680	81.584
1.9640	81.268
1.9600	81.099
1.9560	80.981
1.9520	80.915
1.9480	80.849
1.9440	80.573
1.9400	80.363
1.9360	80.256
1.9320	80.049
1.9280	79.733
1.9240	79.930
1.9200	79.930
1.9160	80.331
1.9120	80.610
1.9080	80.890
1.9040	81.068
1.9000	81.375
1.8960	81.721
1.8920	82.119
1.8880	82.836
1.8840	82.842
1.8800	83.505
1.8760	84.183
1.8720	84.457
1.8680	84.410
1.8640	84.203
1.8600	84.228
1.8560	84.140
1.8520	84.730
1.8480	84.988
1.8440	84.534
1.8400	84.672
1.8360	84.695
1.8320	84.787
1.8280	84.694
1.8240	84.512
1.8200	84.220
1.8160	84.512
1.8120	84.401
1.8080	84.155
1.8040	84.176
1.8000	84.445
1.7960	84.289
1.7920	84.244
1.7880	84.221
1.7840	84.311
1.7800	84.355
1.7760	84.221
1.7720	84.088
1.7680	83.833
1.7640	83.744
1.7600	83.664
1.7560	83.687
1.7520	83.756
1.7480	83.713
1.7440	84.268
1.7400	83.955
1.7360	84.198
1.7320	84.309
1.7280	84.354
1.7240	84.444
1.7200	84.399
1.7160	84.423
1.7120	84.760
1.7080	85.262
1.7040	85.139
1.7000	84.812
1.6960	85.103
1.6920	84.545
1.6880	84.500
1.6840	84.390
1.6800	84.736
1.6760	85.161
1.6720	84.992
1.6680	84.411
1.6640	84.567
1.6600	84.634
1.6560	84.946
1.6520	84.345
1.6480	84.188
1.6440	84.522
1.6400	84.074
1.6360	84.254
1.6320	84.454
1.6280	84.410
1.6240	84.187
1.6200	84.143
1.6160	84.144
1.6120	84.167
1.6080	84.209
1.6040	84.544
1.6000	84.791
1.5960	84.410
1.5920	84.522
1.5880	84.454
1.5840	84.522
1.5800	84.701
1.5760	84.494
1.5720	84.720
1.5680	84.541
1.5640	84.253
1.5600	84.100
1.5560	83.438
1.5520	83.522
1.5480	83.785
1.5440	83.986
1.5400	83.657
1.5360	84.162
1.5320	84.362
1.5280	83.622
1.5240	83.246
1.5200	83.073
1.5160	83.209
1.5120	83.673
1.5080	84.181
1.5040	84.223
1.5000	84.081
1.4960	83.030
1.4920	83.268
1.4880	83.094
1.4840	83.052
1.4800	82.702
1.4760	82.572
1.4720	82.508
1.4680	83.292
1.4640	83.647
1.4600	83.292
1.4560	83.495
1.4520	83.387
1.4480	82.207
1.4440	81.750
1.4400	81.634
1.4360	81.583
1.4320	81.622
1.4280	81.583
1.4240	81.389
1.4200	81.055
1.4160	79.798
1.4120	77.679
1.4080	75.925
1.4040	75.134
1.4000	76.327
1.3960	77.209
1.3920	76.963
1.3880	76.778
1.3840	76.989
1.3800	77.818
1.3760	78.772
1.3720	79.075
1.3680	79.807
1.3640	80.521
1.3600	81.204
1.3560	81.165
1.3520	81.283
1.3480	81.162
1.3440	81.302
1.3400	81.341
1.3360	81.379
1.3320	81.850
1.3280	81.889
1.3240	81.962
1.3200	82.106
1.3160	81.873
1.3120	81.720
1.3080	81.720
1.3040	81.592
1.3000	81.592
1.2960	81.592
1.2920	81.605
1.2880	81.554
1.2840	81.426
1.2800	81.696
1.2760	82.086
1.2720	81.814
1.2680	82.101
1.2640	82.149
1.2600	82.057
1.2560	81.744
1.2520	81.835
1.2480	81.679
1.2440	81.019
1.2400	80.756
1.2360	80.820
1.2320	80.793
1.2280	81.050
1.2240	80.793
1.2200	81.001
1.2160	81.220
1.2120	81.028
1.2080	80.953
1.2040	80.772
1.2000	80.772
1.1960	80.627
1.1920	80.437
1.1880	80.212
1.1840	80.150
1.1800	80.087
1.1760	79.900
1.1720	79.776
1.1680	79.687
1.1640	79.428
1.1600	79.335
1.1560	79.106
1.1520	78.821
1.1480	78.578
1.1440	78.731
1.1400	78.430
1.1360	77.982
1.1320	77.347
1.1280	77.498
1.1240	77.952
1.1200	77.507
1.1160	77.205
1.1120	77.753
1.1080	77.509
1.1040	77.084
1.1000	76.623
1.0960	76.629
1.0920	76.269
1.0880	76.176
1.0840	75.988
1.0800	74.703
1.0760	75.422
1.0720	74.834
1.0680	74.632
1.0640	74.160
1.0600	73.939
1.0560	73.931
1.0520	73.728
1.0480	73.223
1.0440	73.015
1.0400	73.027
1.0360	73.130
1.0320	72.767
1.0280	72.270
1.0240	72.201
1.0200	72.292
1.0160	71.985
1.0120	71.325
1.0080	70.913
1.0040	70.661
1.0000	70.388
0.99600	70.019
0.99200	69.369
0.98800	69.256
0.98400	68.957
0.98000	69.009
0.97600	68.215
0.97200	67.877
0.96800	67.545
0.96400	67.301
0.96000	66.733
0.95600	66.332
0.95200	66.089
0.94800	65.639
0.94400	65.459
0.94000	64.999
0.93600	64.720
0.93200	64.500
0.92800	64.027
0.92400	63.708
0.92000	63.312
0.91600	63.165
0.91200	62.760
0.90800	62.587
0.90400	62.224
0.90000	62.140
0.89600	61.735
0.89200	61.556
0.88800	61.245
0.88400	60.980
0.88000	60.881
0.87600	60.750
0.87200	60.622
0.86800	60.350
0.86400	60.126
0.86000	60.110
0.85600	59.811
0.85200	59.766
0.84800	59.842
0.84400	59.721
0.84000	59.448
0.83600	59.768
0.83200	59.312
0.82800	59.539
0.82400	59.403
0.82000	59.767
0.81600	59.728
0.81200	59.771
0.80800	60.132
0.80400	60.311
0.80000	60.533
0.79900	60.241
0.79800	60.241
0.79700	60.480
0.79600	60.781
0.79500	60.976
0.79400	60.530
0.79300	60.480
0.79200	60.630
0.79100	60.575
0.79000	60.681
0.78900	60.728
0.78800	60.913
0.78700	61.064
0.78600	60.807
0.78500	61.214
0.78400	61.601
0.78300	61.601
0.78200	60.754
0.78100	60.848
0.78000	61.017
0.77900	61.373
0.77800	61.363
0.77700	61.547
0.77600	61.292
0.77500	61.279
0.77400	61.376
0.77300	61.472
0.77200	61.512
0.77100	61.419
0.77000	61.070
0.76900	61.153
0.76800	61.416
0.76700	61.933
0.76600	62.225
0.76500	61.953
0.76400	62.292
0.76300	62.267
0.76200	62.258
0.76100	62.262
0.76000	61.620
0.75900	61.459
0.75800	61.749
0.75700	61.749
0.75600	61.964
0.75500	61.987
0.75400	62.621
0.75300	62.189
0.75200	62.437
0.75100	62.534
0.75000	62.328
0.74900	61.674
0.74800	61.674
0.74700	62.061
0.74600	61.953
0.74500	62.061
0.74400	61.904
0.74300	61.256
0.74200	61.753
0.74100	62.352
0.74000	62.159
0.73900	61.696
0.73800	61.793
0.73700	61.577
0.73600	61.603
0.73500	61.286
0.73400	61.404
0.73300	61.539
0.73200	62.034
0.73100	61.998
0.73000	61.259
0.72900	61.485
0.72800	61.452
0.72700	61.301
0.72600	61.268
0.72500	60.975
0.72400	60.567
0.72300	60.761
0.72200	60.792
0.72100	61.009
0.72000	60.990
0.71900	61.212
0.71800	61.168
0.71700	61.211
0.71600	61.287
0.71500	60.768
0.71400	60.768
0.71300	60.487
0.71200	60.732
0.71100	60.352
0.71000	60.370
0.70900	59.720
0.70800	59.727
0.70700	59.411
0.70600	59.321
0.70500	59.373
0.70400	59.433
0.70300	59.371
0.70200	59.371
0.70100	58.984
0.70000	59.342
0.69900	59.522
0.69800	58.463
0.69700	58.812
0.69600	58.600
0.69500	58.505
0.69400	58.505
0.69300	58.652
0.69200	58.195
0.69100	58.205
0.69000	57.952
0.68900	58.009
0.68800	57.905
0.68700	57.804
0.68600	57.604
0.68500	57.608
0.68400	57.704
0.68300	57.704
0.68200	57.252
0.68100	57.052
0.68000	57.006
0.67900	56.957
0.67800	56.605
0.67700	56.403
0.67600	56.503
0.67500	56.656
0.67400	56.656
0.67300	56.556
0.67200	56.052
0.67100	56.356
0.67000	56.306
0.66900	56.054
0.66800	55.802
0.66700	55.802
0.66600	55.552
0.66500	55.100
0.66400	54.752
0.66300	54.803
0.66200	55.147
0.66100	54.845
0.66000	54.847
0.65900	55.198
0.65800	55.198
0.65700	54.895
0.65600	54.548
0.65500	54.094
0.65400	53.997
0.65300	54.000
0.65200	54.000
0.65100	53.504
0.65000	53.109
0.64900	52.968
0.64800	53.167
0.64700	53.491
0.64600	54.288
0.64500	53.781
0.64400	53.783
0.64300	53.282
0.64200	52.941
0.64100	52.693
0.64000	53.229
0.63900	53.235
0.63800	52.688
0.63700	52.352
0.63600	52.112
0.63500	52.252
0.63400	52.098
0.63300	51.752
0.63200	51.206
0.63100	51.435
0.63000	51.598
0.62900	51.206
0.62800	50.961
0.62700	50.861
0.62600	50.806
0.62500	51.034
0.62400	50.988
0.62300	50.752
0.62200	50.561
0.62100	50.317
0.62000	50.175
0.61900	50.289
0.61800	50.415
0.61700	50.177
0.61600	49.940
0.61500	49.750
0.61400	49.371
0.61300	49.195
0.61200	49.043
0.61100	48.828
0.61000	48.481
0.60900	48.337
0.60800	47.891
0.60700	47.688
0.60600	47.368
0.60500	47.125
0.60400	46.923
0.60300	46.806
0.60200	46.627
0.60100	46.224
0.60000	46.063
0.59900	46.086
0.59800	45.694
0.59700	45.592
0.59600	45.199
0.59500	44.630
0.59400	44.645
0.59300	44.658
0.59200	44.271
0.59100	43.817
0.59000	43.607
0.58900	43.286
0.58800	43.029
0.58700	42.848
0.58600	42.718
0.58500	42.492
0.58400	41.486
0.58300	41.563
0.58200	41.045
0.58100	40.803
0.58000	40.709
0.57900	40.369
0.57800	40.127
0.57700	39.779
0.57600	39.368
0.57500	38.991
0.57400	38.614
0.57300	38.307
0.57200	37.908
0.57100	38.040
0.57000	37.605
0.56900	37.167
0.56800	37.168
0.56700	36.687
0.56600	36.314
0.56500	35.979
0.56400	35.512
0.56300	35.126
0.56200	34.589
0.56100	34.182
0.56000	34.304
0.55900	33.804
0.55800	32.681
0.55700	32.822
0.55600	32.375
0.55500	32.125
0.55400	31.783
0.55300	31.683
0.55200	31.366
0.55100	31.244
0.55000	30.824
0.54900	31.075
0.54800	30.525
0.54700	30.202
0.54600	30.225
0.54500	30.274
0.54400	29.877
0.54300	30.023
0.54200	29.746
0.54100	29.445
0.54000	29.345
0.53900	29.411
0.53800	29.335
0.53700	29.061
0.53600	28.960
0.53500	28.835
0.53400	28.882
0.53300	28.449
0.53200	28.290
0.53100	28.069
0.53000	27.915
0.52900	27.827
0.52800	27.960
0.52700	27.637
0.52600	27.435
0.52500	27.536
0.52400	27.479
0.52300	27.414
0.52200	27.637
0.52100	27.615
0.52000	27.242
0.51900	27.018
0.51800	27.056
0.51700	26.876
0.51600	26.855
0.51500	26.918
0.51400	26.553
0.51300	26.473
0.51200	26.349
0.51100	26.429
0.51000	26.411
0.50900	26.169
0.50800	26.372
0.50700	26.395
0.50600	26.272
0.50500	26.312
0.50400	26.252
0.50300	26.355
0.50200	26.071
0.50100	26.256
0.50000	25.971
0.49900	25.768
0.49800	25.707
0.49700	25.626
0.49600	25.547
0.49500	25.304
0.49400	25.164
0.49300	25.626
0.49200	25.726
0.49100	25.521
0.49000	25.421
0.48900	25.420
0.48800	25.134
0.48700	24.818
0.48600	24.652
0.48500	24.503
0.48400	24.810
0.48300	24.867
0.48200	24.772
0.48100	24.570
0.48000	24.530
0.47900	24.670
0.47800	24.726
0.47700	24.420
0.47600	24.493
0.47500	24.457
0.47400	24.465
0.47300	24.426
0.47200	24.389
0.47100	24.233
0.47000	24.233
0.46900	24.209
0.46800	23.911
0.46700	23.940
0.46600	23.755
0.46500	23.923
0.46400	24.028
0.46300	23.843
0.46200	24.100
0.46100	23.908
0.46000	23.414
0.45900	23.972
0.45800	24.079
0.45700	24.132
0.45600	24.064
0.45500	23.909
0.45400	23.786
0.45300	24.026
0.45200	23.888
0.45100	23.717
0.45000	23.803
0.44900	23.649
0.44800	23.492
0.44700	23.509
0.44600	23.400
0.44500	23.293
0.44400	23.400
0.44300	22.871
0.44200	23.035
0.44100	23.238
0.44000	22.919
0.43900	22.743
0.43800	23.015
0.43700	22.577
0.43600	22.790
0.43500	22.822
0.43400	22.608
0.43300	22.483
0.43200	22.289
0.43100	22.335
0.43000	22.365
0.42900	22.300
0.42800	22.150
0.42700	21.733
0.42600	21.805
0.42500	21.557
0.42400	21.585
0.42300	21.773
0.42200	21.473
0.42100	21.495
0.42000	21.599
0.41900	21.416
0.41800	21.361
0.41700	21.085
0.41600	21.079
0.41500	21.177
0.41400	21.125
0.41300	20.961
0.41200	20.803
0.41100	20.530
0.41000	20.420
0.40900	20.567
0.40800	20.816
0.40700	20.616
0.40600	20.529
0.40500	20.398
0.40400	20.435
0.40300	20.328
0.40200	20.340
0.40100	20.476
0.40000	20.376
