Name:  White Marble 
Type:  Rocks
Class:  Metamorphic 
Subclass:  Marble 
Particle Size:  0-75 Micrometer
Sample No.:  marble6.doc
Owner:  JHU
Wavelength Range:  All
Origin:  Sample No. 457, The Hunt and Salisbury Collection at the U.S. 
Geological Survey, Denver, Co.
Description: This rock contains coarse-grained carbonate with scattered small 
subrounded quartz grains and minor subhedral tremolite which has altered to talc 
in a few spots.



Measurement:  Directional (10 Degree) Hemispherical Reflectance
First Column:  X
Second Column:  Y  
X Units:  Wavelength (micrometers)
Y Units:  Reflectance (percent)
First X Value:  14.9831
Last X Value:  0.4
Number of X Values:  2868
Additional Information:  None

14.983	34.647
14.940	35.383
14.897	36.203
14.854	36.820
14.812	37.199
14.770	37.355
14.728	37.351
14.686	37.253
14.645	37.084
14.603	36.835
14.562	36.388
14.521	35.685
14.481	34.742
14.441	33.539
14.400	32.047
14.361	30.135
14.321	27.574
14.281	24.284
14.242	20.356
14.203	16.035
14.164	11.699
14.126	7.7261
14.087	4.4690
14.049	2.2225
14.011	1.2108
13.973	1.6501
13.936	3.6569
13.899	7.1381
13.861	11.738
13.824	16.871
13.788	21.935
13.751	26.474
13.715	30.256
13.679	33.290
13.643	35.728
13.607	37.737
13.571	39.416
13.536	40.795
13.500	41.891
13.465	42.696
13.430	43.225
13.396	43.522
13.361	43.613
13.327	43.506
13.293	43.222
13.259	42.794
13.225	42.250
13.191	41.599
13.158	40.862
13.124	40.063
13.091	39.209
13.058	38.327
13.026	37.478
12.993	36.729
12.960	36.134
12.928	35.722
12.896	35.490
12.864	35.401
12.832	35.411
12.800	35.512
12.769	35.709
12.737	36.004
12.706	36.383
12.675	36.807
12.644	37.228
12.614	37.604
12.583	37.930
12.552	38.233
12.522	38.546
12.492	38.882
12.462	39.235
12.432	39.570
12.402	39.844
12.373	40.043
12.343	40.195
12.314	40.348
12.285	40.550
12.256	40.827
12.227	41.182
12.198	41.570
12.169	41.926
12.141	42.207
12.113	42.388
12.084	42.450
12.056	42.378
12.028	42.201
12.000	42.054
11.973	41.853
11.945	41.027
11.918	38.995
11.890	35.609
11.863	31.211
11.836	26.567
11.809	22.792
11.782	21.045
11.755	21.537
11.729	23.181
11.702	24.677
11.676	25.150
11.650	24.166
11.624	21.762
11.598	18.461
11.572	14.999
11.546	11.805
11.520	8.9516
11.495	6.5823
11.469	4.8718
11.444	3.7954
11.419	3.1928
11.394	2.9971
11.369	3.2896
11.344	4.2871
11.319	6.2548
11.294	9.3594
11.270	13.472
11.245	18.060
11.221	22.455
11.197	26.213
11.173	29.153
11.149	31.312
11.125	32.892
11.101	34.149
11.077	35.241
11.054	36.197
11.030	37.001
11.007	37.684
10.983	38.256
10.960	38.692
10.937	38.959
10.914	39.016
10.891	38.844
10.868	38.466
10.846	37.911
10.823	37.225
10.800	36.464
10.778	35.689
10.755	34.953
10.733	34.307
10.711	33.808
10.689	33.494
10.667	33.352
10.645	33.333
10.623	33.381
10.602	33.452
10.580	33.527
10.558	33.628
10.537	33.801
10.516	34.093
10.494	34.511
10.473	35.020
10.452	35.556
10.431	36.045
10.410	36.431
10.389	36.695
10.368	36.826
10.348	36.819
10.327	36.667
10.306	36.368
10.286	35.935
10.266	35.409
10.245	34.870
10.225	34.427
10.205	34.135
10.185	33.977
10.165	33.885
10.145	33.761
10.125	33.528
10.106	33.152
10.086	32.671
10.066	32.169
10.047	31.718
10.027	31.351
10.008	31.066
9.9887	30.833
9.9695	30.603
9.9504	30.345
9.9313	30.054
9.9123	29.753
9.8934	29.481
9.8746	29.280
9.8558	29.170
9.8371	29.153
9.8185	29.210
9.7999	29.319
9.7814	29.473
9.7630	29.702
9.7447	30.057
9.7264	30.574
9.7082	31.251
9.6900	32.046
9.6719	32.870
9.6539	33.623
9.6360	34.225
9.6181	34.669
9.6003	34.993
9.5825	35.260
9.5649	35.523
9.5472	35.807
9.5297	36.108
9.5122	36.398
9.4948	36.642
9.4774	36.806
9.4601	36.858
9.4429	36.783
9.4257	36.583
9.4086	36.281
9.3916	35.932
9.3746	35.640
9.3577	35.545
9.3408	35.692
9.3240	35.907
9.3073	35.893
9.2906	35.356
9.2740	34.170
9.2574	32.506
9.2409	30.849
9.2245	29.860
9.2081	29.987
9.1918	31.195
9.1755	33.066
9.1593	35.007
9.1431	36.521
9.1270	37.386
9.1110	37.667
9.0950	37.619
9.0791	37.490
9.0632	37.399
9.0474	37.364
9.0316	37.347
9.0159	37.312
9.0003	37.250
8.9847	37.152
8.9691	37.010
8.9536	36.824
8.9382	36.607
8.9228	36.377
8.9075	36.141
8.8922	35.899
8.8770	35.648
8.8618	35.387
8.8467	35.108
8.8316	34.792
8.8166	34.415
8.8016	33.957
8.7867	33.399
8.7718	32.729
8.7570	31.956
8.7422	31.103
8.7275	30.196
8.7129	29.245
8.6982	28.248
8.6837	27.194
8.6692	26.069
8.6547	24.876
8.6403	23.667
8.6259	22.522
8.6116	21.526
8.5973	20.756
8.5830	20.251
8.5688	19.982
8.5547	19.869
8.5406	19.820
8.5266	19.765
8.5126	19.670
8.4986	19.538
8.4847	19.404
8.4708	19.311
8.4570	19.286
8.4432	19.339
8.4295	19.475
8.4158	19.693
8.4022	19.991
8.3886	20.363
8.3750	20.787
8.3615	21.231
8.3481	21.655
8.3347	22.029
8.3213	22.344
8.3079	22.603
8.2946	22.817
8.2814	23.005
8.2682	23.177
8.2550	23.335
8.2419	23.471
8.2288	23.570
8.2158	23.619
8.2028	23.607
8.1898	23.521
8.1769	23.373
8.1640	23.181
8.1512	22.966
8.1384	22.736
8.1256	22.489
8.1129	22.221
8.1002	21.935
8.0876	21.643
8.0750	21.387
8.0624	21.211
8.0499	21.142
8.0374	21.177
8.0250	21.289
8.0126	21.428
8.0002	21.534
7.9879	21.560
7.9756	21.484
7.9634	21.305
7.9512	21.033
7.9390	20.694
7.9268	20.335
7.9147	19.993
7.9027	19.709
7.8906	19.512
7.8786	19.398
7.8667	19.328
7.8548	19.247
7.8429	19.116
7.8310	18.916
7.8192	18.650
7.8075	18.363
7.7957	18.108
7.7840	17.908
7.7723	17.751
7.7607	17.611
7.7491	17.459
7.7375	17.258
7.7260	16.981
7.7145	16.632
7.7031	16.232
7.6916	15.792
7.6802	15.319
7.6689	14.830
7.6575	14.343
7.6462	13.867
7.6350	13.416
7.6238	13.006
7.6126	12.650
7.6014	12.349
7.5903	12.099
7.5792	11.891
7.5681	11.719
7.5571	11.573
7.5461	11.444
7.5351	11.317
7.5242	11.182
7.5133	11.033
7.5024	10.868
7.4916	10.682
7.4807	10.481
7.4700	10.266
7.4592	10.037
7.4485	9.7933
7.4378	9.5389
7.4272	9.2832
7.4165	9.0324
7.4059	8.7887
7.3954	8.5467
7.3848	8.2954
7.3743	8.0252
7.3639	7.7309
7.3534	7.4123
7.3430	7.0768
7.3326	6.7315
7.3223	6.3876
7.3119	6.0563
7.3016	5.7468
7.2914	5.4678
7.2811	5.2237
7.2709	5.0136
7.2607	4.8308
7.2506	4.6610
7.2404	4.4997
7.2303	4.3470
7.2203	4.2058
7.2102	4.0844
7.2002	3.9913
7.1902	3.9321
7.1803	3.9030
7.1703	3.8982
7.1604	3.9165
7.1506	3.9565
7.1407	4.0199
7.1309	4.1099
7.1211	4.2229
7.1113	4.3470
7.1016	4.4661
7.0919	4.5677
7.0822	4.6409
7.0725	4.6807
7.0629	4.6935
7.0533	4.6901
7.0437	4.6759
7.0341	4.6544
7.0246	4.6316
7.0151	4.6094
7.0056	4.5817
6.9962	4.5499
6.9867	4.5229
6.9773	4.5035
6.9679	4.4926
6.9586	4.4919
6.9493	4.5023
6.9400	4.5187
6.9307	4.5369
6.9214	4.5618
6.9122	4.5949
6.9030	4.6309
6.8938	4.6681
6.8847	4.7043
6.8755	4.7375
6.8664	4.7657
6.8573	4.7941
6.8483	4.8310
6.8393	4.8775
6.8302	4.9312
6.8213	4.9909
6.8123	5.0518
6.8034	5.1088
6.7944	5.1590
6.7855	5.2073
6.7767	5.2604
6.7678	5.3175
6.7590	5.3767
6.7502	5.4411
6.7414	5.5102
6.7327	5.5841
6.7239	5.6668
6.7152	5.7648
6.7065	5.8832
6.6979	6.0154
6.6892	6.1499
6.6806	6.2851
6.6720	6.4165
6.6634	6.5406
6.6549	6.6657
6.6464	6.8044
6.6378	6.9683
6.6294	7.1570
6.6209	7.3612
6.6124	7.5798
6.6040	7.8078
6.5956	8.0347
6.5872	8.2587
6.5789	8.4813
6.5705	8.7046
6.5622	8.9265
6.5539	9.1432
6.5456	9.3578
6.5374	9.5681
6.5292	9.7713
6.5209	9.9666
6.5128	10.161
6.5046	10.365
6.4964	10.593
6.4883	10.860
6.4802	11.169
6.4721	11.505
6.4640	11.826
6.4560	12.076
6.4480	12.194
6.4399	12.142
6.4320	11.909
6.4240	11.524
6.4160	11.042
6.4081	10.520
6.4002	10.003
6.3923	9.5108
6.3844	9.0440
6.3766	8.5855
6.3687	8.1112
6.3609	7.6105
6.3531	7.0825
6.3454	6.5361
6.3376	5.9924
6.3299	5.4828
6.3221	5.0333
6.3144	4.6608
6.3068	4.3794
6.2991	4.1980
6.2914	4.1038
6.2838	4.0680
6.2762	4.0623
6.2686	4.0578
6.2611	4.0273
6.2535	3.9612
6.2460	3.8698
6.2385	3.7772
6.2310	3.6984
6.2235	3.6328
6.2160	3.5792
6.2086	3.5340
6.2011	3.4890
6.1937	3.4381
6.1863	3.3827
6.1790	3.3374
6.1716	3.3121
6.1643	3.3067
6.1570	3.3261
6.1496	3.3744
6.1424	3.4409
6.1351	3.5075
6.1278	3.5698
6.1206	3.6337
6.1134	3.7021
6.1062	3.7779
6.0990	3.8710
6.0918	3.9802
6.0847	4.0964
6.0776	4.2179
6.0704	4.3508
6.0633	4.4995
6.0563	4.6667
6.0492	4.8559
6.0421	5.0719
6.0351	5.3066
6.0281	5.5540
6.0211	5.8122
6.0141	6.0667
6.0071	6.3069
6.0002	6.5319
5.9932	6.7412
5.9863	6.9418
5.9794	7.1372
5.9725	7.3342
5.9657	7.5355
5.9588	7.7382
5.9520	7.9459
5.9451	8.1619
5.9383	8.3859
5.9315	8.6175
5.9247	8.8481
5.9180	9.0727
5.9112	9.2896
5.9045	9.4963
5.8978	9.6910
5.8911	9.8743
5.8844	10.047
5.8777	10.208
5.8711	10.347
5.8644	10.459
5.8578	10.544
5.8512	10.591
5.8446	10.602
5.8380	10.589
5.8314	10.563
5.8249	10.543
5.8184	10.539
5.8118	10.552
5.8053	10.573
5.7988	10.585
5.7923	10.578
5.7859	10.545
5.7794	10.488
5.7730	10.431
5.7666	10.397
5.7602	10.410
5.7538	10.481
5.7474	10.613
5.7410	10.797
5.7347	11.019
5.7283	11.271
5.7220	11.546
5.7157	11.835
5.7094	12.135
5.7031	12.446
5.6969	12.766
5.6906	13.104
5.6844	13.487
5.6782	13.938
5.6719	14.455
5.6657	15.012
5.6596	15.567
5.6534	16.058
5.6472	16.408
5.6411	16.535
5.6349	16.368
5.6288	15.840
5.6227	14.902
5.6166	13.542
5.6106	11.813
5.6045	9.8399
5.5984	7.8031
5.5924	5.8934
5.5864	4.2691
5.5804	3.0201
5.5744	2.1673
5.5684	1.6994
5.5624	1.6314
5.5564	2.0380
5.5505	3.0277
5.5445	4.6802
5.5386	6.9716
5.5327	9.7360
5.5268	12.708
5.5209	15.610
5.5151	18.236
5.5092	20.496
5.5033	22.407
5.4975	24.054
5.4917	25.527
5.4859	26.889
5.4801	28.171
5.4743	29.392
5.4685	30.564
5.4628	31.702
5.4570	32.811
5.4513	33.892
5.4455	34.951
5.4398	35.984
5.4341	36.987
5.4284	37.961
5.4228	38.911
5.4171	39.846
5.4114	40.761
5.4058	41.651
5.4002	42.516
5.3945	43.354
5.3889	44.166
5.3833	44.956
5.3778	45.726
5.3722	46.482
5.3666	47.219
5.3611	47.932
5.3555	48.622
5.3500	49.296
5.3445	49.962
5.3390	50.620
5.3335	51.273
5.3280	51.922
5.3225	52.559
5.3171	53.175
5.3116	53.764
5.3062	54.322
5.3008	54.851
5.2954	55.348
5.2900	55.822
5.2846	56.277
5.2792	56.719
5.2738	57.152
5.2684	57.576
5.2631	57.992
5.2578	58.402
5.2524	58.809
5.2471	59.211
5.2418	59.604
5.2365	59.983
5.2312	60.347
5.2260	60.697
5.2207	61.034
5.2154	61.362
5.2102	61.687
5.2050	62.003
5.1998	62.302
5.1945	62.575
5.1893	62.819
5.1842	63.039
5.1790	63.241
5.1738	63.438
5.1686	63.640
5.1635	63.848
5.1584	64.055
5.1532	64.252
5.1481	64.438
5.1430	64.624
5.1379	64.799
5.1328	64.870
5.1277	64.619
5.1227	63.810
5.1176	62.370
5.1126	60.489
5.1075	58.616
5.1025	57.345
5.0975	57.178
5.0925	58.262
5.0875	60.253
5.0825	62.545
5.0775	64.582
5.0726	66.031
5.0676	66.830
5.0627	67.144
5.0577	67.227
5.0528	67.261
5.0479	67.293
5.0430	67.309
5.0380	67.298
5.0332	67.257
5.0283	67.196
5.0234	67.132
5.0185	67.081
5.0137	67.045
5.0088	67.031
5.0040	67.033
4.9992	67.041
4.9944	67.044
4.9896	67.038
4.9848	67.027
4.9800	67.018
4.9752	67.015
4.9704	67.021
4.9657	67.034
4.9609	67.046
4.9562	67.058
4.9514	67.063
4.9467	67.062
4.9420	67.061
4.9373	67.067
4.9326	67.085
4.9279	67.117
4.9232	67.167
4.9186	67.239
4.9139	67.325
4.9092	67.420
4.9046	67.518
4.9000	67.615
4.8953	67.704
4.8907	67.782
4.8861	67.850
4.8815	67.914
4.8769	67.978
4.8723	68.039
4.8678	68.092
4.8632	68.134
4.8586	68.168
4.8541	68.195
4.8495	68.220
4.8450	68.250
4.8405	68.293
4.8360	68.343
4.8315	68.385
4.8270	68.413
4.8225	68.427
4.8180	68.429
4.8135	68.412
4.8090	68.383
4.8046	68.352
4.8001	68.317
4.7957	68.280
4.7913	68.237
4.7868	68.180
4.7824	68.090
4.7780	67.937
4.7736	67.709
4.7692	67.400
4.7648	67.008
4.7605	66.540
4.7561	66.002
4.7517	65.392
4.7474	64.699
4.7431	63.900
4.7387	62.978
4.7344	61.913
4.7301	60.677
4.7258	59.249
4.7215	57.629
4.7172	55.844
4.7129	53.951
4.7086	52.025
4.7043	50.159
4.7000	48.440
4.6958	46.932
4.6915	45.664
4.6873	44.651
4.6831	43.887
4.6788	43.350
4.6746	43.020
4.6704	42.886
4.6662	42.958
4.6620	43.254
4.6578	43.802
4.6536	44.632
4.6495	45.737
4.6453	47.067
4.6411	48.537
4.6370	50.048
4.6328	51.509
4.6287	52.853
4.6246	54.051
4.6205	55.102
4.6163	56.011
4.6122	56.783
4.6081	57.423
4.6040	57.939
4.6000	58.354
4.5959	58.695
4.5918	58.981
4.5877	59.223
4.5837	59.419
4.5796	59.570
4.5756	59.676
4.5716	59.742
4.5675	59.784
4.5635	59.819
4.5595	59.855
4.5555	59.889
4.5515	59.917
4.5475	59.943
4.5435	59.965
4.5395	59.987
4.5356	60.011
4.5316	60.041
4.5276	60.075
4.5237	60.112
4.5197	60.155
4.5158	60.213
4.5119	60.297
4.5080	60.421
4.5040	60.593
4.5001	60.822
4.4962	61.110
4.4923	61.458
4.4884	61.857
4.4846	62.296
4.4807	62.762
4.4768	63.242
4.4730	63.721
4.4691	64.188
4.4652	64.640
4.4614	65.079
4.4576	65.499
4.4537	65.903
4.4499	66.305
4.4461	66.716
4.4423	67.136
4.4385	67.563
4.4347	67.990
4.4309	68.399
4.4271	68.770
4.4233	69.090
4.4196	69.365
4.4158	69.595
4.4120	69.783
4.4083	69.938
4.4045	70.069
4.4008	70.180
4.3971	70.275
4.3934	70.358
4.3896	70.431
4.3859	70.488
4.3822	70.520
4.3785	70.518
4.3748	70.468
4.3711	70.350
4.3674	70.154
4.3638	69.880
4.3601	69.543
4.3564	69.172
4.3528	68.805
4.3491	68.480
4.3455	68.219
4.3418	68.033
4.3382	67.917
4.3346	67.855
4.3310	67.830
4.3273	67.821
4.3237	67.814
4.3201	67.808
4.3165	67.819
4.3129	67.866
4.3094	67.959
4.3058	68.094
4.3022	68.255
4.2986	68.411
4.2951	68.537
4.2915	68.626
4.2880	68.682
4.2844	68.712
4.2809	68.716
4.2774	68.689
4.2738	68.623
4.2703	68.514
4.2668	68.377
4.2633	68.233
4.2598	68.094
4.2563	67.975
4.2528	67.874
4.2493	67.778
4.2458	67.675
4.2424	67.555
4.2389	67.416
4.2354	67.262
4.2320	67.097
4.2285	66.932
4.2251	66.772
4.2216	66.617
4.2182	66.469
4.2148	66.326
4.2113	66.177
4.2079	66.017
4.2045	65.841
4.2011	65.647
4.1977	65.433
4.1943	65.196
4.1909	64.948
4.1875	64.691
4.1841	64.428
4.1808	64.163
4.1774	63.895
4.1740	63.623
4.1707	63.338
4.1673	63.035
4.1640	62.715
4.1606	62.376
4.1573	62.012
4.1540	61.624
4.1506	61.209
4.1473	60.765
4.1440	60.289
4.1407	59.779
4.1374	59.243
4.1341	58.682
4.1308	58.102
4.1275	57.508
4.1242	56.907
4.1209	56.305
4.1177	55.699
4.1144	55.088
4.1111	54.474
4.1079	53.854
4.1046	53.227
4.1014	52.589
4.0981	51.937
4.0949	51.264
4.0917	50.560
4.0884	49.816
4.0852	49.022
4.0820	48.169
4.0788	47.258
4.0756	46.294
4.0724	45.288
4.0692	44.253
4.0660	43.201
4.0628	42.125
4.0596	40.990
4.0565	39.751
4.0533	38.352
4.0501	36.746
4.0470	34.920
4.0438	32.899
4.0406	30.749
4.0375	28.549
4.0344	26.379
4.0312	24.304
4.0281	22.362
4.0250	20.565
4.0218	18.914
4.0187	17.396
4.0156	15.991
4.0125	14.670
4.0094	13.408
4.0063	12.191
4.0032	11.015
4.0001	9.8972
3.9970	8.8661
3.9940	7.9530
3.9909	7.1838
3.9878	6.5764
3.9847	6.1380
3.9817	5.8633
3.9786	5.7305
3.9756	5.7049
3.9725	5.7558
3.9695	5.8647
3.9665	6.0329
3.9634	6.2841
3.9604	6.6510
3.9574	7.1623
3.9544	7.8343
3.9513	8.6788
3.9483	9.6862
3.9453	10.811
3.9423	11.977
3.9393	13.088
3.9363	14.054
3.9333	14.811
3.9304	15.356
3.9274	15.753
3.9244	16.076
3.9214	16.376
3.9185	16.676
3.9155	16.965
3.9126	17.221
3.9096	17.432
3.9067	17.604
3.9037	17.756
3.9008	17.898
3.8979	18.037
3.8949	18.175
3.8920	18.305
3.8891	18.419
3.8862	18.522
3.8833	18.618
3.8804	18.707
3.8775	18.785
3.8746	18.861
3.8717	18.945
3.8688	19.035
3.8659	19.129
3.8630	19.234
3.8601	19.354
3.8573	19.491
3.8544	19.647
3.8515	19.832
3.8487	20.062
3.8458	20.358
3.8430	20.744
3.8401	21.252
3.8373	21.907
3.8344	22.722
3.8316	23.690
3.8288	24.786
3.8259	25.980
3.8231	27.240
3.8203	28.548
3.8175	29.902
3.8147	31.320
3.8119	32.834
3.8091	34.485
3.8063	36.314
3.8035	38.352
3.8007	40.604
3.7979	43.037
3.7951	45.571
3.7924	48.087
3.7896	50.454
3.7868	52.563
3.7841	54.353
3.7813	55.824
3.7785	57.022
3.7758	58.013
3.7730	58.855
3.7703	59.583
3.7676	60.214
3.7648	60.751
3.7621	61.198
3.7594	61.572
3.7566	61.897
3.7539	62.194
3.7512	62.486
3.7485	62.787
3.7458	63.109
3.7431	63.456
3.7404	63.828
3.7377	64.218
3.7350	64.613
3.7323	64.996
3.7296	65.356
3.7269	65.678
3.7242	65.957
3.7216	66.193
3.7189	66.393
3.7162	66.567
3.7136	66.719
3.7109	66.848
3.7083	66.961
3.7056	67.061
3.7030	67.151
3.7003	67.235
3.6977	67.317
3.6950	67.404
3.6924	67.484
3.6898	67.543
3.6872	67.582
3.6845	67.602
3.6819	67.603
3.6793	67.586
3.6767	67.561
3.6741	67.534
3.6715	67.497
3.6689	67.445
3.6663	67.378
3.6637	67.295
3.6611	67.191
3.6585	67.076
3.6560	66.961
3.6534	66.854
3.6508	66.753
3.6482	66.648
3.6457	66.531
3.6431	66.388
3.6406	66.220
3.6380	66.033
3.6355	65.836
3.6329	65.639
3.6304	65.446
3.6278	65.249
3.6253	65.039
3.6227	64.811
3.6202	64.566
3.6177	64.306
3.6152	64.031
3.6127	63.737
3.6101	63.422
3.6076	63.075
3.6051	62.681
3.6026	62.231
3.6001	61.723
3.5976	61.157
3.5951	60.530
3.5926	59.833
3.5901	59.059
3.5876	58.185
3.5852	57.195
3.5827	56.092
3.5802	54.925
3.5777	53.778
3.5753	52.747
3.5728	51.916
3.5704	51.331
3.5679	50.963
3.5654	50.724
3.5630	50.498
3.5605	50.187
3.5581	49.723
3.5557	49.072
3.5532	48.246
3.5508	47.283
3.5484	46.210
3.5459	45.039
3.5435	43.771
3.5411	42.399
3.5387	40.909
3.5363	39.282
3.5338	37.513
3.5314	35.609
3.5290	33.588
3.5266	31.490
3.5242	29.377
3.5218	27.325
3.5195	25.416
3.5171	23.719
3.5147	22.277
3.5123	21.096
3.5099	20.141
3.5075	19.356
3.5052	18.680
3.5028	18.054
3.5004	17.443
3.4981	16.837
3.4957	16.240
3.4934	15.660
3.4910	15.095
3.4887	14.545
3.4863	14.021
3.4840	13.538
3.4816	13.135
3.4793	12.873
3.4770	12.821
3.4746	13.057
3.4723	13.623
3.4700	14.512
3.4677	15.659
3.4653	16.944
3.4630	18.240
3.4607	19.417
3.4584	20.393
3.4561	21.158
3.4538	21.735
3.4515	22.154
3.4492	22.450
3.4469	22.660
3.4446	22.808
3.4423	22.913
3.4400	22.990
3.4378	23.059
3.4355	23.132
3.4332	23.202
3.4309	23.263
3.4287	23.311
3.4264	23.343
3.4241	23.364
3.4219	23.367
3.4196	23.349
3.4174	23.319
3.4151	23.272
3.4129	23.205
3.4106	23.114
3.4084	23.006
3.4061	22.891
3.4039	22.769
3.4017	22.651
3.3994	22.551
3.3972	22.463
3.3950	22.372
3.3928	22.267
3.3906	22.148
3.3883	22.009
3.3861	21.851
3.3839	21.689
3.3817	21.530
3.3795	21.384
3.3773	21.257
3.3751	21.158
3.3729	21.079
3.3707	20.990
3.3685	20.859
3.3663	20.650
3.3641	20.329
3.3620	19.883
3.3598	19.333
3.3576	18.724
3.3554	18.120
3.3533	17.627
3.3511	17.394
3.3489	17.586
3.3468	18.361
3.3446	19.829
3.3425	22.014
3.3403	24.817
3.3382	28.022
3.3360	31.357
3.3339	34.565
3.3317	37.452
3.3296	39.926
3.3274	41.987
3.3253	43.695
3.3232	45.139
3.3210	46.383
3.3189	47.463
3.3168	48.416
3.3147	49.270
3.3126	50.045
3.3104	50.756
3.3083	51.420
3.3062	52.058
3.3041	52.673
3.3020	53.266
3.2999	53.847
3.2978	54.410
3.2957	54.941
3.2936	55.428
3.2915	55.866
3.2894	56.267
3.2874	56.645
3.2853	57.017
3.2832	57.397
3.2811	57.779
3.2790	58.156
3.2770	58.519
3.2749	58.857
3.2728	59.173
3.2708	59.468
3.2687	59.754
3.2666	60.033
3.2646	60.302
3.2625	60.555
3.2605	60.791
3.2584	61.002
3.2564	61.193
3.2543	61.378
3.2523	61.565
3.2503	61.745
3.2482	61.917
3.2462	62.079
3.2442	62.233
3.2421	62.385
3.2401	62.550
3.2381	62.737
3.2361	62.937
3.2340	63.128
3.2320	63.299
3.2300	63.434
3.2280	63.535
3.2260	63.617
3.2240	63.694
3.2220	63.781
3.2200	63.890
3.2180	64.025
3.2160	64.166
3.2140	64.294
3.2120	64.401
3.2100	64.486
3.2080	64.548
3.2060	64.601
3.2040	64.659
3.2021	64.726
3.2001	64.793
3.1981	64.857
3.1961	64.918
3.1942	64.970
3.1922	65.007
3.1902	65.022
3.1883	65.014
3.1863	64.982
3.1844	64.924
3.1824	64.848
3.1805	64.766
3.1785	64.666
3.1766	64.535
3.1746	64.367
3.1727	64.153
3.1707	63.890
3.1688	63.574
3.1669	63.220
3.1649	62.844
3.1630	62.449
3.1611	62.051
3.1591	61.674
3.1572	61.331
3.1553	61.038
3.1534	60.806
3.1515	60.653
3.1495	60.584
3.1476	60.590
3.1457	60.661
3.1438	60.785
3.1419	60.937
3.1400	61.103
3.1381	61.269
3.1362	61.424
3.1343	61.555
3.1324	61.651
3.1305	61.723
3.1286	61.775
3.1268	61.790
3.1249	61.751
3.1230	61.639
3.1211	61.435
3.1192	61.134
3.1174	60.769
3.1155	60.403
3.1136	60.089
3.1117	59.858
3.1099	59.726
3.1080	59.691
3.1061	59.733
3.1043	59.835
3.1024	59.989
3.1006	60.185
3.0987	60.415
3.0969	60.670
3.0950	60.934
3.0932	61.195
3.0913	61.454
3.0895	61.721
3.0876	61.999
3.0858	62.286
3.0840	62.585
3.0821	62.885
3.0803	63.157
3.0785	63.379
3.0766	63.540
3.0748	63.647
3.0730	63.708
3.0712	63.745
3.0694	63.787
3.0675	63.844
3.0657	63.914
3.0639	63.996
3.0621	64.089
3.0603	64.190
3.0585	64.301
3.0567	64.423
3.0549	64.547
3.0531	64.660
3.0513	64.754
3.0495	64.826
3.0477	64.886
3.0459	64.947
3.0441	65.016
3.0423	65.099
3.0406	65.191
3.0388	65.282
3.0370	65.359
3.0352	65.409
3.0334	65.439
3.0317	65.456
3.0299	65.460
3.0281	65.475
3.0264	65.517
3.0246	65.577
3.0228	65.645
3.0211	65.712
3.0193	65.769
3.0176	65.805
3.0158	65.807
3.0140	65.802
3.0123	65.815
3.0105	65.845
3.0088	65.894
3.0070	65.953
3.0053	66.013
3.0036	66.048
3.0018	66.040
3.0001	66.007
2.9984	65.970
2.9966	65.945
2.9949	65.942
2.9932	65.969
2.9914	66.025
2.9897	66.087
2.9880	66.134
2.9863	66.157
2.9845	66.154
2.9828	66.130
2.9811	66.095
2.9794	66.055
2.9777	66.019
2.9760	65.980
2.9743	65.940
2.9726	65.912
2.9709	65.902
2.9692	65.908
2.9675	65.921
2.9658	65.931
2.9641	65.924
2.9624	65.893
2.9607	65.850
2.9590	65.826
2.9573	65.827
2.9556	65.842
2.9539	65.866
2.9523	65.891
2.9506	65.910
2.9489	65.914
2.9472	65.908
2.9455	65.908
2.9439	65.912
2.9422	65.908
2.9405	65.908
2.9389	65.925
2.9372	65.966
2.9355	66.013
2.9339	66.052
2.9322	66.084
2.9306	66.094
2.9289	66.073
2.9272	66.040
2.9256	66.016
2.9239	66.009
2.9223	66.010
2.9207	66.015
2.9190	66.025
2.9174	66.041
2.9157	66.066
2.9141	66.109
2.9124	66.173
2.9108	66.251
2.9092	66.325
2.9075	66.384
2.9059	66.431
2.9043	66.474
2.9027	66.522
2.9010	66.583
2.8994	66.655
2.8978	66.731
2.8962	66.802
2.8946	66.870
2.8929	66.942
2.8913	67.016
2.8897	67.083
2.8881	67.130
2.8865	67.160
2.8849	67.183
2.8833	67.216
2.8817	67.274
2.8801	67.366
2.8785	67.480
2.8769	67.595
2.8753	67.685
2.8737	67.757
2.8721	67.818
2.8705	67.873
2.8689	67.925
2.8673	67.972
2.8658	68.019
2.8642	68.069
2.8626	68.121
2.8610	68.176
2.8594	68.235
2.8579	68.300
2.8563	68.361
2.8547	68.399
2.8531	68.421
2.8516	68.446
2.8500	68.475
2.8484	68.502
2.8469	68.529
2.8453	68.568
2.8437	68.616
2.8422	68.652
2.8406	68.678
2.8391	68.701
2.8375	68.717
2.8360	68.708
2.8344	68.665
2.8329	68.584
2.8313	68.474
2.8298	68.353
2.8282	68.236
2.8267	68.136
2.8252	68.068
2.8236	68.027
2.8221	67.984
2.8205	67.919
2.8190	67.834
2.8175	67.735
2.8159	67.613
2.8144	67.453
2.8129	67.269
2.8114	67.062
2.8098	66.823
2.8083	66.559
2.8068	66.283
2.8053	66.001
2.8038	65.706
2.8022	65.385
2.8007	65.036
2.7992	64.655
2.7977	64.231
2.7962	63.763
2.7947	63.255
2.7932	62.732
2.7917	62.230
2.7902	61.796
2.7887	61.490
2.7872	61.367
2.7857	61.454
2.7842	61.752
2.7827	62.237
2.7812	62.865
2.7797	63.577
2.7782	64.311
2.7767	65.026
2.7752	65.695
2.7738	66.323
2.7723	66.933
2.7708	67.551
2.7693	68.196
2.7678	68.860
2.7664	69.530
2.7649	70.180
2.7634	70.771
2.7619	71.289
2.7605	71.731
2.7590	72.097
2.7575	72.393
2.7561	72.632
2.7546	72.854
2.7531	73.075
2.7517	73.293
2.7502	73.520
2.7488	73.756
2.7473	73.979
2.7458	74.175
2.7444	74.352
2.7429	74.522
2.7415	74.687
2.7400	74.858
2.7386	75.042
2.7371	75.240
2.7357	75.448
2.7343	75.676
2.7328	75.919
2.7314	76.141
2.7299	76.284
2.7285	76.271
2.7271	76.071
2.7256	75.749
2.7242	75.441
2.7228	75.319
2.7213	75.513
2.7199	76.062
2.7185	76.873
2.7171	77.749
2.7156	78.539
2.7142	79.182
2.7128	79.680
2.7114	80.106
2.7100	80.544
2.7085	81.035
2.7071	81.564
2.7057	82.086
2.7043	82.576
2.7029	83.012
2.7015	83.382
2.7001	83.705
2.6987	83.996
2.6973	84.271
2.6959	84.550
2.6945	84.852
2.6931	85.177
2.6917	85.504
2.6903	85.807
2.6889	86.073
2.6875	86.296
2.6861	86.492
2.6847	86.667
2.6833	86.825
2.6819	86.970
2.6805	87.118
2.6791	87.263
2.6778	87.392
2.6764	87.510
2.6750	87.616
2.6736	87.689
2.6722	87.709
2.6709	87.700
2.6695	87.717
2.6681	87.772
2.6667	87.864
2.6654	88.007
2.6640	88.188
2.6626	88.362
2.6613	88.500
2.6599	88.601
2.6585	88.679
2.6572	88.737
2.6558	88.779
2.6545	88.827
2.6531	88.884
2.6517	88.951
2.6504	89.026
2.6490	89.095
2.6477	89.146
2.6463	89.178
2.6450	89.187
2.6436	89.179
2.6423	89.158
2.6409	89.141
2.6396	89.136
2.6382	89.131
2.6369	89.114
2.6356	89.088
2.6342	89.044
2.6329	88.980
2.6315	88.898
2.6302	88.833
2.6289	88.816
2.6275	88.831
2.6262	88.862
2.6249	88.896
2.6236	88.894
2.6222	88.831
2.6209	88.720
2.6196	88.610
2.6183	88.539
2.6169	88.509
2.6156	88.528
2.6143	88.583
2.6130	88.608
2.6117	88.567
2.6103	88.459
2.6090	88.298
2.6077	88.121
2.6064	87.975
2.6051	87.901
2.6038	87.905
2.6025	87.917
2.6012	87.879
2.5999	87.750
2.5986	87.514
2.5973	87.208
2.5960	86.890
2.5947	86.624
2.5934	86.445
2.5921	86.314
2.5908	86.180
2.5895	86.011
2.5882	85.788
2.5869	85.534
2.5856	85.273
2.5843	85.039
2.5830	84.854
2.5817	84.697
2.5805	84.530
2.5792	84.330
2.5779	84.094
2.5766	83.837
2.5753	83.561
2.5741	83.282
2.5728	83.020
2.5715	82.759
2.5702	82.472
2.5690	82.144
2.5677	81.775
2.5664	81.362
2.5651	80.885
2.5639	80.355
2.5626	79.784
2.5613	79.170
2.5601	78.518
2.5588	77.830
2.5575	77.103
2.5563	76.329
2.5550	75.498
2.5538	74.626
2.5525	73.736
2.5513	72.838
2.5500	71.944
2.5487	71.061
2.5475	70.197
2.5462	69.365
2.5450	68.579
2.5437	67.864
2.5425	67.239
2.5413	66.694
2.5400	66.228
2.5388	65.848
2.5375	65.562
2.5363	65.377
2.5350	65.306
2.5338	65.360
2.5326	65.532
2.5313	65.793
2.5301	66.122
2.5289	66.509
2.5276	66.938
2.5264	67.393
2.5252	67.869
2.5239	68.358
2.5227	68.840
2.5215	69.289
2.5202	69.705
2.5190	70.086
2.5178	70.429
2.5166	70.732
2.5154	70.994
2.5141	71.220
2.5129	71.405
2.5117	71.563
2.5105	71.723
2.5093	71.877
2.5081	72.025
2.5068	72.165
2.5056	72.297
2.5044	72.412
2.5032	72.508
2.5020	72.605
2.5008	72.708
2.4996	72.803
2.4984	72.885
2.4972	72.967
2.4960	73.057
2.4948	73.152
2.4936	73.264
2.4924	73.399
2.4912	73.551
2.4900	73.711
2.4888	73.874
2.4876	74.039
2.4864	74.198
2.4852	74.355
2.4840	74.511
2.4828	74.670
2.4816	74.853
2.4805	75.082
2.4793	75.365
2.4781	75.691
2.4769	76.038
2.4757	76.391
2.4745	76.730
2.4734	77.055
2.4722	77.391
2.4710	77.757
2.4698	78.151
2.4686	78.562
2.4675	78.968
2.4663	79.355
2.4651	79.715
2.4640	80.057
2.4628	80.389
2.4616	80.707
2.4604	81.018
2.4593	81.323
2.4581	81.620
2.4569	81.913
2.4558	82.201
2.4546	82.483
2.4535	82.744
2.4523	82.969
2.4511	83.165
2.4500	83.349
2.4488	83.540
2.4477	83.748
2.4465	83.969
2.4454	84.198
2.4442	84.422
2.4431	84.623
2.4419	84.801
2.4408	84.965
2.4396	85.128
2.4385	85.291
2.4373	85.457
2.4362	85.635
2.4350	85.817
2.4339	86.003
2.4327	86.193
2.4316	86.371
2.4305	86.536
2.4293	86.692
2.4282	86.845
2.4270	86.995
2.4259	87.138
2.4248	87.282
2.4236	87.434
2.4225	87.583
2.4214	87.728
2.4202	87.863
2.4191	87.990
2.4180	88.096
2.4169	88.177
2.4157	88.242
2.4146	88.308
2.4135	88.387
2.4124	88.474
2.4112	88.558
2.4101	88.638
2.4090	88.695
2.4079	88.716
2.4068	88.702
2.4056	88.671
2.4045	88.643
2.4034	88.616
2.4023	88.592
2.4012	88.582
2.4001	88.582
2.3990	88.588
2.3979	88.602
2.3967	88.629
2.3956	88.676
2.3945	88.727
2.3934	88.762
2.3923	88.781
2.3912	88.783
2.3901	88.774
2.3890	88.755
2.3879	88.723
2.3868	88.682
2.3857	88.624
2.3846	88.529
2.3835	88.400
2.3824	88.248
2.3813	88.082
2.3802	87.905
2.3791	87.725
2.3781	87.537
2.3770	87.343
2.3759	87.141
2.3748	86.936
2.3737	86.722
2.3726	86.488
2.3715	86.239
2.3704	85.966
2.3694	85.653
2.3683	85.317
2.3672	84.979
2.3661	84.638
2.3650	84.278
2.3640	83.892
2.3629	83.474
2.3618	83.002
2.3607	82.474
2.3597	81.925
2.3586	81.371
2.3575	80.808
2.3564	80.240
2.3554	79.682
2.3543	79.147
2.3532	78.634
2.3522	78.159
2.3511	77.735
2.3500	77.348
2.3490	76.980
2.3479	76.633
2.3468	76.321
2.3458	76.050
2.3447	75.827
2.3436	75.646
2.3426	75.501
2.3415	75.382
2.3405	75.281
2.3394	75.209
2.3384	75.178
2.3373	75.199
2.3363	75.277
2.3352	75.396
2.3342	75.539
2.3331	75.703
2.3321	75.882
2.3310	76.074
2.3300	76.283
2.3289	76.510
2.3279	76.750
2.3268	76.986
2.3258	77.218
2.3247	77.453
2.3237	77.687
2.3226	77.917
2.3216	78.146
2.3206	78.366
2.3195	78.560
2.3185	78.737
2.3175	78.904
2.3164	79.057
2.3154	79.185
2.3144	79.289
2.3133	79.379
2.3123	79.452
2.3113	79.501
2.3102	79.553
2.3092	79.622
2.3082	79.705
2.3071	79.810
2.3061	79.937
2.3051	80.075
2.3041	80.212
2.3030	80.321
2.3020	80.396
2.3010	80.434
2.3000	80.449
2.2990	80.469
2.2979	80.511
2.2969	80.588
2.2959	80.716
2.2949	80.883
2.2939	81.058
2.2929	81.218
2.2918	81.369
2.2908	81.513
2.2898	81.647
2.2888	81.790
2.2878	81.964
2.2868	82.160
2.2858	82.356
2.2848	82.552
2.2838	82.755
2.2828	82.955
2.2818	83.145
2.2808	83.344
2.2798	83.555
2.2787	83.749
2.2777	83.924
2.2767	84.103
2.2757	84.289
2.2747	84.476
2.2738	84.668
2.2728	84.871
2.2718	85.061
2.2708	85.211
2.2698	85.342
2.2688	85.488
2.2678	85.650
2.2668	85.828
2.2658	86.027
2.2648	86.226
2.2638	86.403
2.2628	86.555
2.2618	86.697
2.2609	86.829
2.2599	86.955
2.2589	87.083
2.2579	87.210
2.2569	87.326
2.2559	87.437
2.2550	87.553
2.2540	87.666
2.2530	87.756
2.2520	87.840
2.2510	87.936
2.2501	88.048
2.2491	88.187
2.2481	88.352
2.2471	88.530
2.2462	88.701
2.2452	88.832
2.2442	88.935
2.2433	89.026
2.2423	89.132
2.2413	89.269
2.2403	89.417
2.2394	89.570
2.2384	89.706
2.2374	89.787
2.2365	89.817
2.2355	89.818
2.2345	89.826
2.2336	89.857
2.2326	89.914
2.2317	90.012
2.2307	90.134
2.2297	90.247
2.2288	90.352
2.2278	90.449
2.2269	90.536
2.2259	90.598
2.2250	90.637
2.2240	90.676
2.2231	90.731
2.2221	90.799
2.2211	90.894
2.2202	91.009
2.2192	91.129
2.2183	91.213
2.2173	91.249
2.2164	91.255
2.2155	91.261
2.2145	91.271
2.2136	91.298
2.2126	91.357
2.2117	91.458
2.2107	91.578
2.2098	91.685
2.2088	91.770
2.2079	91.831
2.2070	91.851
2.2060	91.828
2.2051	91.787
2.2041	91.755
2.2032	91.742
2.2023	91.751
2.2013	91.784
2.2004	91.843
2.1995	91.915
2.1985	91.986
2.1976	92.052
2.1967	92.096
2.1957	92.118
2.1948	92.125
2.1939	92.115
2.1930	92.084
2.1920	92.035
2.1911	91.984
2.1902	91.952
2.1893	91.939
2.1883	91.956
2.1874	92.003
2.1865	92.062
2.1856	92.089
2.1846	92.075
2.1837	92.044
2.1828	92.009
2.1819	91.972
2.1810	91.939
2.1800	91.916
2.1791	91.889
2.1782	91.841
2.1773	91.781
2.1764	91.738
2.1755	91.715
2.1746	91.713
2.1736	91.715
2.1727	91.701
2.1718	91.652
2.1709	91.562
2.1700	91.440
2.1691	91.314
2.1682	91.211
2.1673	91.152
2.1664	91.112
2.1655	91.078
2.1646	91.048
2.1637	91.018
2.1628	90.999
2.1619	90.999
2.1610	91.020
2.1601	91.067
2.1592	91.106
2.1583	91.123
2.1574	91.118
2.1565	91.092
2.1556	91.076
2.1547	91.073
2.1538	91.077
2.1529	91.084
2.1520	91.073
2.1511	91.048
2.1502	91.022
2.1493	91.012
2.1484	91.063
2.1475	91.172
2.1466	91.311
2.1458	91.444
2.1449	91.561
2.1440	91.666
2.1431	91.741
2.1422	91.797
2.1413	91.865
2.1404	91.933
2.1396	91.992
2.1387	92.046
2.1378	92.112
2.1369	92.184
2.1360	92.246
2.1352	92.315
2.1343	92.390
2.1334	92.438
2.1325	92.465
2.1316	92.482
2.1308	92.485
2.1299	92.476
2.1290	92.490
2.1281	92.542
2.1273	92.618
2.1264	92.707
2.1255	92.802
2.1247	92.874
2.1238	92.889
2.1229	92.852
2.1220	92.800
2.1212	92.758
2.1203	92.757
2.1194	92.821
2.1186	92.911
2.1177	92.978
2.1168	93.004
2.1160	92.989
2.1151	92.949
2.1143	92.921
2.1134	92.948
2.1125	93.023
2.1117	93.086
2.1108	93.128
2.1100	93.164
2.1091	93.175
2.1082	93.146
2.1074	93.111
2.1065	93.095
2.1057	93.088
2.1048	93.078
2.1040	93.108
2.1031	93.172
2.1023	93.218
2.1014	93.231
2.1005	93.232
2.0997	93.239
2.0988	93.245
2.0980	93.251
2.0971	93.296
2.0963	93.350
2.0955	93.380
2.0946	93.395
2.0938	93.424
2.0929	93.480
2.0921	93.541
2.0912	93.579
2.0904	93.599
2.0895	93.596
2.0887	93.584
2.0879	93.573
2.0870	93.592
2.0862	93.653
2.0853	93.711
2.0845	93.748
2.0837	93.732
2.0828	93.677
2.0820	93.653
2.0812	93.521
2.0803	93.545
2.0795	93.665
2.0760	93.665
2.0720	93.760
2.0680	93.774
2.0640	94.059
2.0600	93.978
2.0560	93.869
2.0520	93.505
2.0480	93.455
2.0440	93.469
2.0400	93.578
2.0360	93.058
2.0320	92.665
2.0280	92.710
2.0240	92.508
2.0200	92.197
2.0160	91.932
2.0120	91.607
2.0080	91.174
2.0040	90.928
2.0000	90.480
1.9960	89.976
1.9920	89.866
1.9880	89.531
1.9840	89.531
1.9800	89.566
1.9760	89.343
1.9720	89.545
1.9680	89.747
1.9640	89.598
1.9600	89.729
1.9560	89.804
1.9520	89.729
1.9480	89.747
1.9440	89.747
1.9400	89.729
1.9360	89.751
1.9320	89.674
1.9280	89.591
1.9240	89.817
1.9200	89.817
1.9160	89.742
1.9120	89.835
1.9080	90.022
1.9040	89.859
1.9000	90.097
1.8960	90.086
1.8920	90.443
1.8880	90.049
1.8840	89.755
1.8800	90.369
1.8760	90.292
1.8720	90.086
1.8680	89.588
1.8640	89.087
1.8600	89.341
1.8560	89.280
1.8520	90.131
1.8480	90.122
1.8440	90.442
1.8400	90.824
1.8360	91.051
1.8320	91.209
1.8280	90.856
1.8240	91.077
1.8200	91.010
1.8160	90.846
1.8120	90.716
1.8080	90.642
1.8040	91.221
1.8000	90.952
1.7960	90.943
1.7920	91.090
1.7880	90.895
1.7840	90.805
1.7800	91.042
1.7760	90.357
1.7720	90.122
1.7680	90.129
1.7640	90.040
1.7600	89.871
1.7560	89.888
1.7520	89.849
1.7480	90.061
1.7440	90.635
1.7400	90.870
1.7360	91.444
1.7320	91.035
1.7280	90.913
1.7240	90.913
1.7200	90.945
1.7160	90.936
1.7120	91.549
1.7080	90.782
1.7040	90.821
1.7000	90.733
1.6960	91.310
1.6920	90.733
1.6880	90.969
1.6840	90.459
1.6800	90.943
1.6760	91.195
1.6720	90.936
1.6680	90.969
1.6640	90.774
1.6600	90.668
1.6560	90.522
1.6520	90.337
1.6480	90.377
1.6440	90.945
1.6400	90.473
1.6360	90.473
1.6320	90.782
1.6280	91.083
1.6240	90.579
1.6200	90.522
1.6160	90.499
1.6120	90.693
1.6080	91.489
1.6040	91.500
1.6000	90.945
1.5960	90.277
1.5920	90.496
1.5880	90.423
1.5840	90.586
1.5800	91.331
1.5760	91.471
1.5720	91.772
1.5680	90.492
1.5640	89.451
1.5600	89.094
1.5560	89.307
1.5520	89.680
1.5480	89.968
1.5440	89.985
1.5400	89.537
1.5360	90.184
1.5320	90.492
1.5280	90.564
1.5240	90.346
1.5200	90.057
1.5160	89.468
1.5120	89.683
1.5080	90.335
1.5040	90.504
1.5000	90.425
1.4960	90.026
1.4920	88.889
1.4880	88.872
1.4840	88.997
1.4800	88.891
1.4760	88.927
1.4720	88.945
1.4680	89.985
1.4640	90.276
1.4600	89.805
1.4560	89.912
1.4520	89.695
1.4480	89.212
1.4440	89.320
1.4400	89.329
1.4360	89.474
1.4320	89.709
1.4280	89.834
1.4240	89.707
1.4200	89.724
1.4160	89.635
1.4120	89.546
1.4080	89.504
1.4040	89.323
1.4000	89.240
1.3960	89.495
1.3920	89.112
1.3880	88.498
1.3840	88.065
1.3800	89.295
1.3760	90.212
1.3720	89.610
1.3680	90.183
1.3640	90.062
1.3600	90.307
1.3560	89.886
1.3520	90.058
1.3480	89.571
1.3440	89.784
1.3400	89.251
1.3360	89.304
1.3320	89.642
1.3280	89.786
1.3240	89.778
1.3200	90.019
1.3160	89.867
1.3120	89.438
1.3080	89.260
1.3040	89.028
1.3000	88.939
1.2960	88.761
1.2920	88.884
1.2880	88.847
1.2840	88.754
1.2800	89.256
1.2760	89.691
1.2720	89.418
1.2680	89.637
1.2640	89.882
1.2600	89.882
1.2560	89.462
1.2520	89.280
1.2480	89.663
1.2440	89.228
1.2400	88.965
1.2360	89.037
1.2320	89.109
1.2280	89.398
1.2240	89.018
1.2200	89.037
1.2160	88.999
1.2120	89.146
1.2080	88.949
1.2040	88.949
1.2000	88.949
1.1960	88.887
1.1920	88.673
1.1880	88.530
1.1840	88.549
1.1800	88.658
1.1760	88.626
1.1720	88.574
1.1680	88.574
1.1640	88.316
1.1600	88.338
1.1560	88.421
1.1520	88.262
1.1480	88.337
1.1440	88.589
1.1400	88.842
1.1360	88.636
1.1320	88.152
1.1280	87.952
1.1240	88.164
1.1200	87.900
1.1160	87.608
1.1120	89.127
1.1080	89.511
1.1040	89.132
1.1000	88.546
1.0960	88.528
1.0920	88.373
1.0880	88.223
1.0840	88.925
1.0800	88.141
1.0760	88.172
1.0720	87.718
1.0680	87.690
1.0640	87.319
1.0600	87.778
1.0560	87.043
1.0520	86.637
1.0480	86.461
1.0440	88.088
1.0400	88.712
1.0360	88.615
1.0320	88.161
1.0280	87.788
1.0240	87.929
1.0200	88.019
1.0160	88.453
1.0120	87.598
1.0080	87.788
1.0040	87.838
1.0000	87.848
0.99600	87.749
0.99200	87.907
0.98800	88.058
0.98400	87.449
0.98000	88.413
0.97600	87.749
0.97200	87.718
0.96800	87.639
0.96400	88.011
0.96000	87.639
0.95600	88.071
0.95200	87.859
0.94800	87.499
0.94400	87.859
0.94000	87.270
0.93600	87.220
0.93200	87.649
0.92800	87.411
0.92400	87.561
0.92000	87.411
0.91600	87.422
0.91200	87.442
0.90800	87.491
0.90400	87.264
0.90000	87.313
0.89600	87.243
0.89200	86.975
0.88800	86.955
0.88400	86.914
0.88000	86.725
0.87600	86.843
0.87200	87.059
0.86800	86.649
0.86400	86.767
0.86000	86.799
0.85600	86.390
0.85200	86.278
0.84800	86.310
0.84400	86.214
0.84000	86.214
0.83600	86.563
0.83200	85.914
0.82800	86.209
0.82400	85.910
0.82000	86.508
0.81600	86.255
0.81200	85.911
0.80800	86.048
0.80400	86.541
0.80000	86.603
0.79900	85.290
0.79800	85.290
0.79700	85.407
0.79600	85.855
0.79500	86.049
0.79400	85.871
0.79300	85.504
0.79200	84.998
0.79100	85.307
0.79000	85.657
0.78900	85.776
0.78800	85.329
0.78700	85.212
0.78600	85.077
0.78500	86.068
0.78400	86.066
0.78300	86.163
0.78200	85.387
0.78100	85.191
0.78000	85.871
0.77900	85.911
0.77800	85.949
0.77700	85.987
0.77600	85.562
0.77500	85.210
0.77400	85.597
0.77300	85.694
0.77200	85.516
0.77100	85.326
0.77000	84.809
0.76900	84.653
0.76800	85.613
0.76700	86.082
0.76600	85.887
0.76500	85.304
0.76400	85.956
0.76300	86.003
0.76200	85.268
0.76100	85.706
0.76000	85.575
0.75900	85.632
0.75800	85.439
0.75700	85.342
0.75600	85.265
0.75500	85.674
0.75400	86.234
0.75300	85.226
0.75200	85.594
0.75100	85.594
0.75000	84.859
0.74900	85.168
0.74800	85.362
0.74700	85.750
0.74600	85.497
0.74500	85.750
0.74400	85.472
0.74300	84.610
0.74200	85.201
0.74100	86.354
0.74000	86.258
0.73900	85.187
0.73800	84.993
0.73700	84.683
0.73600	84.833
0.73500	85.071
0.73400	85.576
0.73300	85.785
0.73200	86.037
0.73100	85.275
0.73000	85.046
0.72900	85.609
0.72800	86.234
0.72700	85.279
0.72600	85.514
0.72500	85.807
0.72400	85.590
0.72300	85.590
0.72200	85.547
0.72100	85.377
0.72000	85.382
0.71900	85.753
0.71800	85.833
0.71700	86.342
0.71600	86.415
0.71500	86.037
0.71400	85.842
0.71300	85.904
0.71200	85.881
0.71100	85.259
0.71000	85.181
0.70900	85.239
0.70800	85.593
0.70700	85.219
0.70600	85.571
0.70500	85.748
0.70400	85.691
0.70300	85.550
0.70200	85.159
0.70100	84.967
0.70000	85.457
0.69900	84.686
0.69800	85.647
0.69700	86.068
0.69600	85.743
0.69500	85.805
0.69400	85.805
0.69300	85.924
0.69200	85.682
0.69100	86.406
0.69000	86.524
0.68900	86.770
0.68800	86.205
0.68700	86.005
0.68600	86.105
0.68500	86.469
0.68400	86.005
0.68300	86.005
0.68200	85.824
0.68100	85.624
0.68000	86.168
0.67900	86.450
0.67800	85.767
0.67700	85.404
0.67600	85.605
0.67500	85.747
0.67400	86.249
0.67300	86.551
0.67200	86.324
0.67100	86.815
0.67000	86.633
0.66900	86.614
0.66800	86.431
0.66700	86.230
0.66600	85.948
0.66500	85.566
0.66400	85.124
0.66300	85.144
0.66200	86.173
0.66100	86.173
0.66000	86.111
0.65900	86.624
0.65800	86.826
0.65700	86.357
0.65600	86.049
0.65500	86.432
0.65400	86.168
0.65300	85.805
0.65200	86.005
0.65100	85.643
0.65000	85.383
0.64900	85.342
0.64800	85.640
0.64700	86.431
0.64600	86.798
0.64500	86.787
0.64400	86.867
0.64300	86.761
0.64200	86.350
0.64100	85.566
0.64000	86.137
0.63900	86.277
0.63800	86.030
0.63700	85.924
0.63600	85.682
0.63500	86.024
0.63400	86.005
0.63300	86.024
0.63200	86.043
0.63100	86.651
0.63000	86.206
0.62900	85.643
0.62800	85.663
0.62700	85.862
0.62600	85.543
0.62500	86.049
0.62400	86.269
0.62300	85.924
0.62200	85.762
0.62100	85.880
0.62000	86.332
0.61900	86.909
0.61800	86.818
0.61700	86.771
0.61600	86.523
0.61500	86.257
0.61400	85.427
0.61300	85.004
0.61200	85.752
0.61100	86.017
0.61000	86.137
0.60900	86.156
0.60800	85.973
0.60700	85.972
0.60600	85.731
0.60500	85.751
0.60400	85.550
0.60300	85.714
0.60200	85.554
0.60100	85.658
0.60000	85.436
0.59900	85.376
0.59800	85.416
0.59700	85.522
0.59600	85.048
0.59500	85.337
0.59400	85.376
0.59300	85.940
0.59200	85.569
0.59100	85.899
0.59000	85.482
0.58900	85.648
0.58800	85.672
0.58700	85.402
0.58600	85.983
0.58500	86.296
0.58400	84.903
0.58300	85.996
0.58200	85.993
0.58100	85.910
0.58000	86.267
0.57900	86.332
0.57800	86.248
0.57700	85.913
0.57600	85.707
0.57500	85.791
0.57400	85.932
0.57300	86.046
0.57200	85.815
0.57100	86.550
0.57000	86.219
0.56900	85.732
0.56800	85.733
0.56700	85.857
0.56600	85.839
0.56500	85.960
0.56400	85.897
0.56300	86.125
0.56200	85.839
0.56100	85.738
0.56000	86.071
0.55900	85.997
0.55800	85.997
0.55700	86.529
0.55600	85.978
0.55500	85.625
0.55400	85.879
0.55300	85.878
0.55200	85.916
0.55100	85.755
0.55000	85.693
0.54900	85.966
0.54800	85.294
0.54700	85.216
0.54600	85.708
0.54500	86.066
0.54400	85.650
0.54300	85.925
0.54200	86.306
0.54100	86.104
0.54000	86.004
0.53900	86.261
0.53800	86.242
0.53700	86.101
0.53600	85.899
0.53500	85.718
0.53400	85.979
0.53300	85.087
0.53200	84.542
0.53100	84.168
0.53000	84.222
0.52900	84.210
0.52800	85.077
0.52700	85.401
0.52600	85.199
0.52500	85.200
0.52400	85.458
0.52300	85.121
0.52200	85.401
0.52100	85.423
0.52000	85.292
0.51900	85.414
0.51800	85.580
0.51700	85.458
0.51600	85.278
0.51500	85.616
0.51400	84.876
0.51300	85.055
0.51200	84.387
0.51100	83.910
0.51000	84.218
0.50900	84.564
0.50800	84.954
0.50700	84.921
0.50600	85.246
0.50500	85.110
0.50400	85.268
0.50300	85.563
0.50200	85.045
0.50100	85.769
0.50000	85.441
0.49900	84.250
0.49800	84.405
0.49700	83.978
0.49600	84.272
0.49500	84.707
0.49400	84.350
0.49300	84.483
0.49200	84.875
0.49100	85.882
0.49000	85.179
0.48900	84.873
0.48800	84.646
0.48700	83.977
0.48600	84.030
0.48500	84.260
0.48400	84.263
0.48300	84.294
0.48200	84.512
0.48100	84.310
0.48000	84.604
0.47900	84.762
0.47800	84.999
0.47700	83.526
0.47600	84.345
0.47500	83.986
0.47400	83.943
0.47300	84.091
0.47200	84.241
0.47100	83.805
0.47000	83.805
0.46900	83.267
0.46800	83.626
0.46700	83.318
0.46600	83.495
0.46500	83.140
0.46400	83.295
0.46300	82.863
0.46200	84.011
0.46100	83.420
0.46000	82.632
0.45900	85.251
0.45800	85.112
0.45700	84.629
0.45600	84.684
0.45500	84.140
0.45400	83.956
0.45300	84.058
0.45200	84.059
0.45100	83.749
0.45000	84.240
0.44900	84.475
0.44800	84.031
0.44700	84.212
0.44600	84.369
0.44500	83.848
0.44400	83.644
0.44300	83.840
0.44200	83.940
0.44100	83.770
0.44000	83.243
0.43900	83.502
0.43800	83.605
0.43700	83.731
0.43600	83.840
0.43500	83.997
0.43400	83.888
0.43300	83.596
0.43200	83.569
0.43100	83.384
0.43000	83.540
0.42900	83.454
0.42800	83.220
0.42700	82.470
0.42600	82.645
0.42500	82.481
0.42400	82.634
0.42300	83.243
0.42200	82.753
0.42100	82.796
0.42000	83.563
0.41900	83.164
0.41800	82.324
0.41700	82.323
0.41600	82.212
0.41500	82.247
0.41400	82.658
0.41300	82.136
0.41200	82.189
0.41100	81.705
0.41000	81.174
0.40900	81.404
0.40800	81.630
0.40700	81.918
0.40600	81.427
0.40500	81.065
0.40400	81.396
0.40300	81.184
0.40200	81.366
0.40100	81.053
0.40000	80.953
