Name: Diabase
Type: Rocks
Class: Igneous
Subclass: Mafic
Particle Size: 0-75 micrometers
Sample No.: Diabase.H2
Owner: JHU
Wavelength range: All
Origin: from Jersey City, Hudson County, New Jersey, via Ward's Scientific 
(Cat. No. W-33)
Description: Powder derived from medium-grained gray rock consisting of 
plagioclase, pyroxenes and opaques.




Measurement: Directional (10 degree) hemispherical reflectance
First Column: X
Second Column: Y
X Units: Wavelength (micrometers)
Y Units: Reflectance (percent)
First X Value: 14.0112
Last X Value: 0.4000
Number of X Values: 2844
Additional information: diabas2a.txt

14.011	0.8587
13.973	3.0225
13.936	0.7200
13.899	0.5025
13.861	0.7912
13.824	1.9894
13.788	1.7194
13.751	0.0000
13.715	1.2319
13.679	1.9668
13.643	2.1975
13.607	2.1657
13.571	2.0109
13.536	3.1210
13.500	2.2959
13.465	2.2509
13.430	1.7175
13.396	0.3732
13.361	1.5984
13.327	2.6221
13.293	3.2184
13.259	3.1959
13.225	2.7234
13.191	2.6119
13.158	2.0779
13.124	1.6875
13.091	1.7405
13.058	2.2223
13.026	2.5659
12.993	2.4919
12.960	2.3906
12.928	2.4192
12.896	2.5697
12.864	2.6742
12.832	2.6925
12.800	2.6686
12.769	2.8828
12.737	2.9784
12.706	2.8218
12.675	3.0733
12.644	3.4603
12.614	3.6684
12.583	3.5608
12.552	3.3408
12.522	3.4481
12.492	3.9218
12.462	4.2349
12.432	4.2527
12.402	4.3898
12.373	4.6636
12.343	4.8068
12.314	4.8724
12.285	5.0065
12.256	4.9603
12.227	4.9673
12.198	5.1309
12.169	5.1590
12.141	4.9678
12.113	4.8384
12.084	4.8982
12.056	4.9500
12.028	4.7836
12.000	4.6685
11.973	4.6524
11.945	4.4524
11.918	4.3880
11.890	4.4676
11.863	4.4620
11.836	4.4431
11.809	4.3659
11.782	4.1691
11.755	4.1124
11.729	4.1574
11.702	4.2319
11.676	4.2394
11.650	4.2108
11.624	4.1405
11.598	4.1416
11.572	4.1011
11.546	4.0444
11.520	4.0556
11.495	4.1512
11.469	4.1522
11.444	4.0120
11.419	3.9966
11.394	4.0748
11.369	3.9853
11.344	3.7828
11.319	3.9052
11.294	4.0294
11.270	3.8480
11.245	3.7645
11.221	3.6806
11.197	3.6206
11.173	3.6553
11.149	3.5452
11.125	3.3914
11.101	3.2894
11.077	3.1568
11.054	3.0930
11.030	3.0403
11.007	3.0535
10.983	3.1860
10.960	3.2501
10.937	3.1017
10.914	3.0110
10.891	3.1730
10.868	3.1624
10.846	3.0377
10.823	2.9960
10.800	3.0745
10.778	3.1491
10.755	3.1847
10.733	3.1589
10.711	3.1948
10.689	3.1551
10.667	3.1207
10.645	3.2135
10.623	3.2147
10.602	3.1374
10.580	3.0618
10.558	3.0975
10.537	3.1577
10.516	3.1026
10.494	3.0556
10.473	3.0504
10.452	3.0124
10.431	3.0588
10.410	3.0935
10.389	3.0823
10.368	3.0101
10.348	2.9792
10.327	2.9730
10.306	2.9896
10.286	2.9925
10.266	2.9381
10.245	2.8980
10.225	2.7325
10.205	2.5259
10.185	2.6862
10.165	2.7436
10.145	2.6184
10.125	2.5673
10.106	2.6177
10.086	2.6397
10.066	2.5800
10.047	2.5704
10.027	2.5743
10.008	2.5043
9.9887	2.4818
9.9695	2.4790
9.9504	2.4904
9.9313	2.5603
9.9123	2.5303
9.8934	2.5260
9.8746	2.5969
9.8558	2.6154
9.8371	2.6402
9.8185	2.6437
9.7999	2.7075
9.7814	2.7530
9.7630	2.6463
9.7447	2.5690
9.7264	2.6510
9.7082	2.7361
9.6900	2.7389
9.6719	2.7706
9.6539	2.7733
9.6360	2.7546
9.6181	2.7192
9.6003	2.6894
9.5825	2.7984
9.5649	2.8577
9.5472	2.7958
9.5297	2.8329
9.5122	2.8600
9.4948	2.8425
9.4774	2.8530
9.4601	2.9147
9.4429	2.9264
9.4257	2.8976
9.4086	2.9262
9.3916	3.0136
9.3746	3.1310
9.3577	3.1788
9.3408	3.1763
9.3240	3.1720
9.3073	3.2177
9.2906	3.2948
9.2740	3.2604
9.2574	3.2888
9.2409	3.3736
9.2245	3.3229
9.2081	3.2444
9.1918	3.2618
9.1755	3.3124
9.1593	3.3060
9.1431	3.3530
9.1270	3.3543
9.1110	3.3898
9.0950	3.4315
9.0791	3.4277
9.0632	3.4353
9.0474	3.4265
9.0316	3.3896
9.0159	3.3330
9.0003	3.3349
8.9847	3.4125
8.9691	3.3930
8.9536	3.2675
8.9382	3.1664
8.9228	3.1429
8.9075	3.0535
8.8922	2.9555
8.8770	2.8910
8.8618	2.7832
8.8467	2.7361
8.8316	2.7283
8.8166	2.6179
8.8016	2.5657
8.7867	2.5312
8.7718	2.4787
8.7570	2.3124
8.7422	2.2470
8.7275	2.3407
8.7129	2.3782
8.6982	2.3076
8.6837	2.2634
8.6692	2.2683
8.6547	2.1553
8.6403	2.1556
8.6259	2.1771
8.6116	2.1663
8.5973	2.1757
8.5830	2.2504
8.5688	2.2596
8.5547	2.2496
8.5406	2.2212
8.5266	2.2528
8.5126	2.3374
8.4986	2.4005
8.4847	2.3431
8.4708	2.3231
8.4570	2.3426
8.4432	2.3508
8.4295	2.3772
8.4158	2.3707
8.4022	2.3416
8.3886	2.3914
8.3750	2.4197
8.3615	2.4621
8.3481	2.5437
8.3347	2.5613
8.3213	2.5605
8.3079	2.5680
8.2946	2.5226
8.2814	2.4891
8.2682	2.4862
8.2550	2.4719
8.2419	2.5645
8.2288	2.6175
8.2158	2.5638
8.2028	2.4820
8.1898	2.3922
8.1769	2.3543
8.1640	2.3632
8.1512	2.3002
8.1384	2.2753
8.1256	2.2662
8.1129	2.2364
8.1002	2.2475
8.0876	2.2369
8.0750	2.2361
8.0624	2.1994
8.0499	2.2083
8.0374	2.2551
8.0250	2.2650
8.0126	2.3081
8.0002	2.3585
7.9879	2.3984
7.9756	2.4119
7.9634	2.4738
7.9512	2.5160
7.9390	2.6086
7.9268	2.7494
7.9147	2.8127
7.9027	2.8026
7.8906	2.8451
7.8786	2.9532
7.8667	3.0816
7.8548	3.1600
7.8429	3.1927
7.8310	3.3155
7.8192	3.4621
7.8075	3.5397
7.7957	3.6026
7.7840	3.7092
7.7723	3.8280
7.7607	3.9914
7.7491	4.1314
7.7375	4.2206
7.7260	4.3549
7.7145	4.4662
7.7031	4.5832
7.6916	4.7463
7.6802	4.8246
7.6689	4.8815
7.6575	5.0372
7.6462	5.1982
7.6350	5.2948
7.6238	5.4321
7.6126	5.5472
7.6014	5.6224
7.5903	5.7530
7.5792	5.8917
7.5681	6.0239
7.5571	6.1504
7.5461	6.2943
7.5351	6.4163
7.5242	6.5250
7.5133	6.6337
7.5024	6.7929
7.4916	6.9182
7.4807	7.0005
7.4700	7.1317
7.4592	7.2626
7.4485	7.4166
7.4378	7.5392
7.4272	7.6491
7.4165	7.7852
7.4059	7.8966
7.3954	8.0192
7.3848	8.1852
7.3743	8.3196
7.3639	8.4379
7.3534	8.5392
7.3430	8.6628
7.3326	8.7855
7.3223	8.9074
7.3119	8.9917
7.3016	9.0968
7.2914	9.2449
7.2811	9.3516
7.2709	9.4335
7.2607	9.5634
7.2506	9.6761
7.2404	9.7474
7.2303	9.8482
7.2203	9.9639
7.2102	10.125
7.2002	10.255
7.1902	10.323
7.1803	10.359
7.1703	10.435
7.1604	10.558
7.1506	10.671
7.1407	10.764
7.1309	10.870
7.1211	10.963
7.1113	11.085
7.1016	11.182
7.0919	11.267
7.0822	11.352
7.0725	11.435
7.0629	11.529
7.0533	11.647
7.0437	11.770
7.0341	11.846
7.0246	11.914
7.0151	12.003
7.0056	12.135
6.9962	12.253
6.9867	12.304
6.9773	12.363
6.9679	12.454
6.9586	12.565
6.9493	12.596
6.9400	12.656
6.9307	12.760
6.9214	12.858
6.9122	12.904
6.9030	12.921
6.8938	12.965
6.8847	13.052
6.8755	13.103
6.8664	13.155
6.8573	13.237
6.8483	13.288
6.8393	13.286
6.8302	13.316
6.8213	13.300
6.8123	13.282
6.8034	13.316
6.7944	13.345
6.7855	13.343
6.7767	13.375
6.7678	13.366
6.7590	13.320
6.7502	13.312
6.7414	13.254
6.7327	13.196
6.7239	13.197
6.7152	13.201
6.7065	13.149
6.6979	13.099
6.6892	13.111
6.6806	13.125
6.6720	13.091
6.6634	13.095
6.6549	13.103
6.6464	13.094
6.6378	13.113
6.6294	13.121
6.6209	13.154
6.6124	13.174
6.6040	13.113
6.5956	13.082
6.5872	13.106
6.5789	13.133
6.5705	13.160
6.5622	13.108
6.5539	13.036
6.5456	13.078
6.5374	13.137
6.5292	13.138
6.5209	13.175
6.5128	13.229
6.5046	13.254
6.4964	13.331
6.4883	13.414
6.4802	13.424
6.4721	13.436
6.4640	13.460
6.4560	13.484
6.4480	13.547
6.4399	13.588
6.4320	13.630
6.4240	13.693
6.4160	13.726
6.4081	13.692
6.4002	13.670
6.3923	13.686
6.3844	13.738
6.3766	13.819
6.3687	13.811
6.3609	13.734
6.3531	13.672
6.3454	13.627
6.3376	13.650
6.3299	13.660
6.3221	13.605
6.3144	13.570
6.3068	13.542
6.2991	13.484
6.2914	13.420
6.2838	13.396
6.2762	13.390
6.2686	13.350
6.2611	13.339
6.2535	13.366
6.2460	13.359
6.2385	13.312
6.2310	13.311
6.2235	13.361
6.2160	13.331
6.2086	13.281
6.2011	13.328
6.1937	13.369
6.1863	13.421
6.1790	13.446
6.1716	13.476
6.1643	13.527
6.1570	13.605
6.1496	13.712
6.1424	13.765
6.1351	13.814
6.1278	13.852
6.1206	13.868
6.1134	13.934
6.1062	13.961
6.0990	13.975
6.0918	14.079
6.0847	14.198
6.0776	14.310
6.0704	14.378
6.0633	14.440
6.0563	14.521
6.0492	14.578
6.0421	14.638
6.0351	14.680
6.0281	14.708
6.0211	14.765
6.0141	14.841
6.0071	14.927
6.0002	15.041
5.9932	15.146
5.9863	15.226
5.9794	15.313
5.9725	15.470
5.9657	15.589
5.9588	15.695
5.9520	15.869
5.9451	16.029
5.9383	16.193
5.9315	16.380
5.9247	16.565
5.9180	16.771
5.9112	16.963
5.9045	17.127
5.8978	17.306
5.8911	17.524
5.8844	17.737
5.8777	17.849
5.8711	17.951
5.8644	18.093
5.8578	18.216
5.8512	18.328
5.8446	18.466
5.8380	18.592
5.8314	18.689
5.8249	18.778
5.8184	18.883
5.8118	18.980
5.8053	19.102
5.7988	19.201
5.7923	19.248
5.7859	19.371
5.7794	19.495
5.7730	19.621
5.7666	19.725
5.7602	19.811
5.7538	19.905
5.7474	20.058
5.7410	20.196
5.7347	20.206
5.7283	20.221
5.7220	20.343
5.7157	20.431
5.7094	20.481
5.7031	20.534
5.6969	20.546
5.6906	20.578
5.6844	20.593
5.6782	20.608
5.6719	20.645
5.6657	20.665
5.6596	20.697
5.6534	20.684
5.6472	20.701
5.6411	20.767
5.6349	20.750
5.6288	20.730
5.6227	20.731
5.6166	20.737
5.6106	20.809
5.6045	20.906
5.5984	20.953
5.5924	20.996
5.5864	21.039
5.5804	21.147
5.5744	21.326
5.5684	21.459
5.5624	21.445
5.5564	21.494
5.5505	21.611
5.5445	21.709
5.5386	21.785
5.5327	21.857
5.5268	21.958
5.5209	22.020
5.5151	22.058
5.5092	22.108
5.5033	22.180
5.4975	22.244
5.4917	22.274
5.4859	22.301
5.4801	22.314
5.4743	22.324
5.4685	22.360
5.4628	22.427
5.4570	22.434
5.4513	22.392
5.4455	22.406
5.4398	22.394
5.4341	22.347
5.4284	22.328
5.4228	22.359
5.4171	22.324
5.4114	22.183
5.4058	22.116
5.4002	22.126
5.3945	22.095
5.3889	22.024
5.3833	21.998
5.3778	21.938
5.3722	21.880
5.3666	21.881
5.3611	21.839
5.3555	21.830
5.3500	21.857
5.3445	21.867
5.3390	21.832
5.3335	21.807
5.3280	21.813
5.3225	21.808
5.3171	21.803
5.3116	21.810
5.3062	21.785
5.3008	21.733
5.2954	21.751
5.2900	21.785
5.2846	21.793
5.2792	21.818
5.2738	21.901
5.2684	21.973
5.2631	21.995
5.2578	22.038
5.2524	22.149
5.2471	22.234
5.2418	22.325
5.2365	22.416
5.2312	22.485
5.2260	22.606
5.2207	22.694
5.2154	22.722
5.2102	22.787
5.2050	22.826
5.1998	22.872
5.1945	22.918
5.1893	22.940
5.1842	22.962
5.1790	22.997
5.1738	23.063
5.1686	23.160
5.1635	23.213
5.1584	23.263
5.1532	23.375
5.1481	23.473
5.1430	23.510
5.1379	23.562
5.1328	23.617
5.1277	23.654
5.1227	23.694
5.1176	23.747
5.1126	23.827
5.1075	23.910
5.1025	23.954
5.0975	23.994
5.0925	24.014
5.0875	24.032
5.0825	24.091
5.0775	24.192
5.0726	24.297
5.0676	24.364
5.0627	24.465
5.0577	24.594
5.0528	24.708
5.0479	24.831
5.0430	24.956
5.0380	25.142
5.0332	25.318
5.0283	25.422
5.0234	25.510
5.0185	25.631
5.0137	25.774
5.0088	25.907
5.0040	25.999
4.9992	26.172
4.9944	26.330
4.9896	26.407
4.9848	26.492
4.9800	26.627
4.9752	26.791
4.9704	26.976
4.9657	27.116
4.9609	27.243
4.9562	27.371
4.9514	27.499
4.9467	27.614
4.9420	27.749
4.9373	27.886
4.9326	28.014
4.9279	28.085
4.9232	28.175
4.9186	28.328
4.9139	28.457
4.9092	28.570
4.9046	28.722
4.9000	28.873
4.8953	28.995
4.8907	29.126
4.8861	29.317
4.8815	29.455
4.8769	29.512
4.8723	29.568
4.8678	29.737
4.8632	29.915
4.8586	29.994
4.8541	30.121
4.8495	30.267
4.8450	30.374
4.8405	30.525
4.8360	30.679
4.8315	30.791
4.8270	30.919
4.8225	31.052
4.8180	31.197
4.8135	31.310
4.8090	31.442
4.8046	31.554
4.8001	31.665
4.7957	31.789
4.7913	31.915
4.7868	31.998
4.7824	32.118
4.7780	32.261
4.7736	32.359
4.7692	32.457
4.7648	32.581
4.7605	32.681
4.7561	32.817
4.7517	32.950
4.7474	33.053
4.7431	33.172
4.7387	33.292
4.7344	33.418
4.7301	33.617
4.7258	33.778
4.7215	33.907
4.7172	34.042
4.7129	34.192
4.7086	34.334
4.7043	34.514
4.7000	34.683
4.6958	34.809
4.6915	34.888
4.6873	35.015
4.6831	35.133
4.6788	35.263
4.6746	35.410
4.6704	35.566
4.6662	35.714
4.6620	35.858
4.6578	35.979
4.6536	36.141
4.6495	36.313
4.6453	36.424
4.6411	36.572
4.6370	36.795
4.6328	36.914
4.6287	37.059
4.6246	37.208
4.6205	37.331
4.6163	37.454
4.6122	37.536
4.6081	37.667
4.6040	37.869
4.6000	38.043
4.5959	38.187
4.5918	38.263
4.5877	38.364
4.5837	38.502
4.5796	38.599
4.5756	38.667
4.5716	38.798
4.5675	38.960
4.5635	39.037
4.5595	39.151
4.5555	39.282
4.5515	39.354
4.5475	39.390
4.5435	39.501
4.5395	39.616
4.5356	39.716
4.5316	39.760
4.5276	39.796
4.5237	39.878
4.5197	39.961
4.5158	40.039
4.5119	40.111
4.5080	40.159
4.5040	40.211
4.5001	40.279
4.4962	40.339
4.4923	40.362
4.4884	40.366
4.4846	40.403
4.4807	40.458
4.4768	40.517
4.4730	40.516
4.4691	40.581
4.4652	40.665
4.4614	40.714
4.4576	40.774
4.4537	40.841
4.4499	40.893
4.4461	40.902
4.4423	40.945
4.4385	41.037
4.4347	41.090
4.4309	41.124
4.4271	41.176
4.4233	41.235
4.4196	41.309
4.4158	41.371
4.4120	41.402
4.4083	41.435
4.4045	41.512
4.4008	41.575
4.3971	41.607
4.3934	41.646
4.3896	41.668
4.3859	41.732
4.3822	41.772
4.3785	41.852
4.3748	41.926
4.3711	41.975
4.3674	42.009
4.3638	42.053
4.3601	42.114
4.3564	42.187
4.3528	42.239
4.3491	42.272
4.3455	42.285
4.3418	42.320
4.3382	42.373
4.3346	42.450
4.3310	42.519
4.3273	42.549
4.3237	42.578
4.3201	42.683
4.3165	42.807
4.3129	42.833
4.3094	42.844
4.3058	42.897
4.3022	42.965
4.2986	43.036
4.2951	43.112
4.2915	43.134
4.2880	43.206
4.2844	43.283
4.2809	43.299
4.2774	43.309
4.2738	43.348
4.2703	43.366
4.2668	43.376
4.2633	43.420
4.2598	43.374
4.2563	43.383
4.2528	43.483
4.2493	43.579
4.2458	43.726
4.2424	43.845
4.2389	43.853
4.2354	43.829
4.2320	43.828
4.2285	43.842
4.2251	43.833
4.2216	43.828
4.2182	43.866
4.2148	43.859
4.2113	43.812
4.2079	43.852
4.2045	43.943
4.2011	43.868
4.1977	43.794
4.1943	43.863
4.1909	43.906
4.1875	43.931
4.1841	43.949
4.1808	43.967
4.1774	43.996
4.1740	44.015
4.1707	44.020
4.1673	44.029
4.1640	44.068
4.1606	44.101
4.1573	44.111
4.1540	44.129
4.1506	44.143
4.1473	44.189
4.1440	44.166
4.1407	44.175
4.1374	44.243
4.1341	44.251
4.1308	44.275
4.1275	44.349
4.1242	44.338
4.1209	44.330
4.1177	44.393
4.1144	44.467
4.1111	44.477
4.1079	44.452
4.1046	44.396
4.1014	44.422
4.0981	44.466
4.0949	44.489
4.0917	44.477
4.0884	44.463
4.0852	44.503
4.0820	44.551
4.0788	44.548
4.0756	44.566
4.0724	44.575
4.0692	44.585
4.0660	44.619
4.0628	44.692
4.0596	44.739
4.0565	44.717
4.0533	44.664
4.0501	44.697
4.0470	44.704
4.0438	44.729
4.0406	44.786
4.0375	44.795
4.0344	44.796
4.0312	44.832
4.0281	44.828
4.0250	44.820
4.0218	44.819
4.0187	44.837
4.0156	44.886
4.0125	44.901
4.0094	44.909
4.0063	44.883
4.0032	44.880
4.0001	44.896
3.9970	44.968
3.9940	45.014
3.9909	44.992
3.9878	44.978
3.9847	44.950
3.9817	44.969
3.9786	45.001
3.9756	45.024
3.9725	45.027
3.9695	44.988
3.9665	45.028
3.9634	45.140
3.9604	45.155
3.9574	45.103
3.9544	45.064
3.9513	45.081
3.9483	45.119
3.9453	45.181
3.9423	45.225
3.9393	45.203
3.9363	45.128
3.9333	45.115
3.9304	45.173
3.9274	45.212
3.9244	45.198
3.9214	45.214
3.9185	45.243
3.9155	45.237
3.9126	45.263
3.9096	45.321
3.9067	45.340
3.9037	45.304
3.9008	45.302
3.8979	45.327
3.8949	45.284
3.8920	45.266
3.8891	45.299
3.8862	45.376
3.8833	45.377
3.8804	45.315
3.8775	45.350
3.8746	45.421
3.8717	45.417
3.8688	45.408
3.8659	45.372
3.8630	45.376
3.8601	45.376
3.8573	45.367
3.8544	45.385
3.8515	45.470
3.8487	45.488
3.8458	45.434
3.8430	45.379
3.8401	45.357
3.8373	45.374
3.8344	45.428
3.8316	45.473
3.8288	45.493
3.8259	45.474
3.8231	45.476
3.8203	45.449
3.8175	45.473
3.8147	45.533
3.8119	45.542
3.8091	45.517
3.8063	45.509
3.8035	45.504
3.8007	45.498
3.7979	45.462
3.7951	45.481
3.7924	45.521
3.7896	45.552
3.7868	45.543
3.7841	45.533
3.7813	45.511
3.7785	45.549
3.7758	45.538
3.7730	45.542
3.7703	45.541
3.7676	45.475
3.7648	45.523
3.7621	45.550
3.7594	45.484
3.7566	45.493
3.7539	45.524
3.7512	45.534
3.7485	45.527
3.7458	45.520
3.7431	45.532
3.7404	45.491
3.7377	45.482
3.7350	45.498
3.7323	45.530
3.7296	45.539
3.7269	45.471
3.7242	45.472
3.7216	45.524
3.7189	45.516
3.7162	45.474
3.7136	45.460
3.7109	45.417
3.7083	45.456
3.7056	45.484
3.7030	45.489
3.7003	45.486
3.6977	45.477
3.6950	45.491
3.6924	45.504
3.6898	45.498
3.6872	45.500
3.6845	45.504
3.6819	45.488
3.6793	45.481
3.6767	45.491
3.6741	45.462
3.6715	45.460
3.6689	45.483
3.6663	45.479
3.6637	45.470
3.6611	45.441
3.6585	45.383
3.6560	45.349
3.6534	45.359
3.6508	45.374
3.6482	45.425
3.6457	45.428
3.6431	45.444
3.6406	45.466
3.6380	45.441
3.6355	45.442
3.6329	45.452
3.6304	45.381
3.6278	45.337
3.6253	45.375
3.6227	45.389
3.6202	45.419
3.6177	45.397
3.6152	45.369
3.6127	45.350
3.6101	45.315
3.6076	45.273
3.6051	45.277
3.6026	45.282
3.6001	45.288
3.5976	45.348
3.5951	45.389
3.5926	45.347
3.5901	45.269
3.5876	45.281
3.5852	45.274
3.5827	45.231
3.5802	45.204
3.5777	45.189
3.5753	45.213
3.5728	45.222
3.5704	45.148
3.5679	45.136
3.5654	45.216
3.5630	45.169
3.5605	45.151
3.5581	45.201
3.5557	45.202
3.5532	45.176
3.5508	45.188
3.5484	45.111
3.5459	45.022
3.5435	45.013
3.5411	45.063
3.5387	45.102
3.5363	45.076
3.5338	45.018
3.5314	45.020
3.5290	45.059
3.5266	44.968
3.5242	44.982
3.5218	44.994
3.5195	44.947
3.5171	44.962
3.5147	44.946
3.5123	44.896
3.5099	44.874
3.5075	44.821
3.5052	44.788
3.5028	44.796
3.5004	44.799
3.4981	44.744
3.4957	44.769
3.4934	44.737
3.4910	44.698
3.4887	44.707
3.4863	44.704
3.4840	44.707
3.4816	44.712
3.4793	44.726
3.4770	44.719
3.4746	44.684
3.4723	44.637
3.4700	44.640
3.4677	44.674
3.4653	44.692
3.4630	44.629
3.4607	44.574
3.4584	44.566
3.4561	44.564
3.4538	44.540
3.4515	44.490
3.4492	44.458
3.4469	44.424
3.4446	44.411
3.4423	44.401
3.4400	44.387
3.4378	44.368
3.4355	44.361
3.4332	44.282
3.4309	44.226
3.4287	44.203
3.4264	44.200
3.4241	44.182
3.4219	44.097
3.4196	44.045
3.4174	44.018
3.4151	43.945
3.4129	43.952
3.4106	43.939
3.4084	43.904
3.4061	43.933
3.4039	43.893
3.4017	43.854
3.3994	43.900
3.3972	43.926
3.3950	43.887
3.3928	43.864
3.3906	43.797
3.3883	43.777
3.3861	43.767
3.3839	43.736
3.3817	43.689
3.3795	43.740
3.3773	43.740
3.3751	43.668
3.3729	43.675
3.3707	43.623
3.3685	43.582
3.3663	43.590
3.3641	43.539
3.3620	43.501
3.3598	43.470
3.3576	43.498
3.3554	43.554
3.3533	43.496
3.3511	43.382
3.3489	43.348
3.3468	43.343
3.3446	43.267
3.3425	43.226
3.3403	43.222
3.3382	43.185
3.3360	43.227
3.3339	43.207
3.3317	43.134
3.3296	43.082
3.3274	43.047
3.3253	43.026
3.3232	42.969
3.3210	42.931
3.3189	42.882
3.3168	42.853
3.3147	42.852
3.3126	42.814
3.3104	42.786
3.3083	42.726
3.3062	42.641
3.3041	42.645
3.3020	42.657
3.2999	42.532
3.2978	42.448
3.2957	42.493
3.2936	42.523
3.2915	42.449
3.2894	42.423
3.2874	42.414
3.2853	42.311
3.2832	42.215
3.2811	42.236
3.2790	42.239
3.2770	42.210
3.2749	42.206
3.2728	42.162
3.2708	42.048
3.2687	42.021
3.2666	41.994
3.2646	41.856
3.2625	41.788
3.2605	41.799
3.2584	41.772
3.2564	41.697
3.2543	41.643
3.2523	41.650
3.2503	41.572
3.2482	41.509
3.2462	41.491
3.2442	41.456
3.2421	41.473
3.2401	41.407
3.2381	41.285
3.2361	41.199
3.2340	41.185
3.2320	41.183
3.2300	41.079
3.2280	40.997
3.2260	41.005
3.2240	40.875
3.2220	40.783
3.2200	40.756
3.2180	40.789
3.2160	40.729
3.2140	40.606
3.2120	40.572
3.2100	40.541
3.2080	40.450
3.2060	40.376
3.2040	40.397
3.2021	40.319
3.2001	40.205
3.1981	40.139
3.1961	40.062
3.1942	39.995
3.1922	40.007
3.1902	39.948
3.1883	39.901
3.1863	39.862
3.1844	39.759
3.1824	39.725
3.1805	39.704
3.1785	39.728
3.1766	39.694
3.1746	39.610
3.1727	39.520
3.1707	39.440
3.1688	39.307
3.1669	39.274
3.1649	39.387
3.1630	39.311
3.1611	39.063
3.1591	39.051
3.1572	39.089
3.1553	39.084
3.1534	39.020
3.1515	38.964
3.1495	38.893
3.1476	38.808
3.1457	38.744
3.1438	38.708
3.1419	38.629
3.1400	38.554
3.1381	38.561
3.1362	38.528
3.1343	38.514
3.1324	38.454
3.1305	38.426
3.1286	38.382
3.1268	38.277
3.1249	38.258
3.1230	38.168
3.1211	38.094
3.1192	38.052
3.1174	38.051
3.1155	38.016
3.1136	37.985
3.1117	37.946
3.1099	37.901
3.1080	37.908
3.1061	37.820
3.1043	37.655
3.1024	37.621
3.1006	37.714
3.0987	37.703
3.0969	37.633
3.0950	37.576
3.0932	37.551
3.0913	37.521
3.0895	37.503
3.0876	37.385
3.0858	37.281
3.0840	37.282
3.0821	37.345
3.0803	37.438
3.0785	37.388
3.0766	37.348
3.0748	37.254
3.0730	37.230
3.0712	37.188
3.0694	37.087
3.0675	37.130
3.0657	37.117
3.0639	37.093
3.0621	37.106
3.0603	37.069
3.0585	36.902
3.0567	36.818
3.0549	36.840
3.0531	36.888
3.0513	36.780
3.0495	36.751
3.0477	36.829
3.0459	36.791
3.0441	36.682
3.0423	36.703
3.0406	36.617
3.0388	36.520
3.0370	36.529
3.0352	36.592
3.0334	36.532
3.0317	36.410
3.0299	36.394
3.0281	36.344
3.0264	36.280
3.0246	36.337
3.0228	36.201
3.0211	36.104
3.0193	36.109
3.0176	36.088
3.0158	36.035
3.0140	36.049
3.0123	36.073
3.0105	35.960
3.0088	35.903
3.0070	35.771
3.0053	35.600
3.0036	35.539
3.0018	35.608
3.0001	35.689
2.9984	35.607
2.9966	35.541
2.9949	35.504
2.9932	35.386
2.9914	35.174
2.9897	35.111
2.9880	35.282
2.9863	35.267
2.9845	34.996
2.9828	34.910
2.9811	34.949
2.9794	34.897
2.9777	34.813
2.9760	34.833
2.9743	34.801
2.9726	34.824
2.9709	34.671
2.9692	34.558
2.9675	34.573
2.9658	34.520
2.9641	34.438
2.9624	34.422
2.9607	34.364
2.9590	34.358
2.9573	34.220
2.9556	34.180
2.9539	34.276
2.9523	34.254
2.9506	34.176
2.9489	34.162
2.9472	34.034
2.9455	33.963
2.9439	34.116
2.9422	34.108
2.9405	33.972
2.9389	33.851
2.9372	33.744
2.9355	33.785
2.9339	33.741
2.9322	33.715
2.9306	33.758
2.9289	33.758
2.9272	33.712
2.9256	33.701
2.9239	33.690
2.9223	33.666
2.9207	33.683
2.9190	33.726
2.9174	33.650
2.9157	33.639
2.9141	33.718
2.9124	33.744
2.9108	33.720
2.9092	33.706
2.9075	33.711
2.9059	33.703
2.9043	33.685
2.9027	33.657
2.9010	33.685
2.8994	33.727
2.8978	33.692
2.8962	33.666
2.8946	33.660
2.8929	33.662
2.8913	33.634
2.8897	33.654
2.8881	33.696
2.8865	33.750
2.8849	33.762
2.8833	33.764
2.8817	33.670
2.8801	33.610
2.8785	33.770
2.8769	33.776
2.8753	33.611
2.8737	33.489
2.8721	33.632
2.8705	33.708
2.8689	33.563
2.8673	33.496
2.8658	33.546
2.8642	33.609
2.8626	33.600
2.8610	33.511
2.8594	33.400
2.8579	33.448
2.8563	33.408
2.8547	33.352
2.8531	33.352
2.8516	33.386
2.8500	33.349
2.8484	33.260
2.8469	33.228
2.8453	33.239
2.8437	33.297
2.8422	33.350
2.8406	33.319
2.8391	33.322
2.8375	33.396
2.8360	33.340
2.8344	33.319
2.8329	33.340
2.8313	33.314
2.8298	33.298
2.8282	33.219
2.8267	33.274
2.8252	33.319
2.8236	33.375
2.8221	33.476
2.8205	33.354
2.8190	33.330
2.8175	33.468
2.8159	33.475
2.8144	33.447
2.8129	33.560
2.8114	33.634
2.8098	33.615
2.8083	33.696
2.8068	33.727
2.8053	33.705
2.8038	33.869
2.8022	34.030
2.8007	33.956
2.7992	33.918
2.7977	34.012
2.7962	34.078
2.7947	34.119
2.7932	34.155
2.7917	34.186
2.7902	34.235
2.7887	34.352
2.7872	34.552
2.7857	34.626
2.7842	34.662
2.7827	34.547
2.7812	34.564
2.7797	34.640
2.7782	34.686
2.7767	34.709
2.7752	34.819
2.7738	34.846
2.7723	34.914
2.7708	35.084
2.7693	35.156
2.7678	35.241
2.7664	35.298
2.7649	35.329
2.7634	35.409
2.7619	35.491
2.7605	35.580
2.7590	35.594
2.7575	35.663
2.7561	35.882
2.7546	36.095
2.7531	36.148
2.7517	36.201
2.7502	36.340
2.7488	36.394
2.7473	36.377
2.7458	36.499
2.7444	36.456
2.7429	36.464
2.7415	36.929
2.7400	37.487
2.7386	37.693
2.7371	37.672
2.7357	37.709
2.7343	37.643
2.7328	37.493
2.7314	37.254
2.7299	37.399
2.7285	38.279
2.7271	39.194
2.7256	39.556
2.7242	39.631
2.7228	39.502
2.7213	39.222
2.7199	39.283
2.7185	39.953
2.7171	41.324
2.7156	42.542
2.7142	43.276
2.7128	43.720
2.7114	44.020
2.7100	44.243
2.7085	44.547
2.7071	44.784
2.7057	44.926
2.7043	45.206
2.7029	45.332
2.7015	45.450
2.7001	45.636
2.6987	45.758
2.6973	45.805
2.6959	45.939
2.6945	46.167
2.6931	46.361
2.6917	46.513
2.6903	46.680
2.6889	46.799
2.6875	47.090
2.6861	47.454
2.6847	47.704
2.6833	47.955
2.6819	48.223
2.6805	48.330
2.6791	48.431
2.6778	48.448
2.6764	48.514
2.6750	48.609
2.6736	48.567
2.6722	48.558
2.6709	48.718
2.6695	48.775
2.6681	48.778
2.6667	48.891
2.6654	48.894
2.6640	48.930
2.6626	48.920
2.6613	48.936
2.6599	48.977
2.6585	48.900
2.6572	48.860
2.6558	48.919
2.6545	48.939
2.6531	48.899
2.6517	49.009
2.6504	49.008
2.6490	48.974
2.6477	48.959
2.6463	48.918
2.6450	48.911
2.6436	48.889
2.6423	48.792
2.6409	48.712
2.6396	48.749
2.6382	48.806
2.6369	48.896
2.6356	48.869
2.6342	48.751
2.6329	48.697
2.6315	48.874
2.6302	48.967
2.6289	48.865
2.6275	48.682
2.6262	48.642
2.6249	48.815
2.6236	48.848
2.6222	48.724
2.6209	48.778
2.6196	48.740
2.6183	48.651
2.6169	48.621
2.6156	48.571
2.6143	48.498
2.6130	48.465
2.6117	48.481
2.6103	48.611
2.6090	48.688
2.6077	48.592
2.6064	48.569
2.6051	48.591
2.6038	48.528
2.6025	48.480
2.6012	48.489
2.5999	48.382
2.5986	48.348
2.5973	48.434
2.5960	48.514
2.5947	48.533
2.5934	48.390
2.5921	48.226
2.5908	48.281
2.5895	48.164
2.5882	48.155
2.5869	48.257
2.5856	48.261
2.5843	48.264
2.5830	48.386
2.5817	48.419
2.5805	48.236
2.5792	48.120
2.5779	48.108
2.5766	48.020
2.5753	48.011
2.5741	48.019
2.5728	48.004
2.5715	47.965
2.5702	47.863
2.5690	47.927
2.5677	48.028
2.5664	47.933
2.5651	47.833
2.5639	47.840
2.5626	47.856
2.5613	47.867
2.5601	47.773
2.5588	47.814
2.5575	47.833
2.5563	47.791
2.5550	47.676
2.5538	47.723
2.5525	47.687
2.5513	47.507
2.5500	47.500
2.5487	47.608
2.5475	47.625
2.5462	47.542
2.5450	47.551
2.5437	47.485
2.5425	47.436
2.5413	47.348
2.5400	47.334
2.5388	47.325
2.5375	47.298
2.5363	47.346
2.5350	47.354
2.5338	47.249
2.5326	47.149
2.5313	47.183
2.5301	47.267
2.5289	47.270
2.5276	47.105
2.5264	47.117
2.5252	47.177
2.5239	47.101
2.5227	47.035
2.5215	46.962
2.5202	46.920
2.5190	46.915
2.5178	46.954
2.5166	46.937
2.5154	47.009
2.5141	46.994
2.5129	46.977
2.5117	46.969
2.5105	46.880
2.5093	46.803
2.5081	46.750
2.5068	46.747
2.5056	46.780
2.5044	46.713
2.5032	46.730
2.5020	46.679
2.5008	46.617
2.4996	46.675
2.4984	46.713
2.4972	46.600
2.4960	46.471
2.4948	46.434
2.4936	46.408
2.4924	46.409
2.4912	46.423
2.4900	46.497
2.4888	46.400
2.4876	46.345
2.4864	46.317
2.4852	46.235
2.4840	46.130
2.4828	46.156
2.4816	46.174
2.4805	46.137
2.4793	46.148
2.4781	46.093
2.4769	46.131
2.4757	46.103
2.4745	46.020
2.4734	46.066
2.4722	46.104
2.4710	46.031
2.4698	46.067
2.4686	46.059
2.4675	45.934
2.4663	45.849
2.4651	45.854
2.4640	45.803
2.4628	45.820
2.4616	45.794
2.4604	45.612
2.4593	45.587
2.4581	45.634
2.4569	45.563
2.4558	45.549
2.4546	45.563
2.4535	45.628
2.4523	45.663
2.4511	45.522
2.4500	45.531
2.4488	45.603
2.4477	45.456
2.4465	45.523
2.4454	45.631
2.4442	45.366
2.4431	45.332
2.4419	45.340
2.4408	45.266
2.4396	45.245
2.4385	45.242
2.4373	45.208
2.4362	45.208
2.4350	45.114
2.4339	44.953
2.4327	44.989
2.4316	45.107
2.4305	44.912
2.4293	44.743
2.4282	44.924
2.4270	44.908
2.4259	44.823
2.4248	44.796
2.4236	44.779
2.4225	44.766
2.4214	44.712
2.4202	44.725
2.4191	44.812
2.4180	44.823
2.4169	44.798
2.4157	44.789
2.4146	44.708
2.4135	44.607
2.4124	44.534
2.4112	44.508
2.4101	44.467
2.4090	44.572
2.4079	44.545
2.4068	44.430
2.4056	44.370
2.4045	44.365
2.4034	44.319
2.4023	44.229
2.4012	44.197
2.4001	44.344
2.3990	44.297
2.3979	44.203
2.3967	44.200
2.3956	44.224
2.3945	44.367
2.3934	44.396
2.3923	44.067
2.3912	43.893
2.3901	44.092
2.3890	44.149
2.3879	44.040
2.3868	43.960
2.3857	43.887
2.3846	43.809
2.3835	43.736
2.3824	43.836
2.3813	43.897
2.3802	43.925
2.3791	43.862
2.3781	43.789
2.3770	43.884
2.3759	43.896
2.3748	43.769
2.3737	43.829
2.3726	43.771
2.3715	43.716
2.3704	43.763
2.3694	43.725
2.3683	43.647
2.3672	43.662
2.3661	43.624
2.3650	43.533
2.3640	43.528
2.3629	43.597
2.3618	43.672
2.3607	43.698
2.3597	43.612
2.3586	43.514
2.3575	43.547
2.3564	43.556
2.3554	43.492
2.3543	43.535
2.3532	43.519
2.3522	43.426
2.3511	43.303
2.3500	43.242
2.3490	43.240
2.3479	43.337
2.3468	43.327
2.3458	43.239
2.3447	43.221
2.3436	43.196
2.3426	43.212
2.3415	43.112
2.3405	43.104
2.3394	43.126
2.3384	43.043
2.3373	43.028
2.3363	42.992
2.3352	42.934
2.3342	42.973
2.3331	43.119
2.3321	43.077
2.3310	42.940
2.3300	42.919
2.3289	43.082
2.3279	43.120
2.3268	43.000
2.3258	42.881
2.3247	42.806
2.3237	42.778
2.3226	42.748
2.3216	42.672
2.3206	42.732
2.3195	42.823
2.3185	42.876
2.3175	42.875
2.3164	42.771
2.3154	42.711
2.3144	42.693
2.3133	42.637
2.3123	42.586
2.3113	42.613
2.3102	42.544
2.3092	42.600
2.3082	42.578
2.3071	42.558
2.3061	42.587
2.3051	42.557
2.3041	42.446
2.3030	42.489
2.3020	42.561
2.3010	42.505
2.3000	42.450
2.2990	42.402
2.2979	42.452
2.2969	42.520
2.2959	42.471
2.2949	42.377
2.2939	42.514
2.2929	42.515
2.2918	42.354
2.2908	42.308
2.2898	42.397
2.2888	42.393
2.2878	42.377
2.2868	42.306
2.2858	42.301
2.2848	42.189
2.2838	42.150
2.2828	42.208
2.2818	42.273
2.2808	42.193
2.2798	42.302
2.2787	42.325
2.2777	42.229
2.2767	42.100
2.2757	42.021
2.2747	42.109
2.2738	42.124
2.2728	42.024
2.2718	42.085
2.2708	42.064
2.2698	42.115
2.2688	42.189
2.2678	42.043
2.2668	41.937
2.2658	41.943
2.2648	41.956
2.2638	41.869
2.2628	41.848
2.2618	41.805
2.2609	41.780
2.2599	41.792
2.2589	41.856
2.2579	41.782
2.2569	41.801
2.2559	41.859
2.2550	41.793
2.2540	41.627
2.2530	41.603
2.2520	41.685
2.2510	41.721
2.2501	41.750
2.2491	41.529
2.2481	41.475
2.2471	41.649
2.2462	41.627
2.2452	41.540
2.2442	41.500
2.2433	41.460
2.2423	41.358
2.2413	41.265
2.2403	41.412
2.2394	41.531
2.2384	41.507
2.2374	41.439
2.2365	41.365
2.2355	41.332
2.2345	41.325
2.2336	41.280
2.2326	41.271
2.2317	41.362
2.2307	41.308
2.2297	41.260
2.2288	41.241
2.2278	41.338
2.2269	41.355
2.2259	41.246
2.2250	41.156
2.2240	41.194
2.2231	41.145
2.2221	41.076
2.2211	41.032
2.2202	41.095
2.2192	41.050
2.2183	41.026
2.2173	41.137
2.2164	41.100
2.2155	41.057
2.2145	41.040
2.2136	41.112
2.2126	41.106
2.2117	41.117
2.2107	40.969
2.2098	40.917
2.2088	40.935
2.2079	40.833
2.2070	40.832
2.2060	40.910
2.2051	40.974
2.2041	40.829
2.2032	40.799
2.2023	40.723
2.2013	40.648
2.2004	40.737
2.1995	40.831
2.1985	40.758
2.1976	40.694
2.1967	40.767
2.1957	40.832
2.1948	40.910
2.1939	40.827
2.1930	40.672
2.1920	40.570
2.1911	40.575
2.1902	40.605
2.1893	40.748
2.1883	40.911
2.1874	40.732
2.1865	40.470
2.1856	40.303
2.1846	40.356
2.1837	40.367
2.1828	40.362
2.1819	40.391
2.1810	40.470
2.1800	40.511
2.1791	40.394
2.1782	40.258
2.1773	40.214
2.1764	40.282
2.1755	40.325
2.1746	40.348
2.1736	40.311
2.1727	40.282
2.1718	40.185
2.1709	40.153
2.1700	40.093
2.1691	40.012
2.1682	40.058
2.1673	40.236
2.1664	40.347
2.1655	40.258
2.1646	40.132
2.1637	40.028
2.1628	40.099
2.1619	40.102
2.1610	39.933
2.1601	40.004
2.1592	40.080
2.1583	40.045
2.1574	39.893
2.1565	39.898
2.1556	39.982
2.1547	39.966
2.1538	39.870
2.1529	39.817
2.1520	39.901
2.1511	39.914
2.1502	39.885
2.1493	39.914
2.1484	39.931
2.1475	39.878
2.1466	39.722
2.1458	39.693
2.1449	39.690
2.1440	39.597
2.1431	39.537
2.1422	39.619
2.1413	39.685
2.1404	39.831
2.1396	39.690
2.1387	39.554
2.1378	39.608
2.1369	39.570
2.1360	39.586
2.1352	39.632
2.1343	39.621
2.1334	39.627
2.1325	39.554
2.1316	39.267
2.1308	39.406
2.1299	39.679
2.1290	39.402
2.1281	39.175
2.1273	39.321
2.1264	39.430
2.1255	39.430
2.1247	39.302
2.1238	39.295
2.1229	39.289
2.1220	39.289
2.1212	39.212
2.1203	39.354
2.1194	39.400
2.1186	39.242
2.1177	39.318
2.1168	39.364
2.1160	39.330
2.1151	39.259
2.1143	39.212
2.1134	39.156
2.1125	39.210
2.1117	39.190
2.1108	39.101
2.1100	39.098
2.1091	39.158
2.1082	39.073
2.1074	38.989
2.1065	38.899
2.1057	38.897
2.1048	38.988
2.1040	39.034
2.1031	39.055
2.1023	39.061
2.1014	38.975
2.1005	38.944
2.0997	38.835
2.0988	38.905
2.0980	39.053
2.0971	39.041
2.0963	38.890
2.0955	38.758
2.0946	38.666
2.0938	38.783
2.0929	38.773
2.0921	38.622
2.0912	38.808
2.0904	38.943
2.0895	38.848
2.0887	38.728
2.0879	38.643
2.0870	38.709
2.0862	38.675
2.0853	38.610
2.0845	38.640
2.0837	38.554
2.0828	38.504
2.0820	38.533
2.0812	38.595
2.0803	38.734
2.0795	38.794
2.0760	38.794
2.0720	38.518
2.0680	38.363
2.0640	38.456
2.0600	38.178
2.0560	38.333
2.0520	38.394
2.0480	38.024
2.0440	37.963
2.0400	37.994
2.0360	37.872
2.0320	37.720
2.0280	37.597
2.0240	37.445
2.0200	37.085
2.0160	37.085
2.0120	37.037
2.0080	37.267
2.0040	37.239
2.0000	37.208
1.9960	37.208
1.9920	37.026
1.9880	36.967
1.9840	36.583
1.9800	36.555
1.9760	36.632
1.9720	36.547
1.9680	36.308
1.9640	36.460
1.9600	36.460
1.9560	36.547
1.9520	36.662
1.9480	36.567
1.9440	36.622
1.9400	36.614
1.9360	36.452
1.9320	36.119
1.9280	36.236
1.9240	35.935
1.9200	35.786
1.9160	36.107
1.9120	36.384
1.9080	36.481
1.9040	36.526
1.9000	36.662
1.8960	36.587
1.8920	36.542
1.8880	36.603
1.8840	36.556
1.8800	36.603
1.8760	36.713
1.8720	36.909
1.8680	36.662
1.8640	36.443
1.8600	36.280
1.8560	36.298
1.8520	36.514
1.8480	36.781
1.8440	36.997
1.8400	37.262
1.8360	37.352
1.8320	37.207
1.8280	37.147
1.8240	37.476
1.8200	37.389
1.8160	37.214
1.8120	37.382
1.8080	37.305
1.8040	37.450
1.8000	37.274
1.7960	37.527
1.7920	37.714
1.7880	37.627
1.7840	37.656
1.7800	37.512
1.7760	37.715
1.7720	37.833
1.7680	37.921
1.7640	38.215
1.7600	38.334
1.7560	38.215
1.7520	38.334
1.7480	38.452
1.7440	38.451
1.7400	38.777
1.7360	39.076
1.7320	39.195
1.7280	39.462
1.7240	39.640
1.7200	39.729
1.7160	39.490
1.7120	39.309
1.7080	39.228
1.7040	39.599
1.7000	39.656
1.6960	39.568
1.6920	39.626
1.6880	40.040
1.6840	39.978
1.6800	39.947
1.6760	40.098
1.6720	40.129
1.6680	40.217
1.6640	40.186
1.6600	40.331
1.6560	40.486
1.6520	40.732
1.6480	40.820
1.6440	40.852
1.6400	40.757
1.6360	40.677
1.6320	40.902
1.6280	41.086
1.6240	41.252
1.6200	41.174
1.6160	41.199
1.6120	41.399
1.6080	41.552
1.6040	41.811
1.6000	41.900
1.5960	41.891
1.5920	42.035
1.5880	41.961
1.5840	41.919
1.5800	41.942
1.5760	42.193
1.5720	42.095
1.5680	42.271
1.5640	42.214
1.5600	42.512
1.5560	42.469
1.5520	42.644
1.5480	42.864
1.5440	42.952
1.5400	42.919
1.5360	42.732
1.5320	42.732
1.5280	42.864
1.5240	42.952
1.5200	42.919
1.5160	42.974
1.5120	42.875
1.5080	42.787
1.5040	42.743
1.5000	42.920
1.4960	42.699
1.4920	42.666
1.4880	42.688
1.4840	42.809
1.4800	42.940
1.4760	43.017
1.4720	43.105
1.4680	42.995
1.4640	43.050
1.4600	43.071
1.4560	43.346
1.4520	43.723
1.4480	43.580
1.4440	43.450
1.4400	43.373
1.4360	43.297
1.4320	43.297
1.4280	43.117
1.4240	43.261
1.4200	43.228
1.4160	43.117
1.4120	43.386
1.4080	43.365
1.4040	43.107
1.4000	42.951
1.3960	43.029
1.3920	42.928
1.3880	42.850
1.3840	43.096
1.3800	43.052
1.3760	43.130
1.3720	42.962
1.3680	42.807
1.3640	42.961
1.3600	42.804
1.3560	42.804
1.3520	42.840
1.3480	42.830
1.3440	42.995
1.3400	42.582
1.3360	42.505
1.3320	42.354
1.3280	42.061
1.3240	42.037
1.3200	42.229
1.3160	42.358
1.3120	42.148
1.3080	42.244
1.3040	42.188
1.3000	42.220
1.2960	42.076
1.2920	42.084
1.2880	42.003
1.2840	41.898
1.2800	41.938
1.2760	41.791
1.2720	41.683
1.2680	41.433
1.2640	41.388
1.2600	41.357
1.2560	41.299
1.2520	41.194
1.2480	41.321
1.2440	41.116
1.2400	41.153
1.2360	41.162
1.2320	40.941
1.2280	40.900
1.2240	40.905
1.2200	40.830
1.2160	40.834
1.2120	40.313
1.2080	40.071
1.2040	39.833
1.2000	39.803
1.1960	39.801
1.1920	39.693
1.1880	39.633
1.1840	39.486
1.1800	39.126
1.1760	39.251
1.1720	39.280
1.1680	38.950
1.1640	38.861
1.1600	38.655
1.1560	38.682
1.1520	38.474
1.1480	38.385
1.1440	38.247
1.1400	38.359
1.1360	38.444
1.1320	38.091
1.1280	37.852
1.1240	37.270
1.1200	36.971
1.1160	36.799
1.1120	36.595
1.1080	36.100
1.1040	36.038
1.1000	35.825
1.0960	35.390
1.0920	35.150
1.0880	34.744
1.0840	34.529
1.0800	34.184
1.0760	34.070
1.0720	33.666
1.0680	33.449
1.0640	32.927
1.0600	32.533
1.0560	32.356
1.0520	32.073
1.0480	31.784
1.0440	31.562
1.0400	31.096
1.0360	31.009
1.0320	30.745
1.0280	30.545
1.0240	30.366
1.0200	29.859
1.0160	29.704
1.0120	29.484
1.0080	29.240
1.0040	29.251
1.0000	28.793
0.9960	28.617
0.9920	28.194
0.9880	28.098
0.9840	27.912
0.9800	27.843
0.9760	27.813
0.9720	27.558
0.9680	27.440
0.9640	27.282
0.9600	26.959
0.9560	27.035
0.9520	26.839
0.9480	26.751
0.9440	26.751
0.9400	26.684
0.9360	26.722
0.9320	26.665
0.9280	26.414
0.9240	26.628
0.9200	26.628
0.9160	26.804
0.9120	26.716
0.9080	27.065
0.9040	26.911
0.9000	26.970
0.8960	27.292
0.8920	27.292
0.8880	27.439
0.8840	27.508
0.8800	27.753
0.8760	28.018
0.8720	28.127
0.8680	28.215
0.8640	28.345
0.8600	28.825
0.8560	28.893
0.8520	29.160
0.8480	29.359
0.8440	29.405
0.8400	29.696
0.8360	30.006
0.8320	30.096
0.8280	30.473
0.8240	30.694
0.8200	31.114
0.8160	31.552
0.8120	31.724
0.8080	32.116
0.8040	32.285
0.8000	32.493
0.7990	33.134
0.7980	33.134
0.7970	32.930
0.7960	33.234
0.7950	33.612
0.7940	33.421
0.7930	33.287
0.7920	33.434
0.7910	33.444
0.7900	33.674
0.7890	33.707
0.7880	33.861
0.7870	33.769
0.7860	33.890
0.7850	33.990
0.7840	33.836
0.7830	34.078
0.7820	34.274
0.7810	34.166
0.7800	33.974
0.7790	33.915
0.7780	33.957
0.7770	34.210
0.7760	34.215
0.7750	34.340
0.7740	34.372
0.7730	34.210
0.7720	34.302
0.7710	34.368
0.7700	34.487
0.7690	34.547
0.7680	34.481
0.7670	34.487
0.7660	34.643
0.7650	34.427
0.7640	34.641
0.7630	34.643
0.7620	34.487
0.7610	34.553
0.7600	34.649
0.7590	34.679
0.7580	34.858
0.7570	34.607
0.7560	34.487
0.7550	34.457
0.7540	34.240
0.7530	34.451
0.7520	34.703
0.7510	34.547
0.7500	34.581
0.7490	34.671
0.7480	34.523
0.7470	34.493
0.7460	34.553
0.7450	34.769
0.7440	34.800
0.7430	34.985
0.7420	34.583
0.7410	34.762
0.7400	34.637
0.7390	34.762
0.7380	34.553
0.7370	34.734
0.7360	34.884
0.7350	34.607
0.7340	34.607
0.7330	34.523
0.7320	34.427
0.7310	34.737
0.7300	34.828
0.7290	34.547
0.7280	34.889
0.7270	34.881
0.7260	34.788
0.7250	34.637
0.7240	34.696
0.7230	34.788
0.7220	34.727
0.7210	34.534
0.7200	34.347
0.7190	34.258
0.7180	34.379
0.7170	34.288
0.7160	34.545
0.7150	34.474
0.7140	34.288
0.7130	34.348
0.7120	34.443
0.7110	34.401
0.7100	34.178
0.7090	34.126
0.7080	34.096
0.7070	34.500
0.7060	34.311
0.7050	34.498
0.7040	34.341
0.7030	34.492
0.7020	34.326
0.7010	34.583
0.7000	34.552
0.6990	34.292
0.6980	34.309
0.6970	34.420
0.6960	34.427
0.6950	34.638
0.6940	34.638
0.6930	34.638
0.6920	34.408
0.6910	34.413
0.6900	34.413
0.6890	34.711
0.6880	34.737
0.6870	34.315
0.6860	34.507
0.6850	34.309
0.6840	34.285
0.6830	34.482
0.6820	34.449
0.6810	34.216
0.6800	34.449
0.6790	34.288
0.6780	34.190
0.6770	34.116
0.6760	34.277
0.6750	34.408
0.6740	34.433
0.6730	34.433
0.6720	34.407
0.6710	34.408
0.6700	34.376
0.6690	34.376
0.6680	33.819
0.6670	33.781
0.6660	33.719
0.6650	33.757
0.6640	34.072
0.6630	34.233
0.6620	34.071
0.6610	33.972
0.6600	33.873
0.6590	33.911
0.6580	34.010
0.6570	33.911
0.6560	33.621
0.6550	33.513
0.6540	33.513
0.6530	33.522
0.6520	33.735
0.6510	33.927
0.6500	34.065
0.6490	33.873
0.6480	33.812
0.6470	33.910
0.6460	33.842
0.6450	33.842
0.6440	33.842
0.6430	33.414
0.6420	33.323
0.6410	33.574
0.6400	33.574
0.6390	33.666
0.6380	33.635
0.6370	33.414
0.6360	33.275
0.6350	33.345
0.6340	33.314
0.6330	33.414
0.6320	33.345
0.6310	33.383
0.6300	33.444
0.6290	33.366
0.6280	33.375
0.6270	33.566
0.6260	33.627
0.6250	33.627
0.6240	33.566
0.6230	33.596
0.6220	33.527
0.6210	33.497
0.6200	33.497
0.6190	33.427
0.6180	33.519
0.6170	33.257
0.6160	33.227
0.6150	33.167
0.6140	33.097
0.6130	32.937
0.6120	32.837
0.6110	32.897
0.6100	33.027
0.6090	33.148
0.6080	33.157
0.6070	33.027
0.6060	33.057
0.6050	32.957
0.6040	32.917
0.6030	32.947
0.6020	32.947
0.6010	32.746
0.6000	32.594
0.5990	32.321
0.5980	32.785
0.5970	32.846
0.5960	32.846
0.5950	32.907
0.5940	32.835
0.5930	32.602
0.5920	32.896
0.5910	32.998
0.5900	32.896
0.5890	32.723
0.5880	32.896
0.5870	32.693
0.5860	32.529
0.5850	32.439
0.5840	32.896
0.5830	32.753
0.5820	32.500
0.5810	32.237
0.5800	32.220
0.5790	32.452
0.5780	32.422
0.5770	32.351
0.5760	32.339
0.5750	32.237
0.5740	32.148
0.5730	32.215
0.5720	32.468
0.5710	32.468
0.5700	32.339
0.5690	32.040
0.5680	31.853
0.5670	32.027
0.5660	32.244
0.5650	32.043
0.5640	31.956
0.5630	32.244
0.5620	32.073
0.5610	32.001
0.5600	31.816
0.5590	31.773
0.5580	31.773
0.5570	31.935
0.5560	31.758
0.5550	31.470
0.5540	31.470
0.5530	31.429
0.5520	31.259
0.5510	31.215
0.5500	31.562
0.5490	31.768
0.5480	31.733
0.5470	31.862
0.5460	31.694
0.5450	31.570
0.5440	31.579
0.5430	31.579
0.5420	31.581
0.5410	31.659
0.5400	31.360
0.5390	31.537
0.5380	31.517
0.5370	31.162
0.5360	31.384
0.5350	31.517
0.5340	31.447
0.5330	31.447
0.5320	31.271
0.5310	31.056
0.5300	31.082
0.5290	31.303
0.5280	31.377
0.5270	31.245
0.5260	30.952
0.5250	30.983
0.5240	31.126
0.5230	31.093
0.5220	31.115
0.5210	31.115
0.5200	30.918
0.5190	30.924
0.5180	30.924
0.5170	30.828
0.5160	30.782
0.5150	30.735
0.5140	30.607
0.5130	30.658
0.5120	30.390
0.5110	30.460
0.5100	30.191
0.5090	30.241
0.5080	30.123
0.5070	30.100
0.5060	30.076
0.5050	29.973
0.5040	30.126
0.5030	30.101
0.5020	30.050
0.5010	30.053
0.5000	30.076
0.4990	29.880
0.4980	29.585
0.4970	29.806
0.4960	29.757
0.4950	29.661
0.4940	29.321
0.4930	29.464
0.4920	29.439
0.4910	29.341
0.4900	29.416
0.4890	29.296
0.4880	29.416
0.4870	29.392
0.4860	29.097
0.4850	29.002
0.4840	29.002
0.4830	29.097
0.4820	28.881
0.4810	28.904
0.4800	28.832
0.4790	28.807
0.4780	28.804
0.4770	28.683
0.4760	28.683
0.4750	28.490
0.4740	28.513
0.4730	28.439
0.4720	28.492
0.4710	28.394
0.4700	28.394
0.4690	28.197
0.4680	28.150
0.4670	28.122
0.4660	28.025
0.4650	28.146
0.4640	28.049
0.4630	28.003
0.4620	27.936
0.4610	27.936
0.4600	27.666
0.4590	28.744
0.4580	28.705
0.4570	28.465
0.4560	28.388
0.4550	28.211
0.4540	27.889
0.4530	27.911
0.4520	27.999
0.4510	27.999
0.4500	28.167
0.4490	27.955
0.4480	27.943
0.4470	27.864
0.4460	27.625
0.4450	27.589
0.4440	27.572
0.4430	27.797
0.4420	27.870
0.4410	27.545
0.4400	27.524
0.4390	27.401
0.4380	27.566
0.4370	27.469
0.4360	27.469
0.4350	27.554
0.4340	27.387
0.4330	27.548
0.4320	27.327
0.4310	27.144
0.4300	27.061
0.4290	27.182
0.4280	26.771
0.4270	26.791
0.4260	26.812
0.4250	26.978
0.4240	26.566
0.4230	26.832
0.4220	26.481
0.4210	26.377
0.4200	26.211
0.4190	26.214
0.4180	26.318
0.4170	26.194
0.4160	26.262
0.4150	26.095
0.4140	25.956
0.4130	26.031
0.4120	26.013
0.4110	25.818
0.4100	25.854
0.4090	25.550
0.4080	25.550
0.4070	25.520
0.4060	25.371
0.4050	25.437
0.4040	25.287
0.4030	24.963
0.4020	25.203
0.4010	24.827
0.4000	24.479
