Name: Gabbro
Type: Rocks
Class: Igneous
Subclass: Mafic
Particle Size: 0-75 micrometers
Sample No.: Gabbro.H1
Owner: JHU
Wavelength range: All
Origin: from Escondido, San Diego County, California, via Ward's 
Scientific (Cat. No. W-28)
Description: Sample from which the powder was derived is a dark gray 
medium-grained rock composed of plagioclase, a mafic mineral and minor 
opaques.



Measurement: Directional (10 degree) hemispherical reflectance
First Column: X
Second Column: Y
X Units: Wavelength (micrometers)
Y Units: Reflectance (percent)
First X Value: 14.0112
Last X Value: 0.4000
Number of X Values: 2844
Additional information: gabbro1a.txt

14.011	1.3725
13.973	3.3300
13.936	1.9650
13.899	0.5343
13.861	1.5375
13.824	2.9100
13.788	2.6981
13.751	2.2969
13.715	1.9059
13.679	1.2759
13.643	1.1747
13.607	1.6650
13.571	1.3575
13.536	1.2938
13.500	2.6119
13.465	2.8621
13.430	1.6491
13.396	0.7800
13.361	0.6543
13.327	0.6060
13.293	2.0166
13.259	2.1459
13.225	1.5112
13.191	1.5924
13.158	1.7836
13.124	1.5994
13.091	1.3880
13.058	1.7213
13.026	1.7901
12.993	1.5979
12.960	1.4503
12.928	1.6659
12.896	1.8246
12.864	1.9528
12.832	2.1171
12.800	1.9200
12.769	1.6650
12.737	1.8462
12.706	1.9231
12.675	2.3149
12.644	2.7304
12.614	2.8540
12.583	2.9702
12.552	3.0133
12.522	3.0689
12.492	3.2124
12.462	3.3951
12.432	3.7795
12.402	4.0673
12.373	4.3364
12.343	4.4646
12.314	4.7137
12.285	4.8776
12.256	4.9655
12.227	5.0390
12.198	5.0414
12.169	5.1236
12.141	5.1857
12.113	4.9828
12.084	4.9641
12.056	5.0771
12.028	5.0095
12.000	4.8829
11.973	4.8799
11.945	4.8698
11.918	4.7953
11.890	4.6982
11.863	4.6730
11.836	4.6390
11.809	4.5686
11.782	4.4867
11.755	4.3945
11.729	4.3535
11.702	4.1906
11.676	4.1473
11.650	4.2267
11.624	4.2972
11.598	4.2516
11.572	4.1852
11.546	4.0244
11.520	3.9319
11.495	3.9668
11.469	3.9037
11.444	3.7694
11.419	3.7460
11.394	3.7549
11.369	3.7308
11.344	3.5751
11.319	3.4577
11.294	3.4259
11.270	3.3766
11.245	3.2667
11.221	3.2343
11.197	3.1549
11.173	3.0750
11.149	3.1114
11.125	3.1345
11.101	3.0325
11.077	3.0443
11.054	3.0738
11.030	3.1125
11.007	3.0660
10.983	3.0112
10.960	3.0169
10.937	3.0010
10.914	2.9018
10.891	2.9545
10.868	3.0832
10.846	3.0115
10.823	2.9091
10.800	2.9353
10.778	2.9845
10.755	2.9271
10.733	2.9008
10.711	2.9660
10.689	2.9997
10.667	2.9995
10.645	3.0325
10.623	3.0712
10.602	3.0851
10.580	3.1141
10.558	3.0670
10.537	3.1359
10.516	3.2426
10.494	3.2508
10.473	3.2301
10.452	3.2299
10.431	3.2653
10.410	3.2665
10.389	3.1940
10.368	3.1956
10.348	3.2252
10.327	3.2364
10.306	3.2039
10.286	3.2229
10.266	3.1704
10.245	3.1475
10.225	3.1735
10.205	3.1408
10.185	3.1223
10.165	3.1889
10.145	3.2102
10.125	3.1709
10.106	3.1174
10.086	3.0876
10.066	3.1143
10.047	3.1169
10.027	3.0898
10.008	3.0586
9.9887	3.0623
9.9695	3.0302
9.9504	2.9672
9.9313	2.9296
9.9123	2.8449
9.8934	2.8125
9.8746	2.8462
9.8558	2.7579
9.8371	2.6322
9.8185	2.5969
9.7999	2.6210
9.7814	2.5985
9.7630	2.5932
9.7447	2.6311
9.7264	2.6384
9.7082	2.5901
9.6900	2.4628
9.6719	2.4431
9.6539	2.5141
9.6360	2.5083
9.6181	2.4668
9.6003	2.4729
9.5825	2.4902
9.5649	2.4497
9.5472	2.4572
9.5297	2.4548
9.5122	2.4595
9.4948	2.4841
9.4774	2.4468
9.4601	2.4086
9.4429	2.4110
9.4257	2.4703
9.4086	2.4761
9.3916	2.4727
9.3746	2.4499
9.3577	2.4886
9.3408	2.4841
9.3240	2.4480
9.3073	2.4673
9.2906	2.4841
9.2740	2.4520
9.2574	2.4206
9.2409	2.3888
9.2245	2.3351
9.2081	2.3578
9.1918	2.4839
9.1755	2.4208
9.1593	2.2839
9.1431	2.2462
9.1270	2.2906
9.1110	2.3346
9.0950	2.2764
9.0791	2.2357
9.0632	2.2413
9.0474	2.3041
9.0316	2.4089
9.0159	2.4208
9.0003	2.4251
8.9847	2.4180
8.9691	2.3613
8.9536	2.3437
8.9382	2.3873
8.9228	2.3532
8.9075	2.3252
8.8922	2.4262
8.8770	2.5076
8.8618	2.5026
8.8467	2.4925
8.8316	2.5223
8.8166	2.5572
8.8016	2.5540
8.7867	2.5732
8.7718	2.6719
8.7570	2.6561
8.7422	2.5995
8.7275	2.6353
8.7129	2.6618
8.6982	2.6557
8.6837	2.6585
8.6692	2.6140
8.6547	2.5530
8.6403	2.4729
8.6259	2.4286
8.6116	2.4070
8.5973	2.3775
8.5830	2.3728
8.5688	2.3436
8.5547	2.3112
8.5406	2.3341
8.5266	2.3168
8.5126	2.2709
8.4986	2.2641
8.4847	2.3100
8.4708	2.3151
8.4570	2.3215
8.4432	2.3501
8.4295	2.3644
8.4158	2.3963
8.4022	2.4244
8.3886	2.4410
8.3750	2.4727
8.3615	2.4872
8.3481	2.4808
8.3347	2.5441
8.3213	2.5781
8.3079	2.6046
8.2946	2.6145
8.2814	2.6034
8.2682	2.6151
8.2550	2.6238
8.2419	2.5717
8.2288	2.5284
8.2158	2.5282
8.2028	2.5333
8.1898	2.4855
8.1769	2.4891
8.1640	2.5135
8.1512	2.4984
8.1384	2.4537
8.1256	2.4441
8.1129	2.4682
8.1002	2.5207
8.0876	2.5273
8.0750	2.5284
8.0624	2.5350
8.0499	2.5556
8.0374	2.5990
8.0250	2.6179
8.0126	2.6553
8.0002	2.6597
7.9879	2.6651
7.9756	2.7761
7.9634	2.8263
7.9512	2.8600
7.9390	2.9124
7.9268	2.9702
7.9147	3.0060
7.9027	3.0494
7.8906	3.1218
7.8786	3.1929
7.8667	3.2393
7.8548	3.2423
7.8429	3.2963
7.8310	3.3916
7.8192	3.4650
7.8075	3.5086
7.7957	3.5604
7.7840	3.6286
7.7723	3.7062
7.7607	3.7561
7.7491	3.8426
7.7375	3.9377
7.7260	4.0101
7.7145	4.0955
7.7031	4.1561
7.6916	4.2468
7.6802	4.3202
7.6689	4.3659
7.6575	4.4463
7.6462	4.5351
7.6350	4.5921
7.6238	4.6572
7.6126	4.7527
7.6014	4.8349
7.5903	4.8907
7.5792	4.9359
7.5681	5.0245
7.5571	5.1007
7.5461	5.1234
7.5351	5.2000
7.5242	5.2889
7.5133	5.3271
7.5024	5.3700
7.4916	5.4553
7.4807	5.5462
7.4700	5.6163
7.4592	5.6405
7.4485	5.6834
7.4378	5.7792
7.4272	5.8690
7.4165	5.9460
7.4059	6.0153
7.3954	6.0637
7.3848	6.1500
7.3743	6.2657
7.3639	6.3467
7.3534	6.4083
7.3430	6.4908
7.3326	6.5428
7.3223	6.6138
7.3119	6.7249
7.3016	6.8028
7.2914	6.8941
7.2811	6.9748
7.2709	7.0371
7.2607	7.1002
7.2506	7.1597
7.2404	7.2537
7.2303	7.3530
7.2203	7.4363
7.2102	7.4820
7.2002	7.5206
7.1902	7.6176
7.1803	7.6919
7.1703	7.7456
7.1604	7.8093
7.1506	7.8852
7.1407	7.9446
7.1309	7.9980
7.1211	8.0510
7.1113	8.1103
7.1016	8.1752
7.0919	8.2408
7.0822	8.2535
7.0725	8.2812
7.0629	8.3597
7.0533	8.4228
7.0437	8.5090
7.0341	8.5659
7.0246	8.5870
7.0151	8.6413
7.0056	8.7096
6.9962	8.7590
6.9867	8.7874
6.9773	8.8385
6.9679	8.9311
6.9586	9.0054
6.9493	9.0072
6.9400	9.0677
6.9307	9.1408
6.9214	9.1812
6.9122	9.1805
6.9030	9.1877
6.8938	9.2470
6.8847	9.2829
6.8755	9.3047
6.8664	9.3537
6.8573	9.3881
6.8483	9.3794
6.8393	9.4364
6.8302	9.4865
6.8213	9.5004
6.8123	9.4600
6.8034	9.4390
6.7944	9.5254
6.7855	9.5894
6.7767	9.5545
6.7678	9.5585
6.7590	9.6228
6.7502	9.6443
6.7414	9.6616
6.7327	9.6979
6.7239	9.7207
6.7152	9.7603
6.7065	9.7641
6.6979	9.7810
6.6892	9.8418
6.6806	9.9072
6.6720	9.9234
6.6634	9.9789
6.6549	10.042
6.6464	10.092
6.6378	10.188
6.6294	10.207
6.6209	10.200
6.6124	10.216
6.6040	10.262
6.5956	10.308
6.5872	10.350
6.5789	10.374
6.5705	10.413
6.5622	10.423
6.5539	10.446
6.5456	10.464
6.5374	10.455
6.5292	10.469
6.5209	10.532
6.5128	10.578
6.5046	10.656
6.4964	10.739
6.4883	10.738
6.4802	10.732
6.4721	10.733
6.4640	10.723
6.4560	10.708
6.4480	10.735
6.4399	10.772
6.4320	10.782
6.4240	10.817
6.4160	10.915
6.4081	10.900
6.4002	10.790
6.3923	10.771
6.3844	10.791
6.3766	10.806
6.3687	10.781
6.3609	10.675
6.3531	10.634
6.3454	10.649
6.3376	10.559
6.3299	10.489
6.3221	10.456
6.3144	10.459
6.3068	10.436
6.2991	10.368
6.2914	10.339
6.2838	10.302
6.2762	10.252
6.2686	10.229
6.2611	10.241
6.2535	10.223
6.2460	10.172
6.2385	10.131
6.2310	10.143
6.2235	10.151
6.2160	10.121
6.2086	10.101
6.2011	10.094
6.1937	10.056
6.1863	10.075
6.1790	10.051
6.1716	10.009
6.1643	10.064
6.1570	10.107
6.1496	10.068
6.1424	10.045
6.1351	10.082
6.1278	10.132
6.1206	10.130
6.1134	10.133
6.1062	10.148
6.0990	10.171
6.0918	10.195
6.0847	10.216
6.0776	10.295
6.0704	10.394
6.0633	10.427
6.0563	10.467
6.0492	10.563
6.0421	10.580
6.0351	10.573
6.0281	10.619
6.0211	10.696
6.0141	10.777
6.0071	10.783
6.0002	10.817
5.9932	10.955
5.9863	11.027
5.9794	11.054
5.9725	11.074
5.9657	11.128
5.9588	11.155
5.9520	11.212
5.9451	11.335
5.9383	11.478
5.9315	11.547
5.9247	11.594
5.9180	11.653
5.9112	11.743
5.9045	11.874
5.8978	12.007
5.8911	12.143
5.8844	12.255
5.8777	12.347
5.8711	12.362
5.8644	12.473
5.8578	12.622
5.8512	12.708
5.8446	12.770
5.8380	12.844
5.8314	12.944
5.8249	13.087
5.8184	13.143
5.8118	13.142
5.8053	13.234
5.7988	13.343
5.7923	13.393
5.7859	13.430
5.7794	13.516
5.7730	13.643
5.7666	13.760
5.7602	13.795
5.7538	13.791
5.7474	13.851
5.7410	13.909
5.7347	13.932
5.7283	13.996
5.7220	14.057
5.7157	14.074
5.7094	14.123
5.7031	14.116
5.6969	14.137
5.6906	14.202
5.6844	14.228
5.6782	14.221
5.6719	14.227
5.6657	14.249
5.6596	14.307
5.6534	14.337
5.6472	14.407
5.6411	14.469
5.6349	14.483
5.6288	14.507
5.6227	14.539
5.6166	14.557
5.6106	14.578
5.6045	14.654
5.5984	14.711
5.5924	14.757
5.5864	14.823
5.5804	14.873
5.5744	14.904
5.5684	14.954
5.5624	15.025
5.5564	15.069
5.5505	15.088
5.5445	15.136
5.5386	15.185
5.5327	15.211
5.5268	15.232
5.5209	15.214
5.5151	15.231
5.5092	15.264
5.5033	15.271
5.4975	15.279
5.4917	15.315
5.4859	15.337
5.4801	15.365
5.4743	15.408
5.4685	15.433
5.4628	15.457
5.4570	15.493
5.4513	15.529
5.4455	15.588
5.4398	15.634
5.4341	15.682
5.4284	15.728
5.4228	15.773
5.4171	15.798
5.4114	15.769
5.4058	15.755
5.4002	15.776
5.3945	15.781
5.3889	15.805
5.3833	15.847
5.3778	15.859
5.3722	15.849
5.3666	15.859
5.3611	15.892
5.3555	15.924
5.3500	15.971
5.3445	15.996
5.3390	16.045
5.3335	16.113
5.3280	16.170
5.3225	16.231
5.3171	16.289
5.3116	16.352
5.3062	16.386
5.3008	16.437
5.2954	16.543
5.2900	16.626
5.2846	16.631
5.2792	16.646
5.2738	16.724
5.2684	16.819
5.2631	16.892
5.2578	16.985
5.2524	17.103
5.2471	17.211
5.2418	17.313
5.2365	17.398
5.2312	17.490
5.2260	17.583
5.2207	17.634
5.2154	17.697
5.2102	17.767
5.2050	17.810
5.1998	17.856
5.1945	17.883
5.1893	17.897
5.1842	17.930
5.1790	17.926
5.1738	17.944
5.1686	17.998
5.1635	18.020
5.1584	18.042
5.1532	18.101
5.1481	18.108
5.1430	18.128
5.1379	18.176
5.1328	18.230
5.1277	18.274
5.1227	18.323
5.1176	18.359
5.1126	18.446
5.1075	18.506
5.1025	18.518
5.0975	18.525
5.0925	18.568
5.0875	18.637
5.0825	18.685
5.0775	18.745
5.0726	18.793
5.0676	18.838
5.0627	18.908
5.0577	18.961
5.0528	19.015
5.0479	19.112
5.0430	19.208
5.0380	19.247
5.0332	19.316
5.0283	19.402
5.0234	19.449
5.0185	19.489
5.0137	19.552
5.0088	19.624
5.0040	19.682
4.9992	19.749
4.9944	19.830
4.9896	19.876
4.9848	19.920
4.9800	20.018
4.9752	20.119
4.9704	20.188
4.9657	20.213
4.9609	20.293
4.9562	20.363
4.9514	20.407
4.9467	20.466
4.9420	20.541
4.9373	20.628
4.9326	20.678
4.9279	20.697
4.9232	20.783
4.9186	20.880
4.9139	20.923
4.9092	20.983
4.9046	21.072
4.9000	21.128
4.8953	21.164
4.8907	21.214
4.8861	21.285
4.8815	21.349
4.8769	21.419
4.8723	21.479
4.8678	21.468
4.8632	21.510
4.8586	21.567
4.8541	21.604
4.8495	21.634
4.8450	21.737
4.8405	21.868
4.8360	21.812
4.8315	21.756
4.8270	21.858
4.8225	21.947
4.8180	21.990
4.8135	22.002
4.8090	22.044
4.8046	22.065
4.8001	22.084
4.7957	22.156
4.7913	22.246
4.7868	22.297
4.7824	22.345
4.7780	22.403
4.7736	22.461
4.7692	22.509
4.7648	22.588
4.7605	22.640
4.7561	22.699
4.7517	22.738
4.7474	22.774
4.7431	22.828
4.7387	22.893
4.7344	22.940
4.7301	22.999
4.7258	23.057
4.7215	23.087
4.7172	23.157
4.7129	23.245
4.7086	23.277
4.7043	23.314
4.7000	23.369
4.6958	23.399
4.6915	23.440
4.6873	23.492
4.6831	23.535
4.6788	23.622
4.6746	23.687
4.6704	23.745
4.6662	23.768
4.6620	23.789
4.6578	23.828
4.6536	23.897
4.6495	23.970
4.6453	24.022
4.6411	24.088
4.6370	24.148
4.6328	24.175
4.6287	24.200
4.6246	24.240
4.6205	24.272
4.6163	24.337
4.6122	24.411
4.6081	24.477
4.6040	24.500
4.6000	24.539
4.5959	24.594
4.5918	24.629
4.5877	24.676
4.5837	24.722
4.5796	24.756
4.5756	24.794
4.5716	24.847
4.5675	24.883
4.5635	24.937
4.5595	24.989
4.5555	25.076
4.5515	25.108
4.5475	25.089
4.5435	25.115
4.5395	25.215
4.5356	25.253
4.5316	25.191
4.5276	25.201
4.5237	25.267
4.5197	25.301
4.5158	25.340
4.5119	25.363
4.5080	25.359
4.5040	25.384
4.5001	25.437
4.4962	25.452
4.4923	25.468
4.4884	25.473
4.4846	25.476
4.4807	25.514
4.4768	25.553
4.4730	25.553
4.4691	25.591
4.4652	25.627
4.4614	25.620
4.4576	25.612
4.4537	25.624
4.4499	25.681
4.4461	25.727
4.4423	25.725
4.4385	25.719
4.4347	25.737
4.4309	25.781
4.4271	25.805
4.4233	25.802
4.4196	25.820
4.4158	25.861
4.4120	25.887
4.4083	25.902
4.4045	25.900
4.4008	25.900
4.3971	25.923
4.3934	25.979
4.3896	25.988
4.3859	26.003
4.3822	26.036
4.3785	26.027
4.3748	26.026
4.3711	26.063
4.3674	26.081
4.3638	26.107
4.3601	26.141
4.3564	26.167
4.3528	26.192
4.3491	26.193
4.3455	26.183
4.3418	26.201
4.3382	26.246
4.3346	26.248
4.3310	26.225
4.3273	26.244
4.3237	26.273
4.3201	26.312
4.3165	26.336
4.3129	26.354
4.3094	26.344
4.3058	26.347
4.3022	26.329
4.2986	26.310
4.2951	26.356
4.2915	26.398
4.2880	26.426
4.2844	26.405
4.2809	26.418
4.2774	26.427
4.2738	26.423
4.2703	26.443
4.2668	26.497
4.2633	26.547
4.2598	26.607
4.2563	26.664
4.2528	26.654
4.2493	26.593
4.2458	26.552
4.2424	26.558
4.2389	26.577
4.2354	26.575
4.2320	26.568
4.2285	26.593
4.2251	26.665
4.2216	26.704
4.2182	26.696
4.2148	26.727
4.2113	26.759
4.2079	26.786
4.2045	26.830
4.2011	26.823
4.1977	26.853
4.1943	26.886
4.1909	26.887
4.1875	26.905
4.1841	26.922
4.1808	26.881
4.1774	26.852
4.1740	26.911
4.1707	26.962
4.1673	26.980
4.1640	27.001
4.1606	27.031
4.1573	27.012
4.1540	27.007
4.1506	27.014
4.1473	27.067
4.1440	27.053
4.1407	27.005
4.1374	27.027
4.1341	27.070
4.1308	27.097
4.1275	27.085
4.1242	27.068
4.1209	27.080
4.1177	27.068
4.1144	27.084
4.1111	27.083
4.1079	27.061
4.1046	27.087
4.1014	27.116
4.0981	27.116
4.0949	27.111
4.0917	27.135
4.0884	27.154
4.0852	27.140
4.0820	27.129
4.0788	27.141
4.0756	27.163
4.0724	27.173
4.0692	27.174
4.0660	27.175
4.0628	27.181
4.0596	27.215
4.0565	27.212
4.0533	27.167
4.0501	27.172
4.0470	27.212
4.0438	27.215
4.0406	27.191
4.0375	27.236
4.0344	27.256
4.0312	27.241
4.0281	27.196
4.0250	27.209
4.0218	27.233
4.0187	27.230
4.0156	27.227
4.0125	27.233
4.0094	27.239
4.0063	27.253
4.0032	27.260
4.0001	27.277
3.9970	27.254
3.9940	27.237
3.9909	27.279
3.9878	27.289
3.9847	27.270
3.9817	27.258
3.9786	27.247
3.9756	27.257
3.9725	27.270
3.9695	27.266
3.9665	27.277
3.9634	27.281
3.9604	27.250
3.9574	27.244
3.9544	27.287
3.9513	27.342
3.9483	27.307
3.9453	27.293
3.9423	27.341
3.9393	27.367
3.9363	27.349
3.9333	27.356
3.9304	27.383
3.9274	27.381
3.9244	27.370
3.9214	27.364
3.9185	27.365
3.9155	27.372
3.9126	27.354
3.9096	27.366
3.9067	27.343
3.9037	27.344
3.9008	27.372
3.8979	27.361
3.8949	27.381
3.8920	27.401
3.8891	27.415
3.8862	27.432
3.8833	27.445
3.8804	27.389
3.8775	27.369
3.8746	27.386
3.8717	27.402
3.8688	27.427
3.8659	27.400
3.8630	27.450
3.8601	27.486
3.8573	27.431
3.8544	27.381
3.8515	27.395
3.8487	27.423
3.8458	27.456
3.8430	27.437
3.8401	27.408
3.8373	27.414
3.8344	27.458
3.8316	27.450
3.8288	27.441
3.8259	27.441
3.8231	27.409
3.8203	27.393
3.8175	27.415
3.8147	27.455
3.8119	27.464
3.8091	27.422
3.8063	27.411
3.8035	27.440
3.8007	27.449
3.7979	27.491
3.7951	27.503
3.7924	27.437
3.7896	27.436
3.7868	27.451
3.7841	27.452
3.7813	27.509
3.7785	27.512
3.7758	27.455
3.7730	27.449
3.7703	27.461
3.7676	27.446
3.7648	27.459
3.7621	27.436
3.7594	27.435
3.7566	27.455
3.7539	27.430
3.7512	27.426
3.7485	27.439
3.7458	27.440
3.7431	27.434
3.7404	27.431
3.7377	27.427
3.7350	27.430
3.7323	27.431
3.7296	27.432
3.7269	27.443
3.7242	27.413
3.7216	27.386
3.7189	27.421
3.7162	27.442
3.7136	27.410
3.7109	27.396
3.7083	27.388
3.7056	27.347
3.7030	27.344
3.7003	27.368
3.6977	27.380
3.6950	27.372
3.6924	27.396
3.6898	27.399
3.6872	27.377
3.6845	27.397
3.6819	27.405
3.6793	27.370
3.6767	27.380
3.6741	27.380
3.6715	27.371
3.6689	27.334
3.6663	27.326
3.6637	27.362
3.6611	27.378
3.6585	27.353
3.6560	27.365
3.6534	27.368
3.6508	27.347
3.6482	27.341
3.6457	27.329
3.6431	27.321
3.6406	27.360
3.6380	27.341
3.6355	27.318
3.6329	27.327
3.6304	27.356
3.6278	27.305
3.6253	27.293
3.6227	27.297
3.6202	27.284
3.6177	27.275
3.6152	27.265
3.6127	27.292
3.6101	27.304
3.6076	27.245
3.6051	27.234
3.6026	27.270
3.6001	27.277
3.5976	27.300
3.5951	27.335
3.5926	27.300
3.5901	27.271
3.5876	27.245
3.5852	27.267
3.5827	27.286
3.5802	27.258
3.5777	27.227
3.5753	27.243
3.5728	27.252
3.5704	27.250
3.5679	27.237
3.5654	27.196
3.5630	27.192
3.5605	27.227
3.5581	27.203
3.5557	27.187
3.5532	27.209
3.5508	27.247
3.5484	27.212
3.5459	27.196
3.5435	27.220
3.5411	27.256
3.5387	27.238
3.5363	27.222
3.5338	27.197
3.5314	27.169
3.5290	27.187
3.5266	27.184
3.5242	27.190
3.5218	27.174
3.5195	27.143
3.5171	27.153
3.5147	27.198
3.5123	27.220
3.5099	27.196
3.5075	27.168
3.5052	27.133
3.5028	27.127
3.5004	27.132
3.4981	27.097
3.4957	27.055
3.4934	27.054
3.4910	27.058
3.4887	27.038
3.4863	27.020
3.4840	27.003
3.4816	27.015
3.4793	27.033
3.4770	27.055
3.4746	27.026
3.4723	26.969
3.4700	26.949
3.4677	26.951
3.4653	26.969
3.4630	26.918
3.4607	26.900
3.4584	26.914
3.4561	26.935
3.4538	26.937
3.4515	26.927
3.4492	26.931
3.4469	26.901
3.4446	26.862
3.4423	26.879
3.4400	26.912
3.4378	26.896
3.4355	26.876
3.4332	26.848
3.4309	26.843
3.4287	26.857
3.4264	26.837
3.4241	26.798
3.4219	26.792
3.4196	26.825
3.4174	26.776
3.4151	26.683
3.4129	26.679
3.4106	26.674
3.4084	26.665
3.4061	26.635
3.4039	26.599
3.4017	26.588
3.3994	26.587
3.3972	26.550
3.3950	26.505
3.3928	26.516
3.3906	26.525
3.3883	26.476
3.3861	26.424
3.3839	26.437
3.3817	26.432
3.3795	26.401
3.3773	26.398
3.3751	26.368
3.3729	26.359
3.3707	26.349
3.3685	26.326
3.3663	26.261
3.3641	26.233
3.3620	26.200
3.3598	26.150
3.3576	26.114
3.3554	26.092
3.3533	26.100
3.3511	26.109
3.3489	26.081
3.3468	26.046
3.3446	26.021
3.3425	25.951
3.3403	25.919
3.3382	25.957
3.3360	25.957
3.3339	25.939
3.3317	25.887
3.3296	25.870
3.3274	25.854
3.3253	25.801
3.3232	25.778
3.3210	25.779
3.3189	25.770
3.3168	25.739
3.3147	25.768
3.3126	25.772
3.3104	25.696
3.3083	25.649
3.3062	25.626
3.3041	25.586
3.3020	25.610
3.2999	25.605
3.2978	25.582
3.2957	25.562
3.2936	25.535
3.2915	25.520
3.2894	25.486
3.2874	25.438
3.2853	25.433
3.2832	25.425
3.2811	25.364
3.2790	25.348
3.2770	25.295
3.2749	25.271
3.2728	25.275
3.2708	25.259
3.2687	25.226
3.2666	25.175
3.2646	25.164
3.2625	25.108
3.2605	25.032
3.2584	24.988
3.2564	25.012
3.2543	24.995
3.2523	24.900
3.2503	24.854
3.2482	24.819
3.2462	24.771
3.2442	24.748
3.2421	24.701
3.2401	24.636
3.2381	24.578
3.2361	24.507
3.2340	24.465
3.2320	24.408
3.2300	24.328
3.2280	24.325
3.2260	24.319
3.2240	24.224
3.2220	24.138
3.2200	24.076
3.2180	24.079
3.2160	24.012
3.2140	23.947
3.2120	23.906
3.2100	23.806
3.2080	23.721
3.2060	23.702
3.2040	23.644
3.2021	23.536
3.2001	23.467
3.1981	23.459
3.1961	23.426
3.1942	23.379
3.1922	23.328
3.1902	23.282
3.1883	23.239
3.1863	23.202
3.1844	23.197
3.1824	23.167
3.1805	23.074
3.1785	22.964
3.1766	22.945
3.1746	22.913
3.1727	22.846
3.1707	22.816
3.1688	22.740
3.1669	22.731
3.1649	22.705
3.1630	22.657
3.1611	22.605
3.1591	22.551
3.1572	22.503
3.1553	22.396
3.1534	22.364
3.1515	22.381
3.1495	22.339
3.1476	22.344
3.1457	22.348
3.1438	22.339
3.1419	22.254
3.1400	22.181
3.1381	22.129
3.1362	22.076
3.1343	22.079
3.1324	22.071
3.1305	22.036
3.1286	21.978
3.1268	21.894
3.1249	21.811
3.1230	21.755
3.1211	21.787
3.1192	21.810
3.1174	21.732
3.1155	21.650
3.1136	21.635
3.1117	21.655
3.1099	21.625
3.1080	21.546
3.1061	21.456
3.1043	21.429
3.1024	21.447
3.1006	21.446
3.0987	21.413
3.0969	21.414
3.0950	21.378
3.0932	21.333
3.0913	21.291
3.0895	21.287
3.0876	21.267
3.0858	21.246
3.0840	21.213
3.0821	21.151
3.0803	21.092
3.0785	21.074
3.0766	21.078
3.0748	21.140
3.0730	21.176
3.0712	21.161
3.0694	21.112
3.0675	21.103
3.0657	21.065
3.0639	21.053
3.0621	21.011
3.0603	20.963
3.0585	21.060
3.0567	21.145
3.0549	21.075
3.0531	20.979
3.0513	20.968
3.0495	21.003
3.0477	21.056
3.0459	21.031
3.0441	20.971
3.0423	20.995
3.0406	21.011
3.0388	20.998
3.0370	20.990
3.0352	20.945
3.0334	20.892
3.0317	20.908
3.0299	20.937
3.0281	20.925
3.0264	20.911
3.0246	20.827
3.0228	20.824
3.0211	20.854
3.0193	20.832
3.0176	20.781
3.0158	20.772
3.0140	20.768
3.0123	20.773
3.0105	20.768
3.0088	20.722
3.0070	20.764
3.0053	20.744
3.0036	20.653
3.0018	20.663
3.0001	20.666
2.9984	20.638
2.9966	20.557
2.9949	20.494
2.9932	20.501
2.9914	20.463
2.9897	20.456
2.9880	20.470
2.9863	20.447
2.9845	20.381
2.9828	20.370
2.9811	20.394
2.9794	20.347
2.9777	20.284
2.9760	20.303
2.9743	20.299
2.9726	20.294
2.9709	20.293
2.9692	20.204
2.9675	20.173
2.9658	20.125
2.9641	20.077
2.9624	20.046
2.9607	20.065
2.9590	20.098
2.9573	20.043
2.9556	20.045
2.9539	20.042
2.9523	20.005
2.9506	20.046
2.9489	20.008
2.9472	19.979
2.9455	20.019
2.9439	20.005
2.9422	19.996
2.9405	20.012
2.9389	20.024
2.9372	19.992
2.9355	19.972
2.9339	19.993
2.9322	19.967
2.9306	19.960
2.9289	19.979
2.9272	19.977
2.9256	19.949
2.9239	19.953
2.9223	19.987
2.9207	19.994
2.9190	19.994
2.9174	20.031
2.9157	20.004
2.9141	20.050
2.9124	20.046
2.9108	20.070
2.9092	20.120
2.9075	20.095
2.9059	20.091
2.9043	20.060
2.9027	20.035
2.9010	20.131
2.8994	20.162
2.8978	20.156
2.8962	20.103
2.8946	20.122
2.8929	20.233
2.8913	20.217
2.8897	20.110
2.8881	20.224
2.8865	20.319
2.8849	20.365
2.8833	20.396
2.8817	20.303
2.8801	20.310
2.8785	20.324
2.8769	20.327
2.8753	20.355
2.8737	20.381
2.8721	20.346
2.8705	20.331
2.8689	20.361
2.8673	20.406
2.8658	20.495
2.8642	20.530
2.8626	20.478
2.8610	20.461
2.8594	20.490
2.8579	20.497
2.8563	20.488
2.8547	20.520
2.8531	20.531
2.8516	20.579
2.8500	20.668
2.8484	20.662
2.8469	20.644
2.8453	20.716
2.8437	20.720
2.8422	20.733
2.8406	20.799
2.8391	20.824
2.8375	20.799
2.8360	20.725
2.8344	20.725
2.8329	20.796
2.8313	20.785
2.8298	20.768
2.8282	20.860
2.8267	20.832
2.8252	20.879
2.8236	20.913
2.8221	20.929
2.8205	20.922
2.8190	20.931
2.8175	20.947
2.8159	20.958
2.8144	20.954
2.8129	20.943
2.8114	20.988
2.8098	21.059
2.8083	21.061
2.8068	21.117
2.8053	21.180
2.8038	21.214
2.8022	21.224
2.8007	21.239
2.7992	21.267
2.7977	21.283
2.7962	21.304
2.7947	21.343
2.7932	21.289
2.7917	21.260
2.7902	21.291
2.7887	21.215
2.7872	21.209
2.7857	21.210
2.7842	21.163
2.7827	21.078
2.7812	20.888
2.7797	20.712
2.7782	20.550
2.7767	20.360
2.7752	20.237
2.7738	20.187
2.7723	20.084
2.7708	19.909
2.7693	19.747
2.7678	19.624
2.7664	19.414
2.7649	19.237
2.7634	19.047
2.7619	18.799
2.7605	18.631
2.7590	18.502
2.7575	18.551
2.7561	18.691
2.7546	18.624
2.7531	18.476
2.7517	18.330
2.7502	18.118
2.7488	17.858
2.7473	17.561
2.7458	17.218
2.7444	17.060
2.7429	17.355
2.7415	17.888
2.7400	18.238
2.7386	18.192
2.7371	17.721
2.7357	17.120
2.7343	16.613
2.7328	16.381
2.7314	16.612
2.7299	17.507
2.7285	18.681
2.7271	19.072
2.7256	18.713
2.7242	18.050
2.7228	17.298
2.7213	17.321
2.7199	19.037
2.7185	21.394
2.7171	22.827
2.7156	23.341
2.7142	23.508
2.7128	23.656
2.7114	23.838
2.7100	23.914
2.7085	23.960
2.7071	24.070
2.7057	24.149
2.7043	24.281
2.7029	24.398
2.7015	24.507
2.7001	24.669
2.6987	24.779
2.6973	24.855
2.6959	25.012
2.6945	25.174
2.6931	25.382
2.6917	25.588
2.6903	25.804
2.6889	25.986
2.6875	26.152
2.6861	26.345
2.6847	26.469
2.6833	26.556
2.6819	26.706
2.6805	26.795
2.6791	26.946
2.6778	27.100
2.6764	27.076
2.6750	27.057
2.6736	27.070
2.6722	27.128
2.6709	27.270
2.6695	27.294
2.6681	27.155
2.6667	27.212
2.6654	27.303
2.6640	27.319
2.6626	27.275
2.6613	27.233
2.6599	27.188
2.6585	27.139
2.6572	27.146
2.6558	27.226
2.6545	27.224
2.6531	27.184
2.6517	27.228
2.6504	27.223
2.6490	27.206
2.6477	27.156
2.6463	27.143
2.6450	27.234
2.6436	27.210
2.6423	27.219
2.6409	27.250
2.6396	27.239
2.6382	27.240
2.6369	27.263
2.6356	27.303
2.6342	27.285
2.6329	27.270
2.6315	27.308
2.6302	27.414
2.6289	27.325
2.6275	27.260
2.6262	27.275
2.6249	27.256
2.6236	27.220
2.6222	27.187
2.6209	27.295
2.6196	27.315
2.6183	27.275
2.6169	27.335
2.6156	27.299
2.6143	27.259
2.6130	27.330
2.6117	27.319
2.6103	27.227
2.6090	27.204
2.6077	27.239
2.6064	27.339
2.6051	27.447
2.6038	27.397
2.6025	27.286
2.6012	27.206
2.5999	27.152
2.5986	27.139
2.5973	27.125
2.5960	27.215
2.5947	27.389
2.5934	27.310
2.5921	27.198
2.5908	27.274
2.5895	27.253
2.5882	27.220
2.5869	27.272
2.5856	27.251
2.5843	27.311
2.5830	27.352
2.5817	27.232
2.5805	27.172
2.5792	27.150
2.5779	27.172
2.5766	27.225
2.5753	27.186
2.5741	27.102
2.5728	27.133
2.5715	27.076
2.5702	27.100
2.5690	27.239
2.5677	27.206
2.5664	27.160
2.5651	27.131
2.5639	27.138
2.5626	27.252
2.5613	27.257
2.5601	27.164
2.5588	27.159
2.5575	27.246
2.5563	27.261
2.5550	27.240
2.5538	27.199
2.5525	27.100
2.5513	27.125
2.5500	27.129
2.5487	27.176
2.5475	27.158
2.5462	27.136
2.5450	27.117
2.5437	27.108
2.5425	27.150
2.5413	27.137
2.5400	27.185
2.5388	27.201
2.5375	27.125
2.5363	27.119
2.5350	27.088
2.5338	27.113
2.5326	27.162
2.5313	27.128
2.5301	27.181
2.5289	27.224
2.5276	27.216
2.5264	27.198
2.5252	27.131
2.5239	27.041
2.5227	27.034
2.5215	27.061
2.5202	27.069
2.5190	27.056
2.5178	27.134
2.5166	27.168
2.5154	27.090
2.5141	27.073
2.5129	27.126
2.5117	27.093
2.5105	27.083
2.5093	27.240
2.5081	27.273
2.5068	27.163
2.5056	27.152
2.5044	27.193
2.5032	27.119
2.5020	27.050
2.5008	27.079
2.4996	27.145
2.4984	27.139
2.4972	27.105
2.4960	27.092
2.4948	27.093
2.4936	27.156
2.4924	27.191
2.4912	27.197
2.4900	27.147
2.4888	27.113
2.4876	27.146
2.4864	27.142
2.4852	27.174
2.4840	27.231
2.4828	27.223
2.4816	27.177
2.4805	27.149
2.4793	27.113
2.4781	27.080
2.4769	27.139
2.4757	27.090
2.4745	27.032
2.4734	27.066
2.4722	27.110
2.4710	27.128
2.4698	27.111
2.4686	27.135
2.4675	27.122
2.4663	27.124
2.4651	27.143
2.4640	27.152
2.4628	27.163
2.4616	27.187
2.4604	27.215
2.4593	27.254
2.4581	27.243
2.4569	27.192
2.4558	27.170
2.4546	27.125
2.4535	27.063
2.4523	27.093
2.4511	27.175
2.4500	27.253
2.4488	27.226
2.4477	27.216
2.4465	27.223
2.4454	27.183
2.4442	27.206
2.4431	27.172
2.4419	27.056
2.4408	27.105
2.4396	27.180
2.4385	27.156
2.4373	27.215
2.4362	27.281
2.4350	27.259
2.4339	27.193
2.4327	27.149
2.4316	27.102
2.4305	27.160
2.4293	27.173
2.4282	27.131
2.4270	27.055
2.4259	27.083
2.4248	27.033
2.4236	26.970
2.4225	26.971
2.4214	27.071
2.4202	27.184
2.4191	27.184
2.4180	27.070
2.4169	27.057
2.4157	27.041
2.4146	27.060
2.4135	27.123
2.4124	27.151
2.4112	27.045
2.4101	26.955
2.4090	26.997
2.4079	26.951
2.4068	26.845
2.4056	26.899
2.4045	26.896
2.4034	26.882
2.4023	26.986
2.4012	27.073
2.4001	27.058
2.3990	27.011
2.3979	26.934
2.3967	26.887
2.3956	26.849
2.3945	26.868
2.3934	26.965
2.3923	26.976
2.3912	26.936
2.3901	26.924
2.3890	26.976
2.3879	26.976
2.3868	26.801
2.3857	26.875
2.3846	26.947
2.3835	27.001
2.3824	27.127
2.3813	27.099
2.3802	27.031
2.3791	27.000
2.3781	27.002
2.3770	27.091
2.3759	27.184
2.3748	27.212
2.3737	27.176
2.3726	27.204
2.3715	27.187
2.3704	27.085
2.3694	27.157
2.3683	27.164
2.3672	27.113
2.3661	27.108
2.3650	27.107
2.3640	27.107
2.3629	27.163
2.3618	27.192
2.3607	27.126
2.3597	27.127
2.3586	27.111
2.3575	27.104
2.3564	27.163
2.3554	27.240
2.3543	27.233
2.3532	27.164
2.3522	27.102
2.3511	27.085
2.3500	27.099
2.3490	27.093
2.3479	27.071
2.3468	27.066
2.3458	27.063
2.3447	27.133
2.3436	27.160
2.3426	27.021
2.3415	27.058
2.3405	27.080
2.3394	27.036
2.3384	26.978
2.3373	26.987
2.3363	26.971
2.3352	26.935
2.3342	27.000
2.3331	26.969
2.3321	26.867
2.3310	26.845
2.3300	26.813
2.3289	26.783
2.3279	26.790
2.3268	26.761
2.3258	26.879
2.3247	26.872
2.3237	26.769
2.3226	26.805
2.3216	26.855
2.3206	26.845
2.3195	26.759
2.3185	26.731
2.3175	26.730
2.3164	26.776
2.3154	26.860
2.3144	26.857
2.3133	26.837
2.3123	26.820
2.3113	26.788
2.3102	26.789
2.3092	26.826
2.3082	26.854
2.3071	26.885
2.3061	26.905
2.3051	26.913
2.3041	26.967
2.3030	26.956
2.3020	26.917
2.3010	26.871
2.3000	26.932
2.2990	26.926
2.2979	26.909
2.2969	26.889
2.2959	26.947
2.2949	26.984
2.2939	27.003
2.2929	27.118
2.2918	27.197
2.2908	27.221
2.2898	27.145
2.2888	27.157
2.2878	27.281
2.2868	27.228
2.2858	27.149
2.2848	27.272
2.2838	27.402
2.2828	27.354
2.2818	27.366
2.2808	27.380
2.2798	27.351
2.2787	27.369
2.2777	27.535
2.2767	27.620
2.2757	27.493
2.2747	27.365
2.2738	27.409
2.2728	27.483
2.2718	27.473
2.2708	27.458
2.2698	27.519
2.2688	27.546
2.2678	27.468
2.2668	27.470
2.2658	27.558
2.2648	27.546
2.2638	27.553
2.2628	27.537
2.2618	27.494
2.2609	27.535
2.2599	27.596
2.2589	27.515
2.2579	27.416
2.2569	27.418
2.2559	27.466
2.2550	27.539
2.2540	27.531
2.2530	27.488
2.2520	27.422
2.2510	27.358
2.2501	27.460
2.2491	27.505
2.2481	27.422
2.2471	27.510
2.2462	27.524
2.2452	27.455
2.2442	27.417
2.2433	27.470
2.2423	27.491
2.2413	27.459
2.2403	27.620
2.2394	27.666
2.2384	27.604
2.2374	27.481
2.2365	27.411
2.2355	27.429
2.2345	27.484
2.2336	27.570
2.2326	27.577
2.2317	27.510
2.2307	27.549
2.2297	27.604
2.2288	27.651
2.2278	27.613
2.2269	27.440
2.2259	27.524
2.2250	27.665
2.2240	27.586
2.2231	27.514
2.2221	27.573
2.2211	27.619
2.2202	27.593
2.2192	27.596
2.2183	27.576
2.2173	27.560
2.2164	27.569
2.2155	27.490
2.2145	27.546
2.2136	27.599
2.2126	27.533
2.2117	27.570
2.2107	27.643
2.2098	27.627
2.2088	27.602
2.2079	27.570
2.2070	27.530
2.2060	27.602
2.2051	27.678
2.2041	27.670
2.2032	27.498
2.2023	27.500
2.2013	27.582
2.2004	27.576
2.1995	27.547
2.1985	27.504
2.1976	27.524
2.1967	27.582
2.1957	27.616
2.1948	27.632
2.1939	27.600
2.1930	27.606
2.1920	27.624
2.1911	27.603
2.1902	27.684
2.1893	27.643
2.1883	27.681
2.1874	27.732
2.1865	27.672
2.1856	27.656
2.1846	27.651
2.1837	27.605
2.1828	27.617
2.1819	27.653
2.1810	27.613
2.1800	27.549
2.1791	27.632
2.1782	27.708
2.1773	27.688
2.1764	27.664
2.1755	27.673
2.1746	27.644
2.1736	27.628
2.1727	27.601
2.1718	27.639
2.1709	27.704
2.1700	27.799
2.1691	27.768
2.1682	27.650
2.1673	27.649
2.1664	27.638
2.1655	27.634
2.1646	27.751
2.1637	27.755
2.1628	27.654
2.1619	27.617
2.1610	27.659
2.1601	27.649
2.1592	27.686
2.1583	27.693
2.1574	27.657
2.1565	27.611
2.1556	27.681
2.1547	27.741
2.1538	27.667
2.1529	27.622
2.1520	27.671
2.1511	27.630
2.1502	27.585
2.1493	27.620
2.1484	27.686
2.1475	27.695
2.1466	27.690
2.1458	27.620
2.1449	27.616
2.1440	27.723
2.1431	27.729
2.1422	27.731
2.1413	27.777
2.1404	27.684
2.1396	27.684
2.1387	27.787
2.1378	27.738
2.1369	27.627
2.1360	27.606
2.1352	27.659
2.1343	27.723
2.1334	27.692
2.1325	27.630
2.1316	27.711
2.1308	27.757
2.1299	27.663
2.1290	27.581
2.1281	27.630
2.1273	27.767
2.1264	27.747
2.1255	27.717
2.1247	27.727
2.1238	27.643
2.1229	27.625
2.1220	27.672
2.1212	27.687
2.1203	27.764
2.1194	27.779
2.1186	27.709
2.1177	27.685
2.1168	27.658
2.1160	27.632
2.1151	27.668
2.1143	27.680
2.1134	27.717
2.1125	27.726
2.1117	27.748
2.1108	27.776
2.1100	27.747
2.1091	27.718
2.1082	27.681
2.1074	27.743
2.1065	27.831
2.1057	27.739
2.1048	27.670
2.1040	27.752
2.1031	27.774
2.1023	27.653
2.1014	27.668
2.1005	27.683
2.0997	27.675
2.0988	27.759
2.0980	27.810
2.0971	27.754
2.0963	27.662
2.0955	27.634
2.0946	27.780
2.0938	27.817
2.0929	27.823
2.0921	27.831
2.0912	27.806
2.0904	27.810
2.0895	27.747
2.0887	27.745
2.0879	27.793
2.0870	27.702
2.0862	27.648
2.0853	27.665
2.0845	27.694
2.0837	27.754
2.0828	27.699
2.0820	27.713
2.0812	27.789
2.0803	27.779
2.0795	27.793
2.0760	27.793
2.0720	27.774
2.0680	27.725
2.0640	27.817
2.0600	27.817
2.0560	28.126
2.0520	28.027
2.0480	27.695
2.0440	27.647
2.0400	27.855
2.0360	27.757
2.0320	27.526
2.0280	27.757
2.0240	27.434
2.0200	27.291
2.0160	27.382
2.0120	27.182
2.0080	27.382
2.0040	27.288
2.0000	27.335
1.9960	27.608
1.9920	27.517
1.9880	27.197
1.9840	26.943
1.9800	27.010
1.9760	27.252
1.9720	27.150
1.9680	27.013
1.9640	26.989
1.9600	26.989
1.9560	27.059
1.9520	27.244
1.9480	27.224
1.9440	27.251
1.9400	27.119
1.9360	27.043
1.9320	26.890
1.9280	26.800
1.9240	26.613
1.9200	26.475
1.9160	26.769
1.9120	27.046
1.9080	26.975
1.9040	26.956
1.9000	26.881
1.8960	27.053
1.8920	26.979
1.8880	27.045
1.8840	26.920
1.8800	27.045
1.8760	26.938
1.8720	26.969
1.8680	26.699
1.8640	26.849
1.8600	26.899
1.8560	26.802
1.8520	26.778
1.8480	27.045
1.8440	26.721
1.8400	26.789
1.8360	26.789
1.8320	26.943
1.8280	27.144
1.8240	27.052
1.8200	26.983
1.8160	26.739
1.8120	26.837
1.8080	26.848
1.8040	26.893
1.8000	26.716
1.7960	26.862
1.7920	26.872
1.7880	26.716
1.7840	26.651
1.7800	26.539
1.7760	26.452
1.7720	26.474
1.7680	26.474
1.7640	26.563
1.7600	26.586
1.7560	26.563
1.7520	26.586
1.7480	26.608
1.7440	26.541
1.7400	26.763
1.7360	26.943
1.7320	26.965
1.7280	26.876
1.7240	26.698
1.7200	26.698
1.7160	26.831
1.7120	26.586
1.7080	26.617
1.7040	26.651
1.7000	26.628
1.6960	26.628
1.6920	26.429
1.6880	26.651
1.6840	26.694
1.6800	26.672
1.6760	26.452
1.6720	26.474
1.6680	26.474
1.6640	26.452
1.6600	26.429
1.6560	26.330
1.6520	26.440
1.6480	26.440
1.6440	26.462
1.6400	26.396
1.6360	26.275
1.6320	26.286
1.6280	26.263
1.6240	26.253
1.6200	26.175
1.6160	26.131
1.6120	26.087
1.6080	26.219
1.6040	26.396
1.6000	26.396
1.5960	26.330
1.5920	26.307
1.5880	26.286
1.5840	26.198
1.5800	26.066
1.5760	26.175
1.5720	26.110
1.5680	26.022
1.5640	26.020
1.5600	26.154
1.5560	26.154
1.5520	26.043
1.5480	26.042
1.5440	26.130
1.5400	26.020
1.5360	25.955
1.5320	25.955
1.5280	26.042
1.5240	25.953
1.5200	25.932
1.5160	25.734
1.5120	25.670
1.5080	25.670
1.5040	25.579
1.5000	25.573
1.4960	25.319
1.4920	25.298
1.4880	25.256
1.4840	25.364
1.4800	25.308
1.4760	25.385
1.4720	25.385
1.4680	25.287
1.4640	25.267
1.4600	25.313
1.4560	25.375
1.4520	25.501
1.4480	25.611
1.4440	25.608
1.4400	25.583
1.4360	25.647
1.4320	25.558
1.4280	25.415
1.4240	25.394
1.4200	25.373
1.4160	25.238
1.4120	25.228
1.4080	25.181
1.4040	24.809
1.4000	24.844
1.3960	24.871
1.3920	24.809
1.3880	24.871
1.3840	24.912
1.3800	24.996
1.3760	24.933
1.3720	24.930
1.3680	24.926
1.3640	24.955
1.3600	24.812
1.3560	25.080
1.3520	24.946
1.3480	24.984
1.3440	25.011
1.3400	24.833
1.3360	24.807
1.3320	24.592
1.3280	24.486
1.3240	24.438
1.3200	24.558
1.3160	24.550
1.3120	24.240
1.3080	24.300
1.3040	24.319
1.3000	24.251
1.2960	24.271
1.2920	24.330
1.2880	24.213
1.2840	24.223
1.2800	24.035
1.2760	24.144
1.2720	24.155
1.2680	24.055
1.2640	23.917
1.2600	23.897
1.2560	24.006
1.2520	23.877
1.2480	23.866
1.2440	23.905
1.2400	23.984
1.2360	23.813
1.2320	23.498
1.2280	23.559
1.2240	23.796
1.2200	23.595
1.2160	23.653
1.2120	23.351
1.2080	23.345
1.2040	23.307
1.2000	23.200
1.1960	23.143
1.1920	23.047
1.1880	23.010
1.1840	22.973
1.1800	22.800
1.1760	22.936
1.1720	22.954
1.1680	22.800
1.1640	22.767
1.1600	22.715
1.1560	22.522
1.1520	22.736
1.1480	22.736
1.1440	22.675
1.1400	22.624
1.1360	22.734
1.1320	22.624
1.1280	22.553
1.1240	22.320
1.1200	22.356
1.1160	22.302
1.1120	22.284
1.1080	22.224
1.1040	22.153
1.1000	22.188
1.0960	22.046
1.0920	22.064
1.0880	21.851
1.0840	21.886
1.0800	21.719
1.0760	21.702
1.0720	21.756
1.0680	21.702
1.0640	21.582
1.0600	21.528
1.0560	21.439
1.0520	21.313
1.0480	21.296
1.0440	21.263
1.0400	21.091
1.0360	21.158
1.0320	21.136
1.0280	21.186
1.0240	21.254
1.0200	21.047
1.0160	20.976
1.0120	21.031
1.0080	21.047
1.0040	21.054
1.0000	20.971
0.9960	20.971
0.9920	21.003
0.9880	20.981
0.9840	20.782
0.9800	20.976
0.9760	20.860
0.9720	20.794
0.9680	20.844
0.9640	20.860
0.9600	20.811
0.9560	20.877
0.9520	20.772
0.9480	20.772
0.9440	20.772
0.9400	20.712
0.9360	20.834
0.9320	20.872
0.9280	20.718
0.9240	20.839
0.9200	20.839
0.9160	20.839
0.9120	20.839
0.9080	21.000
0.9040	20.856
0.9000	20.917
0.8960	20.967
0.8920	20.967
0.8880	21.017
0.8840	21.000
0.8800	21.157
0.8760	21.068
0.8720	21.174
0.8680	21.174
0.8640	21.119
0.8600	21.222
0.8560	21.205
0.8520	21.205
0.8480	21.222
0.8440	21.188
0.8400	21.136
0.8360	21.259
0.8320	21.191
0.8280	21.385
0.8240	21.351
0.8200	21.422
0.8160	21.441
0.8120	21.373
0.8080	21.426
0.8040	21.445
0.8000	21.343
0.7990	21.343
0.7980	21.343
0.7970	21.369
0.7960	21.443
0.7950	21.534
0.7940	21.630
0.7930	21.572
0.7920	21.382
0.7910	21.230
0.7900	21.193
0.7890	21.343
0.7880	21.285
0.7870	21.193
0.7860	21.207
0.7850	21.243
0.7840	21.302
0.7830	21.395
0.7820	21.303
0.7810	21.355
0.7800	21.355
0.7790	21.318
0.7780	21.189
0.7770	21.453
0.7760	21.171
0.7750	21.093
0.7740	21.243
0.7730	21.262
0.7720	21.354
0.7710	21.335
0.7700	21.314
0.7690	21.160
0.7680	21.178
0.7670	21.122
0.7660	21.160
0.7650	21.085
0.7640	21.191
0.7630	20.967
0.7620	20.930
0.7610	20.912
0.7600	20.912
0.7590	20.930
0.7580	21.171
0.7570	21.004
0.7560	21.026
0.7550	20.912
0.7540	20.706
0.7530	20.871
0.7520	21.004
0.7510	20.871
0.7500	20.701
0.7490	20.923
0.7480	20.702
0.7470	20.684
0.7460	20.720
0.7450	20.601
0.7440	20.619
0.7430	20.708
0.7420	20.547
0.7410	20.979
0.7400	20.637
0.7390	20.786
0.7380	20.433
0.7370	20.445
0.7360	20.667
0.7350	20.523
0.7340	20.523
0.7330	20.415
0.7320	20.511
0.7310	20.521
0.7300	20.575
0.7290	20.391
0.7280	20.708
0.7270	20.664
0.7260	20.667
0.7250	20.348
0.7240	20.612
0.7230	20.571
0.7220	20.534
0.7210	20.534
0.7200	20.479
0.7190	20.233
0.7180	20.247
0.7170	20.024
0.7160	20.233
0.7150	20.209
0.7140	20.024
0.7130	20.059
0.7120	20.191
0.7110	20.281
0.7100	20.130
0.7090	20.041
0.7080	19.928
0.7070	20.320
0.7060	20.227
0.7050	20.185
0.7040	20.052
0.7030	20.142
0.7020	20.254
0.7010	20.329
0.7000	20.311
0.6990	20.196
0.6980	20.126
0.6970	20.114
0.6960	20.060
0.6950	20.343
0.6940	20.244
0.6930	20.244
0.6920	20.225
0.6910	20.367
0.6900	20.268
0.6890	20.169
0.6880	20.243
0.6870	20.170
0.6860	20.224
0.6850	20.126
0.6840	20.151
0.6830	20.151
0.6820	20.328
0.6810	20.170
0.6800	20.229
0.6790	20.093
0.6780	20.093
0.6770	20.169
0.6760	20.206
0.6750	20.224
0.6740	20.399
0.6730	20.299
0.6720	20.323
0.6710	20.224
0.6700	20.107
0.6690	20.205
0.6680	19.872
0.6670	19.908
0.6660	20.168
0.6650	20.130
0.6640	19.963
0.6630	20.299
0.6620	20.261
0.6610	20.361
0.6600	20.162
0.6590	20.125
0.6580	19.926
0.6570	19.926
0.6560	19.673
0.6550	20.025
0.6540	20.025
0.6530	19.872
0.6520	20.100
0.6510	20.256
0.6500	20.318
0.6490	20.162
0.6480	20.125
0.6470	20.224
0.6460	20.044
0.6450	20.144
0.6440	20.243
0.6430	20.224
0.6420	20.168
0.6410	20.261
0.6400	20.261
0.6390	20.118
0.6380	20.299
0.6370	20.025
0.6360	20.062
0.6350	20.044
0.6340	20.025
0.6330	20.224
0.6320	20.243
0.6310	20.205
0.6300	20.044
0.6290	20.019
0.6280	20.062
0.6270	20.118
0.6260	20.156
0.6250	20.356
0.6240	20.118
0.6230	20.137
0.6220	20.356
0.6210	20.437
0.6200	20.437
0.6190	20.056
0.6180	20.213
0.6170	20.175
0.6160	20.356
0.6150	20.418
0.6140	20.337
0.6130	20.100
0.6120	20.000
0.6110	20.037
0.6100	20.056
0.6090	20.231
0.6080	20.175
0.6070	20.156
0.6060	20.175
0.6050	20.175
0.6040	20.213
0.6030	20.131
0.6020	20.231
0.6010	20.031
0.6000	20.125
0.5990	20.245
0.5980	20.283
0.5970	20.322
0.5960	20.220
0.5950	20.259
0.5940	20.379
0.5930	20.259
0.5920	20.214
0.5910	20.214
0.5900	20.113
0.5890	20.234
0.5880	20.418
0.5870	20.316
0.5860	20.174
0.5850	20.219
0.5840	20.316
0.5830	20.355
0.5820	20.259
0.5810	20.220
0.5800	20.144
0.5790	20.264
0.5780	20.144
0.5770	20.264
0.5760	20.322
0.5750	20.322
0.5740	20.365
0.5730	20.413
0.5720	20.418
0.5710	20.118
0.5700	20.000
0.5690	20.000
0.5680	19.944
0.5670	20.156
0.5660	20.231
0.5650	20.131
0.5640	20.075
0.5630	20.231
0.5620	20.150
0.5610	20.169
0.5600	20.245
0.5590	20.182
0.5580	19.646
0.5570	19.721
0.5560	19.668
0.5550	19.668
0.5540	19.480
0.5530	19.422
0.5520	19.339
0.5510	19.374
0.5500	19.572
0.5490	19.451
0.5480	19.557
0.5470	19.449
0.5460	19.466
0.5450	19.546
0.5440	19.617
0.5430	19.617
0.5420	19.424
0.5410	19.475
0.5400	19.309
0.5390	19.361
0.5380	19.511
0.5370	19.404
0.5360	19.422
0.5350	19.609
0.5340	19.432
0.5330	19.432
0.5320	19.283
0.5310	19.237
0.5300	19.254
0.5290	19.467
0.5280	19.353
0.5270	19.363
0.5260	19.266
0.5250	19.254
0.5240	19.316
0.5230	19.229
0.5220	19.082
0.5210	19.082
0.5200	19.177
0.5190	19.246
0.5180	19.051
0.5170	18.955
0.5160	18.989
0.5150	19.023
0.5140	19.133
0.5130	19.168
0.5120	18.989
0.5110	18.970
0.5100	18.823
0.5090	18.857
0.5080	18.649
0.5070	18.797
0.5060	18.847
0.5050	18.776
0.5040	18.783
0.5030	18.766
0.5020	18.666
0.5010	18.734
0.5000	18.847
0.4990	18.749
0.4980	18.585
0.4970	18.699
0.4960	18.568
0.4950	18.472
0.4940	18.278
0.4930	18.502
0.4920	18.454
0.4910	18.454
0.4900	18.407
0.4890	18.393
0.4880	18.505
0.4870	18.489
0.4860	18.458
0.4850	18.295
0.4840	18.393
0.4830	18.360
0.4820	18.377
0.4810	18.393
0.4800	18.019
0.4790	18.295
0.4780	18.066
0.4770	18.051
0.4760	17.953
0.4750	17.858
0.4740	18.070
0.4730	17.792
0.4720	17.958
0.4710	17.958
0.4700	17.958
0.4690	17.958
0.4680	18.023
0.4670	17.777
0.4660	17.680
0.4650	17.892
0.4640	17.795
0.4630	17.665
0.4620	17.425
0.4610	17.522
0.4600	17.539
0.4590	17.900
0.4580	17.806
0.4570	17.811
0.4560	17.925
0.4550	17.841
0.4540	17.626
0.4530	17.641
0.4520	17.700
0.4510	17.700
0.4500	17.845
0.4490	17.670
0.4480	17.830
0.4470	17.643
0.4460	17.584
0.4450	17.526
0.4440	17.480
0.4430	17.393
0.4420	17.507
0.4410	17.294
0.4400	17.382
0.4390	17.367
0.4380	17.308
0.4370	17.479
0.4360	17.479
0.4350	17.433
0.4340	17.288
0.4330	17.158
0.4320	17.213
0.4310	17.023
0.4300	17.137
0.4290	17.082
0.4280	16.875
0.4270	17.057
0.4260	16.902
0.4250	17.082
0.4240	16.874
0.4230	16.711
0.4220	16.543
0.4210	16.438
0.4200	16.463
0.4190	16.603
0.4180	16.707
0.4170	16.590
0.4160	16.503
0.4150	16.322
0.4140	16.298
0.4130	16.143
0.4120	16.334
0.4110	16.274
0.4100	16.297
0.4090	16.195
0.4080	16.195
0.4070	16.241
0.4060	15.971
0.4050	15.948
0.4040	15.982
0.4030	15.971
0.4020	15.891
0.4010	15.810
0.4000	15.576
