Name: Ijolite
Type: Rocks
Class: Igneous
Subclass: Ultramafic
Particle Size: 0-75 micrometers
Sample No.: Ijolite.H1
Owner: JHU
Wavelength range: All
Origin: from McClure Mountains, Colorado, via Ward's Scientific (Cat. No. 
W-19)
Description: The sample from which the powder was derived is a dark gray 
to black, medium- to coarse-grained rock composed of nepheline, biotite, a 
black mafic mineral and opaques.



Measurement: Directional (10 degree) hemispherical reflectance
First Column: X
Second Column: Y
X Units: Wavelength (micrometers)
Y Units: Reflectance (percent)
First X Value: 14.0112
Last X Value: 0.4000
Number of X Values: 2844
Additional information: ijolit1a.txt

14.011	2.3571
13.973	2.5423
13.936	2.7288
13.899	2.8366
13.861	2.6956
13.824	2.3437
13.788	2.0124
13.751	1.8347
13.715	1.7859
13.679	1.7876
13.643	1.8335
13.607	1.9085
13.571	1.9481
13.536	1.9496
13.500	1.9664
13.465	2.0062
13.430	2.0264
13.396	2.0098
13.361	2.0034
13.327	2.0051
13.293	2.0112
13.259	2.0317
13.225	2.0838
13.191	2.1429
13.158	2.1862
13.124	2.2289
13.091	2.2751
13.058	2.2982
13.026	2.3130
12.993	2.3519
12.960	2.4314
12.928	2.5374
12.896	2.6688
12.864	2.8143
12.832	2.9444
12.800	3.0347
12.769	3.0909
12.737	3.1333
12.706	3.1810
12.675	3.2364
12.644	3.2925
12.614	3.3431
12.583	3.4052
12.552	3.4880
12.522	3.5984
12.492	3.7286
12.462	3.8580
12.432	3.9727
12.402	4.0547
12.373	4.1039
12.343	4.1491
12.314	4.2052
12.285	4.2761
12.256	4.3556
12.227	4.4234
12.198	4.4894
12.169	4.5553
12.141	4.6064
12.113	4.6406
12.084	4.6540
12.056	4.6530
12.028	4.6436
12.000	4.6127
11.973	4.5776
11.945	4.5492
11.918	4.5084
11.890	4.4535
11.863	4.3964
11.836	4.3524
11.809	4.3252
11.782	4.3111
11.755	4.3172
11.729	4.3406
11.702	4.3579
11.676	4.3594
11.650	4.3491
11.624	4.3312
11.598	4.3096
11.572	4.2924
11.546	4.2844
11.520	4.2844
11.495	4.2715
11.469	4.2272
11.444	4.1585
11.419	4.0828
11.394	4.0130
11.369	3.9637
11.344	3.9445
11.319	3.9539
11.294	3.9670
11.270	3.9593
11.245	3.9281
11.221	3.8810
11.197	3.8234
11.173	3.7690
11.149	3.7296
11.125	3.7092
11.101	3.7005
11.077	3.6933
11.054	3.6790
11.030	3.6548
11.007	3.6232
10.983	3.5899
10.960	3.5553
10.937	3.5229
10.914	3.4943
10.891	3.4680
10.868	3.4390
10.846	3.4064
10.823	3.3759
10.800	3.3520
10.778	3.3321
10.755	3.3202
10.733	3.3127
10.711	3.3068
10.689	3.3010
10.667	3.2967
10.645	3.2932
10.623	3.2911
10.602	3.2904
10.580	3.2890
10.558	3.2794
10.537	3.2578
10.516	3.2243
10.494	3.1826
10.473	3.1371
10.452	3.0956
10.431	3.0652
10.410	3.0473
10.389	3.0347
10.368	3.0185
10.348	3.0047
10.327	2.9909
10.306	2.9707
10.286	2.9439
10.266	2.9117
10.245	2.8735
10.225	2.8221
10.205	2.7660
10.185	2.7330
10.165	2.7220
10.145	2.7267
10.125	2.7473
10.106	2.7828
10.086	2.8303
10.066	2.8847
10.047	2.9463
10.027	3.0174
10.008	3.0881
9.9887	3.1502
9.9695	3.2016
9.9504	3.2397
9.9313	3.2721
9.9123	3.3005
9.8934	3.3199
9.8746	3.3307
9.8558	3.3389
9.8371	3.3450
9.8185	3.3429
9.7999	3.3267
9.7814	3.3054
9.7630	3.2768
9.7447	3.2414
9.7264	3.2053
9.7082	3.1786
9.6900	3.1652
9.6719	3.1572
9.6539	3.1528
9.6360	3.1579
9.6181	3.1673
9.6003	3.1777
9.5825	3.1868
9.5649	3.2020
9.5472	3.2231
9.5297	3.2439
9.5122	3.2667
9.4948	3.2901
9.4774	3.3112
9.4601	3.3293
9.4429	3.3455
9.4257	3.3689
9.4086	3.3904
9.3916	3.4043
9.3746	3.4106
9.3577	3.4076
9.3408	3.4000
9.3240	3.3982
9.3073	3.4038
9.2906	3.4218
9.2740	3.4428
9.2574	3.4594
9.2409	3.4739
9.2245	3.4870
9.2081	3.5044
9.1918	3.5327
9.1755	3.5693
9.1593	3.6164
9.1431	3.6682
9.1270	3.7176
9.1110	3.7615
9.0950	3.7898
9.0791	3.7990
9.0632	3.7940
9.0474	3.7756
9.0316	3.7457
9.0159	3.7085
9.0003	3.6684
8.9847	3.6225
8.9691	3.5616
8.9536	3.4868
8.9382	3.4031
8.9228	3.3059
8.9075	3.1915
8.8922	3.0659
8.8770	2.9353
8.8618	2.7924
8.8467	2.6363
8.8316	2.4816
8.8166	2.3348
8.8016	2.1951
8.7867	2.0646
8.7718	1.9472
8.7570	1.8408
8.7423	1.7283
8.7275	1.6057
8.7129	1.4845
8.6982	1.3694
8.6837	1.2649
8.6692	1.1763
8.6547	1.1058
8.6403	1.0521
8.6259	1.0047
8.6116	0.9621
8.5973	0.9281
8.5830	0.9094
8.5688	0.9117
8.5547	0.9324
8.5406	0.9644
8.5266	1.0013
8.5126	1.0327
8.4986	1.0589
8.4847	1.0836
8.4708	1.1145
8.4570	1.1548
8.4432	1.2010
8.4295	1.2499
8.4158	1.2987
8.4022	1.3475
8.3886	1.4032
8.3750	1.4719
8.3615	1.5535
8.3481	1.6428
8.3347	1.7343
8.3213	1.8253
8.3079	1.9139
8.2946	2.0034
8.2814	2.0988
8.2682	2.2036
8.2550	2.3142
8.2419	2.4249
8.2288	2.5327
8.2158	2.6393
8.2028	2.7467
8.1898	2.8579
8.1769	2.9777
8.1640	3.1047
8.1512	3.2320
8.1384	3.3535
8.1256	3.4699
8.1129	3.5850
8.1002	3.7029
8.0876	3.8309
8.0750	3.9729
8.0624	4.1213
8.0499	4.2696
8.0374	4.4124
8.0250	4.5483
8.0126	4.6797
8.0002	4.8119
7.9879	4.9572
7.9756	5.1166
7.9634	5.2818
7.9512	5.4522
7.9390	5.6215
7.9268	5.7839
7.9147	5.9386
7.9027	6.0870
7.8906	6.2367
7.8786	6.3909
7.8667	6.5493
7.8548	6.7116
7.8429	6.8737
7.8310	7.0310
7.8192	7.1820
7.8075	7.3272
7.7957	7.4709
7.7840	7.6202
7.7723	7.7756
7.7607	7.9317
7.7491	8.0862
7.7375	8.2413
7.7260	8.3974
7.7145	8.5519
7.7031	8.7016
7.6916	8.8462
7.6802	8.9843
7.6689	9.1122
7.6575	9.2325
7.6462	9.3548
7.6350	9.4844
7.6238	9.6180
7.6126	9.7542
7.6014	9.8913
7.5903	10.026
7.5792	10.157
7.5681	10.285
7.5571	10.415
7.5461	10.545
7.5351	10.671
7.5242	10.791
7.5133	10.904
7.5024	11.005
7.4916	11.099
7.4807	11.193
7.4700	11.291
7.4592	11.391
7.4485	11.492
7.4378	11.595
7.4272	11.697
7.4165	11.792
7.4059	11.882
7.3954	11.967
7.3848	12.045
7.3743	12.111
7.3639	12.167
7.3534	12.214
7.3430	12.254
7.3326	12.285
7.3223	12.310
7.3119	12.331
7.3016	12.347
7.2914	12.356
7.2811	12.364
7.2709	12.373
7.2607	12.384
7.2506	12.395
7.2404	12.406
7.2303	12.420
7.2203	12.433
7.2102	12.440
7.2002	12.438
7.1902	12.426
7.1803	12.402
7.1703	12.369
7.1604	12.339
7.1506	12.325
7.1407	12.335
7.1309	12.362
7.1211	12.402
7.1113	12.448
7.1016	12.485
7.0919	12.504
7.0822	12.511
7.0725	12.512
7.0629	12.512
7.0533	12.518
7.0437	12.538
7.0341	12.576
7.0246	12.626
7.0151	12.685
7.0056	12.747
6.9962	12.808
6.9867	12.867
6.9773	12.925
6.9679	12.985
6.9586	13.043
6.9493	13.095
6.9400	13.136
6.9307	13.158
6.9214	13.161
6.9122	13.150
6.9030	13.128
6.8938	13.106
6.8847	13.094
6.8755	13.095
6.8664	13.105
6.8573	13.129
6.8483	13.165
6.8393	13.201
6.8302	13.226
6.8213	13.245
6.8123	13.262
6.8034	13.278
6.7944	13.290
6.7855	13.308
6.7767	13.333
6.7678	13.354
6.7590	13.363
6.7502	13.361
6.7414	13.351
6.7327	13.331
6.7239	13.303
6.7152	13.276
6.7065	13.257
6.6979	13.254
6.6892	13.267
6.6806	13.296
6.6720	13.342
6.6634	13.397
6.6549	13.458
6.6464	13.528
6.6378	13.612
6.6294	13.718
6.6209	13.836
6.6124	13.956
6.6040	14.072
6.5956	14.178
6.5872	14.276
6.5789	14.379
6.5705	14.492
6.5622	14.619
6.5539	14.754
6.5456	14.894
6.5374	15.031
6.5292	15.156
6.5209	15.268
6.5128	15.373
6.5046	15.472
6.4964	15.576
6.4883	15.696
6.4802	15.838
6.4721	15.996
6.4640	16.160
6.4560	16.311
6.4480	16.436
6.4399	16.534
6.4320	16.612
6.4240	16.681
6.4160	16.754
6.4081	16.844
6.4002	16.948
6.3923	17.049
6.3844	17.132
6.3766	17.191
6.3687	17.220
6.3609	17.228
6.3531	17.223
6.3454	17.220
6.3376	17.227
6.3299	17.236
6.3221	17.243
6.3144	17.246
6.3068	17.238
6.2991	17.225
6.2914	17.210
6.2838	17.198
6.2762	17.190
6.2686	17.186
6.2611	17.183
6.2535	17.179
6.2460	17.171
6.2385	17.164
6.2310	17.155
6.2235	17.140
6.2160	17.109
6.2086	17.053
6.2011	16.963
6.1937	16.839
6.1863	16.685
6.1790	16.507
6.1716	16.310
6.1643	16.100
6.1570	15.880
6.1496	15.658
6.1424	15.450
6.1351	15.277
6.1278	15.154
6.1206	15.093
6.1134	15.099
6.1062	15.167
6.0990	15.285
6.0918	15.432
6.0847	15.588
6.0776	15.735
6.0704	15.867
6.0633	15.992
6.0563	16.114
6.0492	16.245
6.0421	16.401
6.0351	16.581
6.0281	16.774
6.0211	16.975
6.0141	17.188
6.0071	17.415
6.0002	17.648
5.9932	17.890
5.9863	18.160
5.9794	18.452
5.9725	18.750
5.9657	19.047
5.9588	19.342
5.9520	19.627
5.9451	19.904
5.9383	20.177
5.9315	20.461
5.9247	20.752
5.9180	21.022
5.9112	21.263
5.9045	21.474
5.8978	21.653
5.8911	21.817
5.8844	21.977
5.8777	22.156
5.8711	22.362
5.8644	22.583
5.8578	22.809
5.8512	23.031
5.8446	23.240
5.8380	23.434
5.8314	23.618
5.8249	23.812
5.8184	24.034
5.8118	24.285
5.8053	24.549
5.7988	24.808
5.7923	25.045
5.7859	25.251
5.7794	25.431
5.7730	25.598
5.7666	25.774
5.7602	25.976
5.7538	26.195
5.7474	26.414
5.7410	26.623
5.7347	26.812
5.7283	26.979
5.7220	27.132
5.7157	27.287
5.7094	27.453
5.7031	27.627
5.6969	27.803
5.6906	27.974
5.6844	28.139
5.6782	28.294
5.6719	28.439
5.6657	28.572
5.6596	28.692
5.6534	28.805
5.6472	28.918
5.6411	29.034
5.6349	29.157
5.6288	29.282
5.6227	29.404
5.6166	29.503
5.6106	29.557
5.6045	29.567
5.5984	29.536
5.5924	29.472
5.5864	29.400
5.5804	29.352
5.5744	29.363
5.5684	29.445
5.5624	29.595
5.5564	29.811
5.5505	30.072
5.5445	30.345
5.5386	30.600
5.5327	30.821
5.5268	31.001
5.5209	31.146
5.5151	31.267
5.5092	31.378
5.5033	31.491
5.4975	31.603
5.4917	31.706
5.4859	31.794
5.4801	31.868
5.4743	31.934
5.4685	31.997
5.4628	32.064
5.4570	32.142
5.4513	32.220
5.4455	32.292
5.4398	32.352
5.4341	32.400
5.4284	32.440
5.4228	32.479
5.4171	32.530
5.4114	32.596
5.4058	32.672
5.4002	32.750
5.3945	32.819
5.3889	32.876
5.3833	32.921
5.3778	32.956
5.3722	32.984
5.3666	33.010
5.3611	33.036
5.3555	33.064
5.3500	33.095
5.3445	33.133
5.3390	33.175
5.3335	33.217
5.3280	33.254
5.3225	33.285
5.3171	33.307
5.3116	33.321
5.3062	33.332
5.3008	33.339
5.2954	33.346
5.2900	33.356
5.2846	33.373
5.2792	33.397
5.2738	33.425
5.2684	33.454
5.2631	33.475
5.2578	33.482
5.2524	33.473
5.2471	33.445
5.2418	33.398
5.2365	33.335
5.2312	33.256
5.2260	33.160
5.2207	33.046
5.2154	32.912
5.2102	32.767
5.2050	32.615
5.1998	32.459
5.1945	32.305
5.1893	32.157
5.1842	32.012
5.1790	31.868
5.1738	31.722
5.1686	31.572
5.1635	31.420
5.1584	31.260
5.1532	31.096
5.1481	30.935
5.1430	30.786
5.1379	30.653
5.1328	30.538
5.1277	30.442
5.1227	30.364
5.1176	30.298
5.1126	30.241
5.1075	30.194
5.1025	30.159
5.0975	30.137
5.0925	30.133
5.0875	30.152
5.0825	30.198
5.0775	30.271
5.0726	30.369
5.0676	30.493
5.0627	30.635
5.0577	30.791
5.0528	30.954
5.0479	31.112
5.0430	31.257
5.0380	31.384
5.0332	31.499
5.0283	31.612
5.0234	31.738
5.0185	31.882
5.0137	32.046
5.0088	32.215
5.0040	32.375
4.9992	32.516
4.9944	32.633
4.9896	32.736
4.9848	32.835
4.9800	32.934
4.9752	33.037
4.9704	33.140
4.9657	33.239
4.9609	33.326
4.9562	33.393
4.9514	33.445
4.9467	33.487
4.9420	33.520
4.9373	33.552
4.9326	33.589
4.9279	33.636
4.9232	33.690
4.9186	33.747
4.9139	33.807
4.9092	33.869
4.9046	33.934
4.9000	34.002
4.8953	34.078
4.8907	34.165
4.8861	34.267
4.8815	34.388
4.8769	34.534
4.8723	34.707
4.8678	34.905
4.8632	35.119
4.8586	35.337
4.8541	35.553
4.8495	35.762
4.8450	35.964
4.8405	36.163
4.8360	36.361
4.8315	36.558
4.8270	36.751
4.8225	36.939
4.8180	37.130
4.8135	37.328
4.8090	37.539
4.8046	37.766
4.8001	38.005
4.7957	38.245
4.7913	38.484
4.7868	38.720
4.7824	38.954
4.7780	39.188
4.7736	39.426
4.7692	39.673
4.7648	39.923
4.7605	40.176
4.7561	40.439
4.7517	40.711
4.7474	40.988
4.7431	41.261
4.7387	41.527
4.7344	41.783
4.7301	42.027
4.7258	42.266
4.7215	42.507
4.7172	42.746
4.7129	42.976
4.7086	43.193
4.7043	43.396
4.7000	43.591
4.6958	43.785
4.6915	43.987
4.6873	44.199
4.6831	44.412
4.6788	44.623
4.6746	44.827
4.6704	45.027
4.6662	45.227
4.6620	45.431
4.6578	45.649
4.6536	45.881
4.6495	46.122
4.6453	46.368
4.6411	46.615
4.6370	46.860
4.6328	47.102
4.6287	47.343
4.6246	47.589
4.6205	47.841
4.6163	48.094
4.6122	48.345
4.6081	48.592
4.6040	48.836
4.6000	49.073
4.5959	49.305
4.5918	49.531
4.5877	49.747
4.5837	49.953
4.5796	50.152
4.5756	50.349
4.5716	50.553
4.5675	50.766
4.5635	50.986
4.5595	51.204
4.5555	51.415
4.5515	51.618
4.5475	51.814
4.5435	52.005
4.5395	52.199
4.5356	52.395
4.5316	52.586
4.5276	52.765
4.5237	52.930
4.5197	53.080
4.5158	53.221
4.5119	53.351
4.5080	53.476
4.5040	53.597
4.5001	53.710
4.4962	53.817
4.4923	53.923
4.4884	54.028
4.4846	54.131
4.4807	54.230
4.4768	54.323
4.4730	54.409
4.4691	54.485
4.4652	54.554
4.4614	54.622
4.4576	54.689
4.4537	54.752
4.4499	54.816
4.4461	54.882
4.4423	54.947
4.4385	55.011
4.4347	55.072
4.4309	55.136
4.4271	55.199
4.4233	55.259
4.4196	55.321
4.4158	55.382
4.4120	55.438
4.4083	55.486
4.4045	55.528
4.4008	55.565
4.3971	55.597
4.3934	55.630
4.3896	55.667
4.3859	55.706
4.3822	55.746
4.3785	55.787
4.3748	55.828
4.3711	55.869
4.3674	55.909
4.3638	55.947
4.3601	55.982
4.3564	56.013
4.3528	56.040
4.3491	56.065
4.3455	56.095
4.3418	56.134
4.3382	56.183
4.3346	56.236
4.3310	56.291
4.3273	56.345
4.3237	56.394
4.3201	56.433
4.3165	56.462
4.3129	56.484
4.3094	56.501
4.3058	56.520
4.3022	56.543
4.2986	56.572
4.2951	56.602
4.2915	56.634
4.2880	56.665
4.2844	56.695
4.2809	56.726
4.2774	56.764
4.2738	56.805
4.2703	56.847
4.2668	56.890
4.2633	56.938
4.2598	56.987
4.2563	57.033
4.2528	57.071
4.2493	57.102
4.2458	57.124
4.2424	57.140
4.2389	57.154
4.2354	57.175
4.2320	57.207
4.2285	57.249
4.2251	57.301
4.2216	57.363
4.2182	57.429
4.2148	57.494
4.2113	57.551
4.2079	57.598
4.2045	57.637
4.2011	57.669
4.1977	57.697
4.1943	57.725
4.1909	57.750
4.1875	57.771
4.1841	57.790
4.1808	57.807
4.1774	57.826
4.1740	57.850
4.1707	57.879
4.1673	57.910
4.1640	57.936
4.1606	57.954
4.1573	57.966
4.1540	57.975
4.1506	57.985
4.1473	57.995
4.1440	58.011
4.1407	58.031
4.1374	58.052
4.1341	58.075
4.1308	58.102
4.1275	58.133
4.1242	58.160
4.1209	58.180
4.1177	58.196
4.1144	58.210
4.1111	58.222
4.1079	58.236
4.1046	58.254
4.1014	58.275
4.0981	58.292
4.0949	58.302
4.0917	58.308
4.0884	58.313
4.0852	58.315
4.0820	58.319
4.0788	58.324
4.0756	58.328
4.0724	58.331
4.0692	58.331
4.0660	58.330
4.0628	58.328
4.0596	58.326
4.0565	58.320
4.0533	58.309
4.0501	58.287
4.0470	58.253
4.0438	58.209
4.0406	58.159
4.0375	58.104
4.0344	58.049
4.0312	57.989
4.0281	57.925
4.0250	57.852
4.0218	57.765
4.0187	57.660
4.0156	57.530
4.0125	57.373
4.0094	57.188
4.0063	56.980
4.0032	56.762
4.0001	56.542
3.9970	56.329
3.9940	56.132
3.9909	55.966
3.9878	55.837
3.9847	55.750
3.9817	55.709
3.9786	55.712
3.9756	55.745
3.9725	55.803
3.9695	55.881
3.9665	55.978
3.9634	56.088
3.9604	56.213
3.9574	56.353
3.9544	56.502
3.9513	56.658
3.9483	56.820
3.9453	56.981
3.9423	57.130
3.9393	57.256
3.9363	57.354
3.9333	57.424
3.9304	57.467
3.9274	57.492
3.9244	57.513
3.9214	57.533
3.9185	57.552
3.9155	57.568
3.9126	57.579
3.9096	57.583
3.9067	57.580
3.9037	57.575
3.9008	57.569
3.8979	57.563
3.8949	57.556
3.8920	57.551
3.8891	57.546
3.8862	57.537
3.8833	57.524
3.8804	57.507
3.8775	57.487
3.8746	57.469
3.8717	57.455
3.8688	57.448
3.8659	57.445
3.8630	57.443
3.8601	57.439
3.8573	57.428
3.8544	57.412
3.8515	57.397
3.8487	57.382
3.8458	57.367
3.8430	57.354
3.8401	57.346
3.8373	57.345
3.8344	57.349
3.8316	57.360
3.8288	57.377
3.8259	57.394
3.8231	57.405
3.8203	57.413
3.8175	57.419
3.8147	57.429
3.8119	57.440
3.8091	57.450
3.8063	57.456
3.8035	57.456
3.8007	57.448
3.7979	57.431
3.7951	57.408
3.7924	57.381
3.7896	57.353
3.7868	57.320
3.7841	57.283
3.7813	57.246
3.7785	57.211
3.7758	57.174
3.7730	57.138
3.7703	57.105
3.7676	57.075
3.7648	57.039
3.7621	56.995
3.7594	56.947
3.7566	56.894
3.7539	56.836
3.7512	56.780
3.7485	56.731
3.7458	56.686
3.7431	56.641
3.7404	56.596
3.7377	56.553
3.7350	56.506
3.7323	56.452
3.7296	56.393
3.7269	56.328
3.7242	56.259
3.7216	56.188
3.7189	56.120
3.7162	56.058
3.7136	55.999
3.7109	55.943
3.7083	55.888
3.7056	55.833
3.7030	55.775
3.7003	55.711
3.6977	55.647
3.6950	55.586
3.6924	55.535
3.6898	55.493
3.6872	55.458
3.6845	55.423
3.6819	55.379
3.6793	55.318
3.6767	55.239
3.6741	55.150
3.6715	55.066
3.6689	54.992
3.6663	54.929
3.6637	54.876
3.6611	54.829
3.6585	54.780
3.6560	54.719
3.6534	54.649
3.6508	54.581
3.6482	54.514
3.6457	54.444
3.6431	54.375
3.6406	54.307
3.6380	54.239
3.6355	54.167
3.6329	54.092
3.6304	54.024
3.6278	53.962
3.6253	53.900
3.6227	53.836
3.6202	53.772
3.6177	53.709
3.6152	53.637
3.6127	53.553
3.6101	53.462
3.6076	53.364
3.6051	53.258
3.6026	53.152
3.6001	53.051
3.5976	52.959
3.5951	52.868
3.5926	52.776
3.5901	52.682
3.5876	52.585
3.5852	52.487
3.5827	52.392
3.5802	52.299
3.5777	52.212
3.5753	52.130
3.5728	52.054
3.5704	51.983
3.5679	51.915
3.5654	51.849
3.5630	51.781
3.5605	51.706
3.5581	51.625
3.5557	51.543
3.5532	51.464
3.5508	51.385
3.5484	51.305
3.5459	51.222
3.5435	51.127
3.5411	51.021
3.5387	50.909
3.5363	50.797
3.5338	50.681
3.5314	50.561
3.5290	50.432
3.5266	50.291
3.5242	50.131
3.5218	49.958
3.5195	49.788
3.5171	49.621
3.5147	49.455
3.5123	49.294
3.5099	49.138
3.5075	48.986
3.5052	48.840
3.5028	48.707
3.5004	48.600
3.4981	48.515
3.4957	48.444
3.4934	48.374
3.4910	48.299
3.4887	48.211
3.4863	48.110
3.4840	48.001
3.4816	47.903
3.4793	47.825
3.4770	47.766
3.4746	47.726
3.4723	47.706
3.4700	47.701
3.4677	47.700
3.4653	47.693
3.4630	47.674
3.4607	47.635
3.4584	47.575
3.4561	47.493
3.4538	47.403
3.4515	47.314
3.4492	47.229
3.4469	47.144
3.4446	47.057
3.4423	46.969
3.4400	46.876
3.4378	46.775
3.4355	46.672
3.4332	46.565
3.4309	46.449
3.4287	46.321
3.4264	46.187
3.4241	46.053
3.4219	45.922
3.4196	45.797
3.4174	45.687
3.4151	45.594
3.4129	45.518
3.4106	45.461
3.4084	45.419
3.4061	45.386
3.4039	45.353
3.4017	45.310
3.3994	45.257
3.3972	45.196
3.3950	45.131
3.3928	45.065
3.3906	44.994
3.3883	44.917
3.3861	44.832
3.3839	44.739
3.3817	44.641
3.3795	44.550
3.3773	44.473
3.3751	44.410
3.3729	44.354
3.3707	44.292
3.3685	44.226
3.3663	44.153
3.3641	44.076
3.3620	44.001
3.3598	43.932
3.3576	43.865
3.3554	43.793
3.3533	43.717
3.3511	43.649
3.3489	43.593
3.3468	43.552
3.3446	43.526
3.3425	43.510
3.3403	43.489
3.3382	43.460
3.3360	43.417
3.3339	43.362
3.3317	43.294
3.3296	43.214
3.3274	43.129
3.3253	43.039
3.3232	42.944
3.3210	42.848
3.3189	42.751
3.3168	42.656
3.3147	42.565
3.3126	42.477
3.3104	42.395
3.3083	42.313
3.3062	42.229
3.3041	42.141
3.3020	42.042
3.2999	41.937
3.2978	41.826
3.2957	41.709
3.2936	41.594
3.2915	41.485
3.2894	41.383
3.2874	41.291
3.2853	41.199
3.2832	41.104
3.2811	41.001
3.2790	40.886
3.2770	40.765
3.2749	40.647
3.2728	40.541
3.2708	40.450
3.2687	40.368
3.2666	40.289
3.2646	40.204
3.2625	40.107
3.2605	40.002
3.2584	39.894
3.2564	39.787
3.2543	39.687
3.2523	39.596
3.2503	39.511
3.2482	39.423
3.2462	39.327
3.2442	39.222
3.2421	39.104
3.2401	38.979
3.2381	38.859
3.2361	38.748
3.2340	38.647
3.2320	38.550
3.2300	38.456
3.2280	38.361
3.2260	38.260
3.2240	38.159
3.2220	38.063
3.2200	37.971
3.2180	37.880
3.2160	37.785
3.2140	37.690
3.2120	37.596
3.2100	37.498
3.2080	37.399
3.2060	37.305
3.2041	37.213
3.2021	37.120
3.2001	37.025
3.1981	36.932
3.1961	36.838
3.1942	36.740
3.1922	36.642
3.1902	36.546
3.1883	36.452
3.1863	36.361
3.1844	36.274
3.1824	36.190
3.1805	36.105
3.1785	36.012
3.1766	35.908
3.1746	35.791
3.1727	35.667
3.1707	35.543
3.1688	35.427
3.1669	35.328
3.1649	35.246
3.1630	35.171
3.1611	35.093
3.1591	35.006
3.1572	34.906
3.1553	34.792
3.1534	34.674
3.1515	34.564
3.1495	34.466
3.1476	34.377
3.1457	34.291
3.1438	34.204
3.1419	34.113
3.1400	34.020
3.1381	33.931
3.1362	33.851
3.1343	33.779
3.1324	33.710
3.1305	33.636
3.1286	33.552
3.1268	33.461
3.1249	33.369
3.1230	33.277
3.1211	33.184
3.1192	33.094
3.1174	33.008
3.1155	32.926
3.1136	32.844
3.1117	32.772
3.1099	32.713
3.1080	32.656
3.1061	32.593
3.1043	32.526
3.1024	32.452
3.1006	32.371
3.0987	32.285
3.0969	32.203
3.0950	32.131
3.0932	32.067
3.0913	32.013
3.0895	31.962
3.0876	31.908
3.0858	31.850
3.0840	31.786
3.0821	31.720
3.0803	31.651
3.0785	31.583
3.0766	31.517
3.0748	31.448
3.0730	31.376
3.0712	31.312
3.0694	31.262
3.0675	31.219
3.0657	31.172
3.0639	31.112
3.0621	31.038
3.0603	30.955
3.0585	30.870
3.0567	30.796
3.0549	30.734
3.0531	30.676
3.0513	30.618
3.0495	30.551
3.0477	30.475
3.0459	30.393
3.0441	30.314
3.0423	30.245
3.0406	30.181
3.0388	30.117
3.0370	30.059
3.0352	29.996
3.0334	29.918
3.0317	29.828
3.0299	29.743
3.0281	29.673
3.0264	29.608
3.0246	29.540
3.0228	29.471
3.0211	29.390
3.0193	29.288
3.0176	29.174
3.0158	29.069
3.0140	28.980
3.0123	28.900
3.0105	28.829
3.0088	28.772
3.0070	28.730
3.0053	28.691
3.0036	28.650
3.0018	28.616
3.0001	28.581
2.9984	28.533
2.9966	28.477
2.9949	28.423
2.9932	28.371
2.9914	28.315
2.9897	28.259
2.9880	28.211
2.9863	28.163
2.9845	28.103
2.9828	28.041
2.9811	27.983
2.9794	27.927
2.9777	27.872
2.9760	27.822
2.9743	27.780
2.9726	27.729
2.9709	27.664
2.9692	27.592
2.9675	27.517
2.9658	27.441
2.9641	27.369
2.9624	27.310
2.9607	27.266
2.9590	27.228
2.9573	27.188
2.9556	27.145
2.9539	27.090
2.9523	27.024
2.9506	26.954
2.9489	26.884
2.9472	26.815
2.9455	26.750
2.9439	26.688
2.9422	26.629
2.9405	26.572
2.9389	26.522
2.9372	26.480
2.9355	26.441
2.9339	26.397
2.9322	26.356
2.9306	26.315
2.9289	26.274
2.9272	26.231
2.9256	26.189
2.9239	26.152
2.9223	26.111
2.9207	26.060
2.9190	26.011
2.9174	25.961
2.9157	25.909
2.9141	25.856
2.9124	25.807
2.9108	25.769
2.9092	25.742
2.9075	25.728
2.9059	25.730
2.9043	25.737
2.9027	25.736
2.9010	25.716
2.8994	25.671
2.8978	25.612
2.8962	25.557
2.8946	25.518
2.8929	25.497
2.8913	25.494
2.8897	25.497
2.8881	25.486
2.8865	25.445
2.8849	25.384
2.8833	25.314
2.8817	25.240
2.8801	25.168
2.8785	25.108
2.8769	25.059
2.8753	25.011
2.8737	24.959
2.8721	24.910
2.8705	24.873
2.8689	24.850
2.8673	24.834
2.8658	24.829
2.8642	24.833
2.8626	24.832
2.8610	24.823
2.8594	24.816
2.8579	24.820
2.8563	24.833
2.8547	24.853
2.8531	24.882
2.8516	24.913
2.8500	24.933
2.8484	24.935
2.8469	24.913
2.8453	24.865
2.8437	24.789
2.8422	24.686
2.8406	24.566
2.8391	24.438
2.8375	24.317
2.8360	24.209
2.8344	24.108
2.8329	24.019
2.8313	23.943
2.8298	23.873
2.8282	23.808
2.8267	23.751
2.8252	23.712
2.8236	23.699
2.8221	23.706
2.8205	23.734
2.8190	23.786
2.8175	23.853
2.8159	23.924
2.8144	23.996
2.8129	24.072
2.8114	24.153
2.8098	24.232
2.8083	24.308
2.8068	24.390
2.8053	24.482
2.8038	24.579
2.8022	24.685
2.8007	24.801
2.7992	24.917
2.7977	25.029
2.7962	25.134
2.7947	25.232
2.7932	25.319
2.7917	25.396
2.7902	25.467
2.7887	25.533
2.7872	25.600
2.7857	25.674
2.7842	25.751
2.7827	25.826
2.7812	25.896
2.7797	25.964
2.7782	26.024
2.7767	26.068
2.7752	26.098
2.7738	26.115
2.7723	26.114
2.7708	26.096
2.7693	26.073
2.7678	26.052
2.7664	26.025
2.7649	25.995
2.7634	25.967
2.7619	25.940
2.7605	25.908
2.7590	25.872
2.7575	25.843
2.7561	25.822
2.7546	25.810
2.7531	25.826
2.7517	25.873
2.7502	25.941
2.7488	26.007
2.7473	26.047
2.7458	26.061
2.7444	26.046
2.7429	26.013
2.7415	25.978
2.7400	25.956
2.7386	25.963
2.7371	25.987
2.7357	26.022
2.7343	26.084
2.7328	26.172
2.7314	26.269
2.7299	26.362
2.7285	26.443
2.7271	26.510
2.7256	26.561
2.7242	26.608
2.7228	26.672
2.7213	26.761
2.7199	26.877
2.7185	27.013
2.7171	27.143
2.7156	27.251
2.7142	27.336
2.7128	27.401
2.7114	27.457
2.7100	27.533
2.7085	27.652
2.7071	27.824
2.7057	28.046
2.7043	28.331
2.7029	28.697
2.7015	29.145
2.7001	29.677
2.6987	30.304
2.6973	31.036
2.6959	31.890
2.6945	32.898
2.6931	34.107
2.6917	35.563
2.6903	37.282
2.6889	39.260
2.6875	41.468
2.6861	43.826
2.6847	46.214
2.6833	48.486
2.6819	50.506
2.6805	52.192
2.6791	53.508
2.6778	54.471
2.6764	55.160
2.6750	55.660
2.6736	56.029
2.6722	56.298
2.6709	56.496
2.6695	56.668
2.6681	56.831
2.6667	56.982
2.6654	57.156
2.6640	57.359
2.6626	57.565
2.6613	57.742
2.6599	57.879
2.6585	57.974
2.6572	58.024
2.6558	58.039
2.6545	58.062
2.6531	58.103
2.6517	58.157
2.6504	58.222
2.6490	58.292
2.6477	58.353
2.6463	58.403
2.6450	58.448
2.6436	58.498
2.6423	58.548
2.6409	58.598
2.6396	58.660
2.6382	58.718
2.6369	58.750
2.6356	58.757
2.6342	58.740
2.6329	58.714
2.6315	58.685
2.6302	58.685
2.6289	58.742
2.6275	58.827
2.6262	58.911
2.6249	58.986
2.6236	59.024
2.6222	59.015
2.6209	58.963
2.6196	58.911
2.6183	58.894
2.6169	58.907
2.6156	58.960
2.6143	59.051
2.6130	59.134
2.6117	59.177
2.6103	59.166
2.6090	59.124
2.6077	59.070
2.6064	59.024
2.6051	59.027
2.6038	59.103
2.6025	59.211
2.6012	59.292
2.5999	59.309
2.5986	59.261
2.5973	59.160
2.5960	59.037
2.5947	58.954
2.5934	58.970
2.5921	59.055
2.5908	59.145
2.5895	59.209
2.5882	59.235
2.5869	59.216
2.5856	59.172
2.5843	59.127
2.5830	59.118
2.5817	59.139
2.5805	59.156
2.5792	59.162
2.5779	59.154
2.5766	59.128
2.5753	59.091
2.5741	59.051
2.5728	59.030
2.5715	59.038
2.5702	59.050
2.5690	59.057
2.5677	59.051
2.5664	59.022
2.5651	58.968
2.5639	58.910
2.5626	58.866
2.5613	58.846
2.5601	58.849
2.5588	58.868
2.5575	58.888
2.5563	58.898
2.5550	58.899
2.5538	58.888
2.5525	58.868
2.5513	58.847
2.5500	58.832
2.5487	58.819
2.5475	58.801
2.5462	58.784
2.5450	58.769
2.5437	58.743
2.5425	58.703
2.5413	58.663
2.5400	58.630
2.5388	58.604
2.5375	58.588
2.5363	58.584
2.5350	58.584
2.5338	58.579
2.5326	58.563
2.5313	58.542
2.5301	58.516
2.5289	58.484
2.5276	58.449
2.5264	58.413
2.5252	58.384
2.5239	58.367
2.5227	58.364
2.5215	58.370
2.5202	58.380
2.5190	58.395
2.5178	58.408
2.5166	58.407
2.5154	58.392
2.5141	58.370
2.5129	58.341
2.5117	58.305
2.5105	58.275
2.5093	58.261
2.5081	58.256
2.5068	58.248
2.5056	58.236
2.5044	58.228
2.5032	58.227
2.5020	58.229
2.5008	58.234
2.4996	58.236
2.4984	58.230
2.4972	58.220
2.4960	58.208
2.4948	58.195
2.4936	58.189
2.4924	58.189
2.4912	58.185
2.4900	58.171
2.4888	58.153
2.4876	58.139
2.4864	58.117
2.4852	58.083
2.4840	58.051
2.4828	58.031
2.4816	58.015
2.4805	58.002
2.4793	57.998
2.4781	57.997
2.4769	57.985
2.4757	57.960
2.4745	57.939
2.4734	57.927
2.4722	57.921
2.4710	57.924
2.4698	57.932
2.4686	57.929
2.4675	57.909
2.4663	57.877
2.4651	57.841
2.4640	57.809
2.4628	57.785
2.4616	57.776
2.4604	57.776
2.4593	57.773
2.4581	57.765
2.4569	57.751
2.4558	57.734
2.4546	57.715
2.4535	57.696
2.4523	57.683
2.4511	57.675
2.4500	57.664
2.4488	57.650
2.4477	57.629
2.4465	57.607
2.4454	57.586
2.4442	57.566
2.4431	57.546
2.4419	57.524
2.4408	57.498
2.4396	57.473
2.4385	57.459
2.4373	57.463
2.4362	57.481
2.4350	57.500
2.4339	57.513
2.4327	57.517
2.4316	57.510
2.4305	57.496
2.4293	57.487
2.4282	57.484
2.4270	57.473
2.4259	57.448
2.4248	57.410
2.4236	57.368
2.4225	57.328
2.4214	57.291
2.4202	57.268
2.4191	57.251
2.4180	57.222
2.4169	57.177
2.4157	57.121
2.4146	57.065
2.4135	57.019
2.4124	56.983
2.4112	56.960
2.4101	56.935
2.4090	56.899
2.4079	56.856
2.4068	56.808
2.4056	56.748
2.4045	56.680
2.4034	56.616
2.4023	56.565
2.4012	56.518
2.4001	56.482
2.3990	56.461
2.3979	56.434
2.3967	56.375
2.3956	56.299
2.3945	56.233
2.3934	56.184
2.3923	56.147
2.3912	56.128
2.3901	56.119
2.3890	56.095
2.3879	56.053
2.3868	56.019
2.3857	56.019
2.3846	56.043
2.3835	56.087
2.3824	56.150
2.3813	56.219
2.3802	56.277
2.3791	56.325
2.3781	56.375
2.3770	56.428
2.3759	56.479
2.3748	56.526
2.3737	56.569
2.3726	56.604
2.3715	56.627
2.3704	56.643
2.3694	56.652
2.3683	56.654
2.3672	56.653
2.3661	56.650
2.3650	56.647
2.3640	56.639
2.3629	56.616
2.3618	56.576
2.3607	56.515
2.3597	56.438
2.3586	56.362
2.3575	56.297
2.3564	56.251
2.3554	56.220
2.3543	56.186
2.3532	56.140
2.3522	56.070
2.3511	55.982
2.3500	55.879
2.3490	55.768
2.3479	55.662
2.3468	55.577
2.3458	55.508
2.3447	55.448
2.3436	55.390
2.3426	55.327
2.3415	55.253
2.3405	55.177
2.3394	55.110
2.3384	55.075
2.3373	55.062
2.3363	55.058
2.3352	55.048
2.3342	55.019
2.3331	54.981
2.3321	54.948
2.3310	54.928
2.3300	54.937
2.3289	54.971
2.3279	55.019
2.3268	55.073
2.3258	55.135
2.3247	55.212
2.3237	55.298
2.3226	55.384
2.3216	55.472
2.3206	55.549
2.3195	55.611
2.3185	55.660
2.3175	55.712
2.3164	55.771
2.3154	55.832
2.3144	55.904
2.3133	55.985
2.3123	56.060
2.3113	56.132
2.3102	56.202
2.3092	56.277
2.3082	56.350
2.3071	56.412
2.3061	56.467
2.3051	56.511
2.3041	56.539
2.3030	56.570
2.3020	56.615
2.3010	56.671
2.3000	56.727
2.2990	56.771
2.2979	56.806
2.2969	56.832
2.2959	56.853
2.2949	56.884
2.2939	56.934
2.2929	56.997
2.2918	57.059
2.2908	57.107
2.2898	57.143
2.2888	57.168
2.2878	57.182
2.2868	57.186
2.2858	57.189
2.2848	57.200
2.2838	57.210
2.2828	57.214
2.2818	57.223
2.2808	57.245
2.2798	57.279
2.2787	57.314
2.2777	57.343
2.2767	57.365
2.2757	57.365
2.2747	57.344
2.2738	57.313
2.2728	57.282
2.2718	57.259
2.2708	57.243
2.2698	57.229
2.2688	57.215
2.2678	57.193
2.2668	57.165
2.2658	57.131
2.2648	57.101
2.2638	57.072
2.2628	57.047
2.2618	57.025
2.2609	56.998
2.2599	56.957
2.2589	56.900
2.2579	56.837
2.2569	56.779
2.2559	56.724
2.2550	56.685
2.2540	56.664
2.2530	56.650
2.2520	56.636
2.2510	56.625
2.2501	56.617
2.2491	56.619
2.2481	56.634
2.2471	56.666
2.2462	56.714
2.2452	56.772
2.2442	56.832
2.2433	56.881
2.2423	56.911
2.2413	56.928
2.2403	56.946
2.2394	56.973
2.2384	57.010
2.2374	57.061
2.2365	57.114
2.2355	57.146
2.2345	57.147
2.2336	57.131
2.2326	57.113
2.2317	57.097
2.2307	57.090
2.2297	57.096
2.2288	57.109
2.2278	57.112
2.2269	57.100
2.2259	57.081
2.2250	57.059
2.2240	57.040
2.2231	57.024
2.2221	57.015
2.2211	57.009
2.2202	57.005
2.2192	57.000
2.2183	57.002
2.2173	57.008
2.2164	57.017
2.2155	57.022
2.2145	57.009
2.2136	56.971
2.2126	56.913
2.2117	56.844
2.2107	56.782
2.2098	56.738
2.2088	56.722
2.2079	56.731
2.2070	56.747
2.2060	56.754
2.2051	56.748
2.2041	56.723
2.2032	56.689
2.2023	56.658
2.2013	56.646
2.2004	56.659
2.1995	56.686
2.1985	56.712
2.1976	56.724
2.1967	56.711
2.1957	56.677
2.1948	56.630
2.1939	56.586
2.1930	56.554
2.1920	56.536
2.1911	56.523
2.1902	56.512
2.1893	56.501
2.1883	56.496
2.1874	56.500
2.1865	56.510
2.1856	56.525
2.1846	56.541
2.1837	56.552
2.1828	56.551
2.1819	56.542
2.1810	56.543
2.1800	56.555
2.1791	56.562
2.1782	56.565
2.1773	56.560
2.1764	56.544
2.1755	56.509
2.1746	56.469
2.1736	56.444
2.1727	56.429
2.1718	56.417
2.1709	56.417
2.1700	56.428
2.1691	56.437
2.1682	56.438
2.1673	56.432
2.1664	56.423
2.1655	56.404
2.1646	56.381
2.1637	56.365
2.1628	56.350
2.1619	56.337
2.1610	56.333
2.1601	56.334
2.1592	56.334
2.1583	56.336
2.1574	56.341
2.1565	56.334
2.1556	56.307
2.1547	56.275
2.1538	56.247
2.1529	56.212
2.1520	56.175
2.1511	56.155
2.1502	56.147
2.1493	56.136
2.1484	56.117
2.1475	56.107
2.1466	56.104
2.1458	56.097
2.1449	56.097
2.1440	56.111
2.1431	56.129
2.1422	56.136
2.1413	56.122
2.1404	56.095
2.1396	56.057
2.1387	56.016
2.1378	55.981
2.1369	55.956
2.1360	55.938
2.1352	55.921
2.1343	55.906
2.1334	55.901
2.1325	55.912
2.1316	55.930
2.1308	55.940
2.1299	55.929
2.1290	55.891
2.1281	55.835
2.1273	55.780
2.1264	55.743
2.1255	55.729
2.1247	55.727
2.1238	55.727
2.1229	55.728
2.1220	55.726
2.1212	55.722
2.1203	55.723
2.1194	55.726
2.1186	55.716
2.1177	55.691
2.1168	55.658
2.1160	55.630
2.1151	55.606
2.1143	55.587
2.1134	55.573
2.1125	55.559
2.1117	55.543
2.1108	55.529
2.1100	55.519
2.1091	55.515
2.1082	55.512
2.1074	55.507
2.1065	55.500
2.1057	55.495
2.1048	55.503
2.1040	55.520
2.1031	55.534
2.1023	55.533
2.1014	55.515
2.1005	55.489
2.0997	55.461
2.0988	55.440
2.0980	55.438
2.0971	55.447
2.0963	55.450
2.0955	55.431
2.0946	55.396
2.0938	55.357
2.0929	55.323
2.0921	55.305
2.0912	55.307
2.0904	55.320
2.0895	55.330
2.0887	55.330
2.0879	55.319
2.0870	55.296
2.0862	55.261
2.0853	55.217
2.0845	55.161
2.0837	55.095
2.0828	55.019
2.0820	54.967
2.0812	54.952
2.0803	54.975
2.0795	55.147
2.0760	55.147
2.0720	55.189
2.0680	55.099
2.0640	54.822
2.0600	54.822
2.0560	55.325
2.0520	54.959
2.0480	54.599
2.0440	54.327
2.0400	54.371
2.0360	53.920
2.0320	53.742
2.0280	53.737
2.0240	53.376
2.0200	53.028
2.0160	52.937
2.0120	52.644
2.0080	53.028
2.0040	52.859
2.0000	52.671
1.9960	52.307
1.9920	52.034
1.9880	51.770
1.9840	51.393
1.9800	51.262
1.9760	51.285
1.9720	51.325
1.9680	51.063
1.9640	50.932
1.9600	50.571
1.9560	50.601
1.9520	50.489
1.9480	50.337
1.9440	50.172
1.9400	49.954
1.9360	49.895
1.9320	49.482
1.9280	49.457
1.9240	48.929
1.9200	48.666
1.9160	48.578
1.9120	48.671
1.9080	48.461
1.9040	48.366
1.9000	48.398
1.8960	48.392
1.8920	48.335
1.8880	48.476
1.8840	48.232
1.8800	48.119
1.8760	48.203
1.8720	48.155
1.8680	47.853
1.8640	47.807
1.8600	47.499
1.8560	47.413
1.8520	47.318
1.8480	47.318
1.8440	47.186
1.8400	47.028
1.8360	46.938
1.8320	46.757
1.8280	46.704
1.8240	46.649
1.8200	46.541
1.8160	46.346
1.8120	46.141
1.8080	45.887
1.8040	45.781
1.8000	45.605
1.7960	45.699
1.7920	45.533
1.7880	45.164
1.7840	45.021
1.7800	44.674
1.7760	44.634
1.7720	44.492
1.7680	44.227
1.7640	44.185
1.7600	44.130
1.7560	44.008
1.7520	43.864
1.7480	43.898
1.7440	43.708
1.7400	43.687
1.7360	43.732
1.7320	43.498
1.7280	43.409
1.7240	43.320
1.7200	43.231
1.7160	42.987
1.7120	42.711
1.7080	42.447
1.7040	42.460
1.7000	42.252
1.6960	42.075
1.6920	41.867
1.6880	41.931
1.6840	41.603
1.6800	41.483
1.6760	41.458
1.6720	41.312
1.6680	41.136
1.6640	40.928
1.6600	40.633
1.6560	40.437
1.6520	40.501
1.6480	40.235
1.6440	40.266
1.6400	39.998
1.6360	39.662
1.6320	39.527
1.6280	39.351
1.6240	39.429
1.6200	39.262
1.6160	39.115
1.6120	38.968
1.6080	38.762
1.6040	38.907
1.6000	38.729
1.5960	38.465
1.5920	38.347
1.5880	38.027
1.5840	37.650
1.5800	37.418
1.5760	37.558
1.5720	37.122
1.5680	37.034
1.5640	36.873
1.5600	36.913
1.5560	36.628
1.5520	36.528
1.5480	36.636
1.5440	36.548
1.5400	36.080
1.5360	35.736
1.5320	35.736
1.5280	35.665
1.5240	35.577
1.5200	35.463
1.5160	35.349
1.5120	35.183
1.5080	34.919
1.5040	34.669
1.5000	34.519
1.4960	33.601
1.4920	33.840
1.4880	33.791
1.4840	33.552
1.4800	33.412
1.4760	33.313
1.4720	33.226
1.4680	32.949
1.4640	32.837
1.4600	32.703
1.4560	32.510
1.4520	32.388
1.4480	32.146
1.4440	32.063
1.4400	31.778
1.4360	31.759
1.4320	31.581
1.4280	31.256
1.4240	31.144
1.4200	31.033
1.4160	30.723
1.4120	30.634
1.4080	30.678
1.4040	30.300
1.4000	30.253
1.3960	30.008
1.3920	29.854
1.3880	29.829
1.3840	29.694
1.3800	29.600
1.3760	29.357
1.3720	29.261
1.3680	29.255
1.3640	29.109
1.3600	28.877
1.3560	28.787
1.3520	28.658
1.3480	28.699
1.3440	28.639
1.3400	28.377
1.3360	28.175
1.3320	27.875
1.3280	27.594
1.3240	27.546
1.3200	27.573
1.3160	27.474
1.3120	27.075
1.3080	26.867
1.3040	26.798
1.3000	26.728
1.2960	26.658
1.2920	26.448
1.2880	26.325
1.2840	26.149
1.2800	25.954
1.2760	25.882
1.2720	25.793
1.2680	25.614
1.2640	25.312
1.2600	25.117
1.2560	25.045
1.2520	25.268
1.2480	25.337
1.2440	25.193
1.2400	25.172
1.2360	24.912
1.2320	24.704
1.2280	24.588
1.2240	24.638
1.2200	24.519
1.2160	24.479
1.2120	24.029
1.2080	23.860
1.2040	23.739
1.2000	23.724
1.1960	23.588
1.1920	23.406
1.1880	23.375
1.1840	23.344
1.1800	23.175
1.1760	23.138
1.1720	23.153
1.1680	22.999
1.1640	22.956
1.1600	22.897
1.1560	22.957
1.1520	23.076
1.1480	23.076
1.1440	22.924
1.1400	23.118
1.1360	23.120
1.1320	22.940
1.1280	22.955
1.1240	22.835
1.1200	22.865
1.1160	22.820
1.1120	22.805
1.1080	22.741
1.1040	22.756
1.1000	22.786
1.0960	22.830
1.0920	22.579
1.0880	22.727
1.0840	22.579
1.0800	22.500
1.0760	22.308
1.0720	22.457
1.0680	22.663
1.0640	22.385
1.0600	22.413
1.0560	22.325
1.0520	22.279
1.0480	22.354
1.0440	22.325
1.0400	22.254
1.0360	22.311
1.0320	22.279
1.0280	22.322
1.0240	22.291
1.0200	22.191
1.0160	22.117
1.0120	22.088
1.0080	22.102
1.0040	22.018
1.0000	21.859
0.9960	21.771
0.9920	21.727
0.9880	21.605
0.9840	21.483
0.9800	21.496
0.9760	21.473
0.9720	21.330
0.9680	21.370
0.9640	21.384
0.9600	21.255
0.9560	21.220
0.9520	21.030
0.9480	21.030
0.9440	20.941
0.9400	20.980
0.9360	21.006
0.9320	20.967
0.9280	20.826
0.9240	20.852
0.9200	20.764
0.9160	20.764
0.9120	20.764
0.9080	20.731
0.9040	20.513
0.9000	20.665
0.8960	20.616
0.8920	20.528
0.8880	20.567
0.8840	20.465
0.8800	20.622
0.8760	20.622
0.8720	20.547
0.8680	20.547
0.8640	20.396
0.8600	20.474
0.8560	20.372
0.8520	20.372
0.8480	20.385
0.8440	20.359
0.8400	20.320
0.8360	20.346
0.8320	20.205
0.8280	20.307
0.8240	20.281
0.8200	20.268
0.8160	20.217
0.8120	20.166
0.8080	20.228
0.8040	20.177
0.8000	20.102
0.7990	19.527
0.7980	19.527
0.7970	19.379
0.7960	19.436
0.7950	19.527
0.7940	19.527
0.7930	19.461
0.7920	19.345
0.7910	19.206
0.7900	19.178
0.7890	19.241
0.7880	19.365
0.7870	19.369
0.7860	19.380
0.7850	19.332
0.7840	19.303
0.7830	19.376
0.7820	19.284
0.7810	19.516
0.7800	19.420
0.7790	19.198
0.7780	19.078
0.7770	19.155
0.7760	19.255
0.7750	19.078
0.7740	19.045
0.7730	19.155
0.7720	19.438
0.7710	19.232
0.7700	19.290
0.7690	19.224
0.7680	19.046
0.7670	19.195
0.7660	19.128
0.7650	19.070
0.7640	19.364
0.7630	19.224
0.7620	19.099
0.7610	19.084
0.7600	19.084
0.7590	18.907
0.7580	19.135
0.7570	18.964
0.7560	19.003
0.7550	18.701
0.7540	18.787
0.7530	18.935
0.7520	18.964
0.7510	18.935
0.7500	18.857
0.7490	19.091
0.7480	18.687
0.7470	18.673
0.7460	18.701
0.7450	18.757
0.7440	18.964
0.7430	19.149
0.7420	18.715
0.7410	18.846
0.7400	18.593
0.7390	18.846
0.7380	18.701
0.7370	18.689
0.7360	19.001
0.7350	18.771
0.7340	18.675
0.7330	18.591
0.7320	18.591
0.7310	18.885
0.7300	19.120
0.7290	18.935
0.7280	19.149
0.7270	18.997
0.7260	18.904
0.7250	18.593
0.7240	18.764
0.7230	18.904
0.7220	18.779
0.7210	18.682
0.7200	18.832
0.7190	18.789
0.7180	18.703
0.7170	18.565
0.7160	18.693
0.7150	18.942
0.7140	18.565
0.7130	18.593
0.7120	18.736
0.7110	18.904
0.7100	18.746
0.7090	18.579
0.7080	18.565
0.7070	18.857
0.7060	18.668
0.7050	18.807
0.7040	18.779
0.7030	18.851
0.7020	19.153
0.7010	19.038
0.7000	19.023
0.6990	18.700
0.6980	18.840
0.6970	19.048
0.6960	19.003
0.6950	19.054
0.6940	19.153
0.6930	19.153
0.6920	19.138
0.6910	19.191
0.6900	19.191
0.6890	19.092
0.6880	19.152
0.6870	19.093
0.6860	19.336
0.6850	19.138
0.6840	19.078
0.6830	18.979
0.6820	19.258
0.6810	19.192
0.6800	19.357
0.6790	19.227
0.6780	19.227
0.6770	19.290
0.6760	19.221
0.6750	19.336
0.6740	19.497
0.6730	19.398
0.6720	19.434
0.6710	19.336
0.6700	19.320
0.6690	19.518
0.6680	19.389
0.6670	19.420
0.6660	19.487
0.6650	19.456
0.6640	19.367
0.6630	19.497
0.6620	19.366
0.6610	19.366
0.6600	19.367
0.6590	19.336
0.6580	19.336
0.6570	19.336
0.6560	19.389
0.6550	19.434
0.6540	19.434
0.6530	19.389
0.6520	19.298
0.6510	19.445
0.6500	19.613
0.6490	19.466
0.6480	19.336
0.6470	19.534
0.6460	19.649
0.6450	19.550
0.6440	19.848
0.6430	19.534
0.6420	19.388
0.6410	19.466
0.6400	19.466
0.6390	19.613
0.6380	19.697
0.6370	19.534
0.6360	19.466
0.6350	19.450
0.6340	19.534
0.6330	19.434
0.6320	19.450
0.6310	19.419
0.6300	19.550
0.6290	19.613
0.6280	19.565
0.6270	19.613
0.6260	19.645
0.6250	19.645
0.6240	19.513
0.6230	19.629
0.6220	19.645
0.6210	19.729
0.6200	19.729
0.6190	19.545
0.6180	19.693
0.6170	19.761
0.6160	19.645
0.6150	19.613
0.6140	19.529
0.6130	19.397
0.6120	19.397
0.6110	19.329
0.6100	19.345
0.6090	19.407
0.6080	19.460
0.6070	19.545
0.6060	19.460
0.6050	19.460
0.6040	19.392
0.6030	19.407
0.6020	19.407
0.6010	19.106
0.6000	19.083
0.5990	19.200
0.5980	19.332
0.5970	19.364
0.5960	19.262
0.5950	19.396
0.5940	19.310
0.5930	19.192
0.5920	19.240
0.5910	19.240
0.5900	19.138
0.5890	19.154
0.5880	18.934
0.5870	19.138
0.5860	19.105
0.5850	18.957
0.5840	19.240
0.5830	19.169
0.5820	19.091
0.5810	19.161
0.5800	18.796
0.5790	19.013
0.5780	18.796
0.5770	18.811
0.5760	18.857
0.5750	18.755
0.5740	18.710
0.5730	18.890
0.5720	18.814
0.5710	18.814
0.5700	18.600
0.5690	18.600
0.5680	18.456
0.5670	18.545
0.5660	18.504
0.5650	18.503
0.5640	18.359
0.5630	18.403
0.5620	18.318
0.5610	18.332
0.5600	18.189
0.5590	18.421
0.5580	17.701
0.5570	17.781
0.5560	17.740
0.5550	17.740
0.5540	17.648
0.5530	17.486
0.5520	17.592
0.5510	17.426
0.5500	17.502
0.5490	17.461
0.5480	17.444
0.5470	17.459
0.5460	17.375
0.5450	17.167
0.5440	17.219
0.5430	17.219
0.5420	17.124
0.5410	17.161
0.5400	17.013
0.5390	16.954
0.5380	17.188
0.5370	17.011
0.5360	17.024
0.5350	17.090
0.5340	17.006
0.5330	17.006
0.5320	16.773
0.5310	16.713
0.5300	16.726
0.5290	16.835
0.5280	16.726
0.5270	16.467
0.5260	16.467
0.5250	16.431
0.5240	16.601
0.5230	16.538
0.5220	16.406
0.5210	16.308
0.5200	16.403
0.5190	16.453
0.5180	16.355
0.5170	16.161
0.5160	16.185
0.5150	16.210
0.5140	15.954
0.5130	16.173
0.5120	15.892
0.5110	15.878
0.5100	15.845
0.5090	15.770
0.5080	15.665
0.5070	15.700
0.5060	15.636
0.5050	15.782
0.5040	15.659
0.5030	15.549
0.5020	15.481
0.5010	15.626
0.5000	15.636
0.4990	15.636
0.4980	15.395
0.4970	15.406
0.4960	15.481
0.4950	15.092
0.4940	15.223
0.4930	15.144
0.4920	15.079
0.4910	15.177
0.4900	14.918
0.4890	14.909
0.4880	15.114
0.4870	15.005
0.4860	14.951
0.4850	14.909
0.4840	14.811
0.4830	14.853
0.4820	14.703
0.4810	14.811
0.4800	14.726
0.4790	14.811
0.4780	14.756
0.4770	14.648
0.4760	14.746
0.4750	14.554
0.4740	14.465
0.4730	14.477
0.4720	14.359
0.4710	14.359
0.4700	14.457
0.4690	14.359
0.4680	14.436
0.4670	14.369
0.4660	14.076
0.4650	14.281
0.4640	13.988
0.4630	14.263
0.4620	14.235
0.4610	14.235
0.4600	14.246
0.4590	14.388
0.4580	14.155
0.4570	14.117
0.4560	14.026
0.4550	14.135
0.4540	14.026
0.4530	14.035
0.4520	14.070
0.4510	14.070
0.4500	14.298
0.4490	14.353
0.4480	14.188
0.4470	14.096
0.4460	13.817
0.4450	13.943
0.4440	13.874
0.4430	14.085
0.4420	13.948
0.4410	13.825
0.4400	13.918
0.4390	13.708
0.4380	13.732
0.4370	13.770
0.4360	13.770
0.4350	13.700
0.4340	13.675
0.4330	13.558
0.4320	13.589
0.4310	13.596
0.4300	13.500
0.4290	13.470
0.4280	13.263
0.4270	13.203
0.4260	13.277
0.4250	13.470
0.4240	13.261
0.4230	13.284
0.4220	13.303
0.4210	13.198
0.4200	13.109
0.4190	12.870
0.4180	13.178
0.4170	13.067
0.4160	13.224
0.4150	13.133
0.4140	13.120
0.4130	13.044
0.4120	13.038
0.4110	13.006
0.4100	13.018
0.4090	13.018
0.4080	12.916
0.4070	12.838
0.4060	12.652
0.4050	12.844
0.4040	12.657
0.4030	12.652
0.4020	12.867
0.4010	12.877
0.4000	12.450
