Name: Felsitic Gneiss 
Type:  Rocks
Class: Metamorphic 
Subclass: Gneiss 
Particle Size:  0-75 Micrometer
Sample No.:  gneiss3.doc
Owner:  JHU
Wavelength Range:  All
Origin:  Sample No. 310, The Hunt and Salisbury Collection at the U.S. 
Geological Survey, Denver, Co.
Description: This coarse to very coarse-grained sample consists of anhedra of 
quartz, alkali feldspar (albite, orthoclase, microcline) and brown and green biotite.  
Some regions  are heavily sericitized, and sericitization has also occurred along 
most feldspar grain boundaries and cracks.  There are scattered opaques and 
some myrmeketic texture in this sample along with a trace of zircon.   
 
Measurement:  Directional (10 Degree) Hemispherical Reflectance
First Column:  X
Second Column:  Y  
X Units:  Wavelength (micrometers)
Y Units:  Reflectance (percent)
First X Value: 14.0112
Last X Value:  0.4
Number of X Values: 2844
Additional Information:  gneiss3a.txt

14.983	2.8124
14.940	2.8759
14.897	2.9481
14.854	3.0230
14.812	3.0907
14.770	3.1456
14.728	3.1904
14.686	3.2283
14.645	3.2557
14.603	3.2586
14.562	3.2195
14.521	3.1300
14.481	2.9964
14.441	2.8444
14.400	2.7111
14.361	2.6329
14.321	2.6327
14.281	2.7113
14.242	2.8491
14.203	3.0144
14.164	3.1726
14.126	3.2969
14.087	3.3723
14.049	3.3971
14.011	3.3791
13.973	3.3318
13.936	3.2690
13.899	3.2039
13.861	3.1468
13.824	3.1039
13.788	3.0779
13.751	3.0679
13.715	3.0706
13.679	3.0812
13.643	3.0938
13.607	3.1032
13.571	3.1063
13.536	3.1028
13.500	3.0938
13.465	3.0836
13.430	3.0760
13.396	3.0732
13.361	3.0746
13.327	3.0762
13.293	3.0724
13.259	3.0568
13.225	3.0251
13.191	2.9758
13.158	2.9117
13.124	2.8373
13.091	2.7603
13.058	2.6886
13.026	2.6291
12.993	2.5867
12.960	2.5621
12.928	2.5515
12.896	2.5474
12.864	2.5403
12.832	2.5216
12.800	2.4868
12.769	2.4387
12.737	2.3862
12.706	2.3431
12.675	2.3239
12.644	2.3386
12.614	2.3897
12.583	2.4719
12.552	2.5728
12.522	2.6793
12.492	2.7812
12.462	2.8752
12.432	2.9671
12.402	3.0694
12.373	3.1991
12.343	3.3713
12.314	3.5965
12.285	3.8764
12.256	4.2035
12.227	4.5630
12.198	4.9364
12.169	5.3059
12.141	5.6568
12.113	5.9817
12.084	6.2789
12.056	6.5517
12.028	6.8051
12.000	7.0441
11.973	7.2700
11.945	7.4812
11.918	7.6743
11.890	7.8443
11.863	7.9876
11.836	8.1024
11.809	8.1898
11.782	8.2528
11.755	8.2949
11.729	8.3210
11.702	8.3340
11.676	8.3376
11.650	8.3333
11.624	8.3229
11.598	8.3075
11.572	8.2881
11.546	8.2651
11.520	8.2400
11.495	8.2140
11.469	8.1874
11.444	8.1607
11.419	8.1320
11.394	8.0984
11.369	8.0562
11.344	8.0015
11.319	7.9321
11.294	7.8474
11.270	7.7481
11.245	7.6352
11.221	7.5111
11.197	7.3770
11.173	7.2350
11.149	7.0867
11.125	6.9349
11.101	6.7817
11.077	6.6297
11.054	6.4805
11.030	6.3360
11.007	6.1972
10.983	6.0660
10.960	5.9424
10.937	5.8273
10.914	5.7196
10.891	5.6170
10.868	5.5173
10.846	5.4176
10.823	5.3172
10.800	5.2156
10.778	5.1138
10.755	5.0136
10.733	4.9165
10.711	4.8244
10.689	4.7382
10.667	4.6584
10.645	4.5848
10.623	4.5166
10.602	4.4526
10.580	4.3913
10.558	4.3314
10.537	4.2719
10.516	4.2139
10.494	4.1585
10.473	4.1071
10.452	4.0614
10.431	4.0214
10.410	3.9858
10.389	3.9529
10.368	3.9205
10.348	3.8873
10.327	3.8547
10.306	3.8239
10.286	3.7983
10.266	3.7796
10.245	3.7687
10.225	3.7644
10.205	3.7649
10.185	3.7682
10.165	3.7725
10.145	3.7779
10.125	3.7850
10.106	3.7947
10.086	3.8073
10.066	3.8220
10.047	3.8383
10.027	3.8556
10.008	3.8734
9.9887	3.8909
9.9695	3.9072
9.9504	3.9195
9.9313	3.9252
9.9123	3.9210
9.8934	3.9060
9.8746	3.8814
9.8558	3.8504
9.8371	3.8187
9.8185	3.7907
9.7999	3.7703
9.7814	3.7590
9.7630	3.7561
9.7447	3.7606
9.7264	3.7703
9.7082	3.7841
9.6900	3.8002
9.6719	3.8175
9.6539	3.8340
9.6360	3.8485
9.6181	3.8594
9.6003	3.8655
9.5825	3.8660
9.5649	3.8610
9.5472	3.8516
9.5297	3.8407
9.5122	3.8326
9.4948	3.8345
9.4774	3.8539
9.4601	3.8989
9.4429	3.9750
9.4257	4.0848
9.4086	4.2265
9.3916	4.3932
9.3746	4.5734
9.3577	4.7536
9.3408	4.9194
9.3240	5.0581
9.3073	5.1623
9.2906	5.2289
9.2740	5.2606
9.2574	5.2639
9.2409	5.2474
9.2245	5.2189
9.2081	5.1844
9.1918	5.1474
9.1755	5.1088
9.1593	5.0688
9.1431	5.0274
9.1270	4.9852
9.1110	4.9435
9.0950	4.9047
9.0791	4.8699
9.0632	4.8403
9.0474	4.8161
9.0316	4.7967
9.0159	4.7811
9.0003	4.7690
8.9847	4.7595
8.9691	4.7522
8.9536	4.7465
8.9382	4.7408
8.9228	4.7339
8.9075	4.7245
8.8922	4.7115
8.8770	4.6951
8.8618	4.6757
8.8467	4.6549
8.8316	4.6340
8.8166	4.6141
8.8016	4.5966
8.7867	4.5821
8.7718	4.5701
8.7570	4.5578
8.7422	4.5398
8.7275	4.5094
8.7129	4.4595
8.6982	4.3880
8.6837	4.2996
8.6692	4.2075
8.6547	4.1317
8.6403	4.0929
8.6259	4.1061
8.6116	4.1753
8.5973	4.2913
8.5830	4.4353
8.5688	4.5840
8.5547	4.7169
8.5406	4.8213
8.5266	4.8945
8.5126	4.9416
8.4986	4.9722
8.4847	4.9956
8.4708	5.0195
8.4570	5.0482
8.4432	5.0833
8.4295	5.1245
8.4158	5.1711
8.4022	5.2223
8.3886	5.2770
8.3750	5.3343
8.3615	5.3947
8.3481	5.4581
8.3347	5.5268
8.3213	5.6021
8.3079	5.6857
8.2946	5.7783
8.2814	5.8782
8.2682	5.9834
8.2550	6.0888
8.2419	6.1885
8.2288	6.2744
8.2158	6.3386
8.2028	6.3720
8.1898	6.3663
8.1769	6.3156
8.1640	6.2183
8.1512	6.0767
8.1384	5.8979
8.1256	5.6916
8.1129	5.4697
8.1002	5.2433
8.0876	5.0205
8.0750	4.8076
8.0624	4.6075
8.0499	4.4211
8.0374	4.2475
8.0250	4.0848
8.0126	3.9297
8.0002	3.7796
7.9879	3.6309
7.9756	3.4817
7.9634	3.3313
7.9512	3.1809
7.9390	3.0327
7.9268	2.8894
7.9147	2.7539
7.9027	2.6284
7.8906	2.5143
7.8786	2.4132
7.8667	2.3258
7.8548	2.2524
7.8429	2.1934
7.8310	2.1472
7.8192	2.1124
7.8075	2.0863
7.7957	2.0665
7.7840	2.0508
7.7723	2.0385
7.7607	2.0295
7.7491	2.0248
7.7375	2.0243
7.7260	2.0276
7.7145	2.0340
7.7031	2.0421
7.6916	2.0501
7.6802	2.0570
7.6689	2.0627
7.6575	2.0672
7.6462	2.0717
7.6350	2.0778
7.6238	2.0873
7.6126	2.1027
7.6014	2.1254
7.5903	2.1576
7.5792	2.1993
7.5681	2.2502
7.5571	2.3080
7.5461	2.3698
7.5351	2.4330
7.5242	2.4949
7.5133	2.5541
7.5024	2.6099
7.4916	2.6637
7.4807	2.7168
7.4700	2.7707
7.4592	2.8278
7.4485	2.8892
7.4378	2.9555
7.4272	3.0265
7.4165	3.1018
7.4059	3.1804
7.3954	3.2610
7.3848	3.3429
7.3743	3.4260
7.3639	3.5106
7.3534	3.5979
7.3430	3.6884
7.3326	3.7829
7.3223	3.8824
7.3119	3.9868
7.3016	4.0969
7.2914	4.2127
7.2811	4.3352
7.2709	4.4642
7.2607	4.5994
7.2506	4.7392
7.2404	4.8812
7.2303	5.0229
7.2203	5.1612
7.2102	5.2943
7.2002	5.4224
7.1902	5.5474
7.1803	5.6734
7.1703	5.8046
7.1604	5.9441
7.1506	6.0930
7.1407	6.2491
7.1309	6.4075
7.1211	6.5619
7.1113	6.7061
7.1016	6.8359
7.0919	6.9498
7.0822	7.0507
7.0725	7.1431
7.0629	7.2335
7.0533	7.3276
7.0437	7.4280
7.0341	7.5355
7.0246	7.6465
7.0151	7.7571
7.0056	7.8630
6.9962	7.9625
6.9867	8.0569
6.9773	8.1507
6.9679	8.2492
6.9586	8.3565
6.9493	8.4735
6.9400	8.5974
6.9307	8.7217
6.9214	8.8389
6.9122	8.9419
6.9030	9.0272
6.8938	9.0947
6.8847	9.1477
6.8755	9.1927
6.8664	9.2353
6.8573	9.2794
6.8483	9.3253
6.8393	9.3715
6.8302	9.4139
6.8213	9.4487
6.8123	9.4738
6.8034	9.4890
6.7944	9.4968
6.7855	9.4999
6.7767	9.5018
6.7678	9.5044
6.7590	9.5086
6.7502	9.5153
6.7414	9.5257
6.7327	9.5427
6.7239	9.5716
6.7152	9.6173
6.7065	9.6846
6.6979	9.7739
6.6892	9.8809
6.6806	9.9977
6.6720	10.113
6.6634	10.218
6.6549	10.307
6.6464	10.376
6.6378	10.427
6.6294	10.463
6.6209	10.484
6.6124	10.493
6.6040	10.487
6.5956	10.469
6.5872	10.447
6.5789	10.432
6.5705	10.436
6.5622	10.476
6.5539	10.560
6.5456	10.691
6.5374	10.867
6.5292	11.081
6.5209	11.323
6.5128	11.585
6.5046	11.860
6.4964	12.144
6.4883	12.428
6.4802	12.704
6.4721	12.956
6.4640	13.172
6.4560	13.337
6.4480	13.448
6.4399	13.505
6.4320	13.520
6.4240	13.505
6.4160	13.470
6.4081	13.422
6.4002	13.358
6.3923	13.272
6.3844	13.158
6.3766	13.015
6.3687	12.848
6.3609	12.665
6.3531	12.477
6.3454	12.291
6.3376	12.110
6.3299	11.932
6.3221	11.752
6.3144	11.567
6.3068	11.374
6.2991	11.174
6.2914	10.972
6.2838	10.771
6.2762	10.576
6.2686	10.393
6.2611	10.223
6.2535	10.070
6.2460	9.9351
6.2385	9.8198
6.2310	9.7260
6.2235	9.6566
6.2160	9.6159
6.2086	9.6095
6.2011	9.6443
6.1937	9.7279
6.1863	9.8653
6.1790	10.058
6.1716	10.300
6.1643	10.584
6.1570	10.892
6.1496	11.209
6.1424	11.521
6.1351	11.817
6.1278	12.095
6.1206	12.354
6.1134	12.597
6.1062	12.824
6.0990	13.031
6.0918	13.212
6.0847	13.362
6.0776	13.480
6.0704	13.569
6.0633	13.640
6.0563	13.704
6.0492	13.768
6.0421	13.837
6.0351	13.906
6.0281	13.966
6.0211	14.007
6.0141	14.020
6.0071	14.002
6.0002	13.953
5.9932	13.878
5.9863	13.781
5.9794	13.670
5.9725	13.550
5.9657	13.429
5.9588	13.319
5.9520	13.233
5.9451	13.183
5.9383	13.182
5.9315	13.233
5.9247	13.332
5.9180	13.471
5.9112	13.639
5.9045	13.826
5.8978	14.028
5.8911	14.245
5.8844	14.477
5.8777	14.721
5.8711	14.970
5.8644	15.213
5.8578	15.437
5.8512	15.634
5.8446	15.802
5.8380	15.946
5.8314	16.076
5.8249	16.202
5.8184	16.331
5.8118	16.459
5.8053	16.580
5.7988	16.685
5.7923	16.768
5.7859	16.828
5.7794	16.872
5.7730	16.909
5.7666	16.950
5.7602	17.000
5.7538	17.057
5.7474	17.116
5.7410	17.170
5.7347	17.211
5.7283	17.238
5.7220	17.249
5.7157	17.247
5.7094	17.234
5.7031	17.206
5.6969	17.161
5.6906	17.092
5.6844	16.993
5.6782	16.857
5.6719	16.685
5.6657	16.481
5.6596	16.253
5.6534	16.014
5.6472	15.781
5.6411	15.565
5.6349	15.377
5.6288	15.220
5.6227	15.092
5.6166	14.990
5.6106	14.908
5.6045	14.842
5.5984	14.791
5.5924	14.760
5.5864	14.752
5.5804	14.774
5.5744	14.831
5.5684	14.926
5.5624	15.062
5.5564	15.240
5.5505	15.459
5.5445	15.716
5.5386	16.005
5.5327	16.320
5.5268	16.653
5.5209	16.994
5.5151	17.335
5.5092	17.669
5.5033	17.992
5.4975	18.301
5.4917	18.595
5.4859	18.875
5.4801	19.140
5.4743	19.389
5.4685	19.620
5.4628	19.825
5.4570	19.995
5.4513	20.119
5.4455	20.185
5.4398	20.187
5.4341	20.117
5.4284	19.972
5.4228	19.753
5.4171	19.462
5.4114	19.105
5.4058	18.688
5.4002	18.226
5.3945	17.736
5.3889	17.241
5.3833	16.766
5.3778	16.334
5.3722	15.965
5.3666	15.673
5.3611	15.463
5.3555	15.335
5.3500	15.281
5.3445	15.290
5.3390	15.348
5.3335	15.442
5.3280	15.558
5.3225	15.687
5.3171	15.827
5.3116	15.976
5.3062	16.141
5.3008	16.327
5.2954	16.542
5.2900	16.791
5.2846	17.079
5.2792	17.404
5.2738	17.767
5.2684	18.165
5.2631	18.598
5.2578	19.066
5.2524	19.568
5.2471	20.104
5.2418	20.670
5.2365	21.255
5.2312	21.846
5.2260	22.423
5.2207	22.967
5.2154	23.460
5.2102	23.888
5.2050	24.244
5.1998	24.530
5.1945	24.751
5.1893	24.920
5.1842	25.049
5.1790	25.151
5.1738	25.236
5.1686	25.309
5.1635	25.375
5.1584	25.437
5.1532	25.495
5.1481	25.555
5.1430	25.621
5.1379	25.699
5.1328	25.793
5.1277	25.903
5.1227	26.022
5.1176	26.140
5.1126	26.242
5.1075	26.313
5.1025	26.341
5.0975	26.324
5.0925	26.265
5.0875	26.177
5.0825	26.076
5.0775	25.980
5.0726	25.905
5.0676	25.857
5.0627	25.838
5.0577	25.844
5.0528	25.864
5.0479	25.891
5.0430	25.914
5.0380	25.929
5.0332	25.936
5.0283	25.939
5.0234	25.945
5.0185	25.964
5.0137	26.005
5.0088	26.078
5.0040	26.192
4.9992	26.359
4.9944	26.589
4.9896	26.894
4.9848	27.280
4.9800	27.746
4.9752	28.281
4.9704	28.861
4.9657	29.453
4.9609	30.022
4.9562	30.538
4.9514	30.981
4.9467	31.347
4.9420	31.650
4.9373	31.918
4.9326	32.185
4.9279	32.488
4.9232	32.857
4.9186	33.312
4.9139	33.859
4.9092	34.491
4.9046	35.189
4.9000	35.926
4.8953	36.671
4.8907	37.394
4.8861	38.074
4.8815	38.697
4.8769	39.256
4.8723	39.754
4.8678	40.195
4.8632	40.588
4.8586	40.937
4.8541	41.250
4.8495	41.531
4.8450	41.783
4.8405	42.009
4.8360	42.212
4.8315	42.393
4.8270	42.554
4.8225	42.695
4.8180	42.818
4.8135	42.924
4.8090	43.015
4.8046	43.094
4.8001	43.165
4.7957	43.233
4.7913	43.303
4.7868	43.380
4.7824	43.471
4.7780	43.579
4.7736	43.709
4.7692	43.860
4.7648	44.029
4.7605	44.215
4.7561	44.409
4.7517	44.607
4.7474	44.801
4.7431	44.987
4.7387	45.161
4.7344	45.321
4.7301	45.465
4.7258	45.591
4.7215	45.696
4.7172	45.778
4.7129	45.835
4.7086	45.866
4.7043	45.874
4.7000	45.864
4.6958	45.849
4.6915	45.843
4.6873	45.861
4.6831	45.918
4.6788	46.018
4.6746	46.163
4.6704	46.345
4.6662	46.553
4.6620	46.776
4.6578	47.004
4.6536	47.233
4.6495	47.460
4.6453	47.687
4.6411	47.914
4.6370	48.142
4.6328	48.372
4.6287	48.603
4.6246	48.835
4.6205	49.067
4.6163	49.301
4.6122	49.539
4.6081	49.780
4.6040	50.026
4.6000	50.276
4.5959	50.529
4.5918	50.783
4.5877	51.036
4.5837	51.288
4.5796	51.535
4.5756	51.775
4.5716	52.005
4.5675	52.222
4.5635	52.423
4.5595	52.607
4.5555	52.772
4.5515	52.918
4.5475	53.046
4.5435	53.153
4.5395	53.242
4.5356	53.308
4.5316	53.350
4.5276	53.364
4.5237	53.350
4.5197	53.307
4.5158	53.241
4.5119	53.161
4.5080	53.076
4.5040	52.999
4.5001	52.939
4.4962	52.901
4.4923	52.888
4.4884	52.899
4.4846	52.932
4.4807	52.985
4.4768	53.062
4.4730	53.167
4.4691	53.305
4.4652	53.479
4.4614	53.689
4.4576	53.926
4.4537	54.180
4.4499	54.435
4.4461	54.681
4.4423	54.913
4.4385	55.130
4.4347	55.338
4.4309	55.542
4.4271	55.749
4.4233	55.963
4.4196	56.185
4.4158	56.415
4.4120	56.651
4.4083	56.894
4.4045	57.144
4.4008	57.400
4.3971	57.663
4.3934	57.931
4.3896	58.202
4.3859	58.476
4.3822	58.749
4.3785	59.020
4.3748	59.288
4.3711	59.550
4.3674	59.806
4.3638	60.052
4.3601	60.287
4.3564	60.511
4.3528	60.723
4.3491	60.923
4.3455	61.111
4.3418	61.287
4.3382	61.452
4.3346	61.606
4.3310	61.748
4.3273	61.878
4.3237	61.996
4.3201	62.102
4.3165	62.195
4.3129	62.277
4.3094	62.349
4.3058	62.412
4.3022	62.470
4.2986	62.527
4.2951	62.587
4.2915	62.655
4.2880	62.736
4.2844	62.830
4.2809	62.938
4.2774	63.060
4.2738	63.193
4.2703	63.332
4.2668	63.472
4.2633	63.609
4.2598	63.738
4.2563	63.853
4.2528	63.953
4.2493	64.037
4.2458	64.109
4.2424	64.173
4.2389	64.235
4.2354	64.302
4.2320	64.375
4.2285	64.454
4.2251	64.538
4.2216	64.621
4.2182	64.699
4.2148	64.770
4.2113	64.832
4.2079	64.888
4.2045	64.940
4.2011	64.991
4.1977	65.046
4.1943	65.107
4.1909	65.176
4.1875	65.251
4.1841	65.330
4.1808	65.412
4.1774	65.494
4.1740	65.575
4.1707	65.651
4.1673	65.725
4.1640	65.794
4.1606	65.861
4.1573	65.926
4.1540	65.989
4.1506	66.052
4.1473	66.113
4.1440	66.173
4.1407	66.233
4.1374	66.292
4.1341	66.353
4.1308	66.414
4.1275	66.476
4.1242	66.539
4.1209	66.602
4.1177	66.664
4.1144	66.726
4.1111	66.786
4.1079	66.845
4.1046	66.903
4.1014	66.960
4.0981	67.015
4.0949	67.068
4.0917	67.118
4.0884	67.165
4.0852	67.208
4.0820	67.249
4.0788	67.288
4.0756	67.324
4.0724	67.357
4.0692	67.387
4.0660	67.413
4.0628	67.435
4.0596	67.452
4.0565	67.464
4.0533	67.469
4.0501	67.469
4.0470	67.463
4.0438	67.452
4.0406	67.440
4.0375	67.428
4.0344	67.420
4.0312	67.415
4.0281	67.414
4.0250	67.415
4.0218	67.416
4.0187	67.416
4.0156	67.414
4.0125	67.409
4.0094	67.402
4.0063	67.391
4.0032	67.378
4.0001	67.363
3.9970	67.346
3.9940	67.332
3.9909	67.323
3.9878	67.321
3.9847	67.330
3.9817	67.350
3.9786	67.379
3.9756	67.417
3.9725	67.462
3.9695	67.512
3.9665	67.566
3.9634	67.622
3.9604	67.680
3.9574	67.737
3.9544	67.792
3.9513	67.844
3.9483	67.894
3.9453	67.940
3.9423	67.982
3.9393	68.020
3.9363	68.053
3.9333	68.081
3.9304	68.104
3.9274	68.121
3.9244	68.134
3.9214	68.143
3.9185	68.149
3.9155	68.154
3.9126	68.155
3.9096	68.155
3.9067	68.151
3.9037	68.145
3.9008	68.134
3.8979	68.120
3.8949	68.102
3.8920	68.081
3.8891	68.058
3.8862	68.033
3.8833	68.005
3.8804	67.977
3.8775	67.949
3.8746	67.921
3.8717	67.895
3.8688	67.872
3.8659	67.853
3.8630	67.836
3.8601	67.822
3.8573	67.808
3.8544	67.794
3.8515	67.778
3.8487	67.761
3.8458	67.743
3.8430	67.726
3.8401	67.712
3.8373	67.701
3.8344	67.694
3.8316	67.691
3.8288	67.692
3.8259	67.694
3.8231	67.696
3.8203	67.695
3.8175	67.690
3.8147	67.682
3.8119	67.670
3.8091	67.655
3.8063	67.637
3.8035	67.617
3.8007	67.593
3.7979	67.565
3.7951	67.534
3.7924	67.497
3.7896	67.458
3.7868	67.415
3.7841	67.371
3.7813	67.325
3.7785	67.278
3.7758	67.230
3.7730	67.182
3.7703	67.132
3.7676	67.082
3.7648	67.032
3.7621	66.980
3.7594	66.927
3.7566	66.872
3.7539	66.817
3.7512	66.763
3.7485	66.710
3.7458	66.660
3.7431	66.613
3.7404	66.571
3.7377	66.530
3.7350	66.492
3.7323	66.456
3.7296	66.422
3.7269	66.390
3.7242	66.360
3.7216	66.332
3.7189	66.304
3.7162	66.277
3.7136	66.250
3.7109	66.223
3.7083	66.199
3.7056	66.176
3.7030	66.156
3.7003	66.138
3.6977	66.118
3.6950	66.096
3.6924	66.070
3.6898	66.040
3.6872	66.007
3.6845	65.972
3.6819	65.938
3.6793	65.905
3.6767	65.872
3.6741	65.838
3.6715	65.802
3.6689	65.762
3.6663	65.717
3.6637	65.668
3.6611	65.615
3.6585	65.560
3.6560	65.506
3.6534	65.452
3.6508	65.399
3.6482	65.345
3.6457	65.291
3.6431	65.234
3.6406	65.175
3.6380	65.114
3.6355	65.050
3.6329	64.987
3.6304	64.923
3.6278	64.858
3.6253	64.791
3.6227	64.722
3.6202	64.650
3.6177	64.575
3.6152	64.499
3.6127	64.425
3.6101	64.354
3.6076	64.285
3.6051	64.220
3.6026	64.155
3.6001	64.090
3.5976	64.022
3.5951	63.951
3.5926	63.879
3.5901	63.805
3.5876	63.730
3.5852	63.657
3.5827	63.583
3.5802	63.510
3.5777	63.435
3.5753	63.359
3.5728	63.278
3.5704	63.195
3.5679	63.108
3.5654	63.019
3.5630	62.928
3.5605	62.836
3.5581	62.745
3.5557	62.654
3.5532	62.562
3.5508	62.467
3.5484	62.369
3.5459	62.266
3.5435	62.158
3.5411	62.044
3.5387	61.926
3.5363	61.807
3.5338	61.687
3.5314	61.566
3.5290	61.446
3.5266	61.323
3.5242	61.198
3.5218	61.069
3.5195	60.938
3.5171	60.808
3.5147	60.682
3.5123	60.564
3.5099	60.455
3.5075	60.359
3.5052	60.277
3.5028	60.209
3.5004	60.155
3.4981	60.113
3.4957	60.080
3.4934	60.050
3.4910	60.020
3.4887	59.984
3.4863	59.943
3.4840	59.895
3.4816	59.842
3.4793	59.785
3.4770	59.724
3.4746	59.660
3.4723	59.594
3.4700	59.524
3.4677	59.451
3.4653	59.374
3.4630	59.292
3.4607	59.204
3.4584	59.108
3.4561	59.003
3.4538	58.888
3.4515	58.766
3.4492	58.642
3.4469	58.521
3.4446	58.410
3.4423	58.312
3.4400	58.229
3.4378	58.156
3.4355	58.089
3.4332	58.019
3.4309	57.939
3.4287	57.844
3.4264	57.732
3.4241	57.606
3.4219	57.471
3.4196	57.334
3.4174	57.201
3.4151	57.079
3.4129	56.970
3.4106	56.873
3.4084	56.784
3.4061	56.702
3.4039	56.622
3.4017	56.543
3.3994	56.463
3.3972	56.381
3.3950	56.298
3.3928	56.209
3.3906	56.114
3.3883	56.012
3.3861	55.902
3.3839	55.788
3.3817	55.675
3.3795	55.565
3.3773	55.460
3.3751	55.360
3.3729	55.259
3.3707	55.154
3.3685	55.043
3.3663	54.926
3.3641	54.806
3.3620	54.689
3.3598	54.577
3.3576	54.472
3.3554	54.375
3.3533	54.282
3.3511	54.191
3.3489	54.099
3.3468	54.004
3.3446	53.906
3.3425	53.807
3.3403	53.706
3.3382	53.606
3.3360	53.506
3.3339	53.405
3.3317	53.302
3.3296	53.198
3.3274	53.092
3.3253	52.983
3.3232	52.871
3.3210	52.756
3.3189	52.639
3.3168	52.520
3.3147	52.398
3.3126	52.274
3.3104	52.148
3.3083	52.021
3.3062	51.892
3.3041	51.759
3.3020	51.624
3.2999	51.486
3.2978	51.347
3.2957	51.209
3.2936	51.075
3.2915	50.944
3.2894	50.819
3.2874	50.696
3.2853	50.575
3.2832	50.453
3.2811	50.329
3.2790	50.200
3.2770	50.069
3.2749	49.936
3.2728	49.803
3.2708	49.673
3.2687	49.545
3.2666	49.420
3.2646	49.297
3.2625	49.173
3.2605	49.049
3.2584	48.922
3.2564	48.793
3.2543	48.665
3.2523	48.536
3.2503	48.410
3.2482	48.286
3.2462	48.165
3.2442	48.045
3.2421	47.924
3.2401	47.801
3.2381	47.674
3.2361	47.542
3.2340	47.405
3.2320	47.263
3.2300	47.120
3.2280	46.976
3.2260	46.834
3.2240	46.694
3.2220	46.556
3.2200	46.417
3.2180	46.274
3.2160	46.125
3.2140	45.970
3.2120	45.809
3.2100	45.645
3.2080	45.483
3.2060	45.325
3.2040	45.170
3.2021	45.016
3.2001	44.860
3.1981	44.696
3.1961	44.523
3.1942	44.339
3.1922	44.145
3.1902	43.946
3.1883	43.746
3.1863	43.547
3.1844	43.355
3.1824	43.168
3.1805	42.987
3.1785	42.809
3.1766	42.632
3.1746	42.455
3.1727	42.275
3.1707	42.096
3.1688	41.919
3.1669	41.748
3.1649	41.585
3.1630	41.430
3.1611	41.282
3.1591	41.138
3.1572	40.995
3.1553	40.851
3.1534	40.709
3.1515	40.569
3.1495	40.433
3.1476	40.303
3.1457	40.177
3.1438	40.050
3.1419	39.918
3.1400	39.780
3.1381	39.636
3.1362	39.489
3.1343	39.345
3.1324	39.209
3.1305	39.082
3.1286	38.963
3.1268	38.846
3.1249	38.726
3.1230	38.597
3.1211	38.458
3.1192	38.309
3.1174	38.154
3.1155	37.997
3.1136	37.841
3.1117	37.691
3.1099	37.548
3.1080	37.410
3.1061	37.278
3.1043	37.149
3.1024	37.018
3.1006	36.883
3.0987	36.742
3.0969	36.595
3.0950	36.444
3.0932	36.292
3.0913	36.143
3.0895	35.999
3.0876	35.861
3.0858	35.726
3.0840	35.592
3.0821	35.458
3.0803	35.324
3.0785	35.189
3.0766	35.057
3.0748	34.929
3.0730	34.806
3.0712	34.688
3.0694	34.573
3.0675	34.459
3.0657	34.343
3.0639	34.227
3.0621	34.110
3.0603	33.995
3.0585	33.883
3.0567	33.773
3.0549	33.664
3.0531	33.554
3.0513	33.442
3.0495	33.326
3.0477	33.208
3.0459	33.090
3.0441	32.971
3.0423	32.854
3.0406	32.738
3.0388	32.626
3.0370	32.517
3.0352	32.409
3.0334	32.301
3.0317	32.188
3.0299	32.067
3.0281	31.937
3.0264	31.798
3.0246	31.652
3.0228	31.502
3.0211	31.353
3.0193	31.205
3.0176	31.059
3.0158	30.911
3.0140	30.760
3.0123	30.605
3.0105	30.449
3.0088	30.295
3.0070	30.149
3.0053	30.014
3.0036	29.895
3.0018	29.791
3.0001	29.700
2.9984	29.618
2.9966	29.541
2.9949	29.464
2.9932	29.385
2.9914	29.303
2.9897	29.219
2.9880	29.135
2.9863	29.054
2.9845	28.974
2.9828	28.897
2.9811	28.821
2.9794	28.746
2.9777	28.673
2.9760	28.601
2.9743	28.532
2.9726	28.467
2.9709	28.406
2.9692	28.347
2.9675	28.292
2.9658	28.238
2.9641	28.187
2.9624	28.138
2.9607	28.091
2.9590	28.048
2.9573	28.009
2.9556	27.974
2.9539	27.942
2.9523	27.912
2.9506	27.881
2.9489	27.850
2.9472	27.817
2.9455	27.784
2.9439	27.753
2.9422	27.728
2.9405	27.709
2.9389	27.698
2.9372	27.696
2.9355	27.700
2.9339	27.712
2.9322	27.728
2.9306	27.749
2.9289	27.773
2.9272	27.799
2.9256	27.828
2.9239	27.859
2.9223	27.892
2.9207	27.929
2.9190	27.969
2.9174	28.011
2.9157	28.056
2.9141	28.103
2.9124	28.150
2.9108	28.200
2.9092	28.251
2.9075	28.303
2.9059	28.357
2.9043	28.412
2.9027	28.469
2.9010	28.528
2.8994	28.589
2.8978	28.652
2.8962	28.717
2.8946	28.782
2.8929	28.847
2.8913	28.907
2.8897	28.963
2.8881	29.011
2.8865	29.053
2.8849	29.086
2.8833	29.111
2.8817	29.127
2.8801	29.135
2.8785	29.135
2.8769	29.128
2.8753	29.117
2.8737	29.104
2.8721	29.093
2.8705	29.086
2.8689	29.085
2.8673	29.090
2.8658	29.098
2.8642	29.108
2.8626	29.116
2.8610	29.120
2.8594	29.117
2.8579	29.107
2.8563	29.089
2.8547	29.064
2.8531	29.037
2.8516	29.010
2.8500	28.985
2.8484	28.963
2.8469	28.943
2.8453	28.919
2.8437	28.887
2.8422	28.844
2.8406	28.788
2.8391	28.721
2.8375	28.647
2.8360	28.568
2.8344	28.489
2.8329	28.411
2.8313	28.333
2.8298	28.256
2.8282	28.180
2.8267	28.105
2.8252	28.034
2.8236	27.966
2.8221	27.905
2.8205	27.853
2.8190	27.810
2.8175	27.779
2.8159	27.760
2.8144	27.750
2.8129	27.746
2.8114	27.746
2.8098	27.745
2.8083	27.743
2.8068	27.743
2.8053	27.752
2.8038	27.776
2.8022	27.820
2.8007	27.886
2.7992	27.969
2.7977	28.061
2.7962	28.153
2.7947	28.235
2.7932	28.302
2.7917	28.353
2.7902	28.387
2.7887	28.406
2.7872	28.409
2.7857	28.394
2.7842	28.358
2.7827	28.294
2.7812	28.199
2.7797	28.066
2.7782	27.892
2.7767	27.673
2.7752	27.408
2.7738	27.098
2.7723	26.747
2.7708	26.360
2.7693	25.951
2.7678	25.535
2.7664	25.130
2.7649	24.753
2.7634	24.422
2.7619	24.152
2.7605	23.957
2.7590	23.849
2.7575	23.839
2.7561	23.932
2.7546	24.127
2.7531	24.407
2.7517	24.749
2.7502	25.119
2.7488	25.488
2.7473	25.834
2.7458	26.152
2.7444	26.452
2.7429	26.752
2.7415	27.075
2.7400	27.438
2.7386	27.853
2.7371	28.323
2.7357	28.849
2.7343	29.427
2.7328	30.058
2.7314	30.741
2.7299	31.481
2.7285	32.286
2.7271	33.170
2.7256	34.150
2.7242	35.242
2.7228	36.453
2.7213	37.775
2.7199	39.179
2.7185	40.620
2.7171	42.042
2.7156	43.392
2.7142	44.629
2.7128	45.734
2.7114	46.712
2.7100	47.586
2.7085	48.395
2.7071	49.184
2.7057	49.998
2.7043	50.874
2.7029	51.837
2.7015	52.902
2.7001	54.066
2.6987	55.318
2.6973	56.638
2.6959	58.002
2.6945	59.386
2.6931	60.758
2.6917	62.088
2.6903	63.342
2.6889	64.489
2.6875	65.502
2.6861	66.367
2.6847	67.085
2.6833	67.670
2.6819	68.148
2.6805	68.549
2.6791	68.901
2.6778	69.224
2.6764	69.527
2.6750	69.810
2.6736	70.071
2.6722	70.312
2.6709	70.545
2.6695	70.785
2.6681	71.055
2.6667	71.370
2.6654	71.728
2.6640	72.115
2.6626	72.503
2.6613	72.863
2.6599	73.169
2.6585	73.412
2.6572	73.596
2.6558	73.739
2.6545	73.860
2.6531	73.976
2.6517	74.094
2.6504	74.213
2.6490	74.328
2.6477	74.433
2.6463	74.525
2.6450	74.608
2.6436	74.686
2.6423	74.760
2.6409	74.830
2.6396	74.887
2.6382	74.920
2.6369	74.917
2.6356	74.879
2.6342	74.814
2.6329	74.745
2.6315	74.700
2.6302	74.697
2.6289	74.743
2.6275	74.826
2.6262	74.918
2.6249	74.987
2.6236	75.013
2.6222	74.996
2.6209	74.957
2.6196	74.928
2.6183	74.940
2.6169	75.005
2.6156	75.112
2.6143	75.228
2.6130	75.315
2.6117	75.347
2.6103	75.319
2.6090	75.252
2.6077	75.186
2.6064	75.158
2.6051	75.186
2.6038	75.256
2.6025	75.333
2.6012	75.373
2.5999	75.348
2.5986	75.261
2.5973	75.152
2.5960	75.074
2.5947	75.073
2.5934	75.163
2.5921	75.323
2.5908	75.505
2.5895	75.659
2.5882	75.752
2.5869	75.785
2.5856	75.783
2.5843	75.780
2.5830	75.798
2.5817	75.845
2.5805	75.906
2.5792	75.964
2.5779	76.003
2.5766	76.022
2.5753	76.033
2.5741	76.051
2.5728	76.087
2.5715	76.141
2.5702	76.202
2.5690	76.253
2.5677	76.281
2.5664	76.283
2.5651	76.270
2.5639	76.261
2.5626	76.276
2.5613	76.328
2.5601	76.415
2.5588	76.522
2.5575	76.626
2.5563	76.708
2.5550	76.757
2.5538	76.777
2.5525	76.778
2.5513	76.774
2.5500	76.776
2.5487	76.788
2.5475	76.809
2.5462	76.834
2.5450	76.859
2.5437	76.882
2.5425	76.901
2.5413	76.916
2.5400	76.926
2.5388	76.932
2.5375	76.933
2.5363	76.933
2.5350	76.936
2.5338	76.945
2.5326	76.963
2.5313	76.987
2.5301	77.013
2.5289	77.037
2.5276	77.055
2.5264	77.065
2.5252	77.068
2.5239	77.066
2.5227	77.061
2.5215	77.055
2.5202	77.049
2.5190	77.042
2.5178	77.034
2.5166	77.026
2.5154	77.019
2.5141	77.014
2.5129	77.009
2.5117	77.003
2.5105	76.996
2.5093	76.988
2.5081	76.978
2.5068	76.968
2.5056	76.960
2.5044	76.955
2.5032	76.956
2.5020	76.963
2.5008	76.976
2.4996	76.994
2.4984	77.016
2.4972	77.038
2.4960	77.055
2.4948	77.064
2.4936	77.061
2.4924	77.049
2.4912	77.032
2.4900	77.016
2.4888	77.007
2.4876	77.008
2.4864	77.022
2.4852	77.045
2.4840	77.074
2.4828	77.103
2.4816	77.130
2.4805	77.151
2.4793	77.164
2.4781	77.170
2.4769	77.172
2.4757	77.170
2.4745	77.167
2.4734	77.164
2.4722	77.162
2.4710	77.161
2.4698	77.163
2.4686	77.169
2.4675	77.180
2.4663	77.196
2.4651	77.218
2.4640	77.245
2.4628	77.275
2.4616	77.307
2.4604	77.338
2.4593	77.367
2.4581	77.394
2.4569	77.417
2.4558	77.437
2.4546	77.452
2.4535	77.465
2.4523	77.474
2.4511	77.481
2.4500	77.488
2.4488	77.498
2.4477	77.511
2.4465	77.529
2.4454	77.551
2.4442	77.575
2.4431	77.598
2.4419	77.618
2.4408	77.633
2.4396	77.646
2.4385	77.656
2.4373	77.668
2.4362	77.684
2.4350	77.705
2.4339	77.732
2.4327	77.765
2.4316	77.802
2.4305	77.841
2.4293	77.882
2.4282	77.922
2.4270	77.961
2.4259	77.997
2.4248	78.029
2.4236	78.058
2.4225	78.084
2.4214	78.111
2.4202	78.139
2.4191	78.172
2.4180	78.207
2.4169	78.243
2.4157	78.277
2.4146	78.304
2.4135	78.322
2.4124	78.332
2.4112	78.337
2.4101	78.342
2.4090	78.348
2.4079	78.358
2.4068	78.369
2.4056	78.380
2.4045	78.387
2.4034	78.390
2.4023	78.389
2.4012	78.387
2.4001	78.387
2.3990	78.389
2.3979	78.392
2.3967	78.393
2.3956	78.387
2.3945	78.371
2.3934	78.346
2.3923	78.317
2.3912	78.287
2.3901	78.264
2.3890	78.249
2.3879	78.243
2.3868	78.240
2.3857	78.236
2.3846	78.226
2.3835	78.208
2.3824	78.185
2.3813	78.160
2.3802	78.135
2.3791	78.111
2.3781	78.084
2.3770	78.049
2.3759	78.003
2.3748	77.942
2.3737	77.870
2.3726	77.789
2.3715	77.707
2.3704	77.625
2.3694	77.546
2.3683	77.470
2.3672	77.396
2.3661	77.323
2.3650	77.251
2.3640	77.179
2.3629	77.108
2.3618	77.037
2.3607	76.964
2.3597	76.889
2.3586	76.814
2.3575	76.739
2.3564	76.666
2.3554	76.596
2.3543	76.529
2.3532	76.467
2.3522	76.412
2.3511	76.368
2.3500	76.338
2.3490	76.325
2.3479	76.327
2.3468	76.342
2.3458	76.362
2.3447	76.384
2.3436	76.405
2.3426	76.425
2.3415	76.448
2.3405	76.477
2.3394	76.515
2.3384	76.560
2.3373	76.613
2.3363	76.669
2.3352	76.727
2.3342	76.787
2.3331	76.852
2.3321	76.920
2.3310	76.994
2.3300	77.073
2.3289	77.156
2.3279	77.242
2.3268	77.328
2.3258	77.415
2.3247	77.502
2.3237	77.588
2.3226	77.673
2.3216	77.754
2.3206	77.828
2.3195	77.895
2.3185	77.953
2.3175	78.007
2.3164	78.058
2.3154	78.110
2.3144	78.168
2.3133	78.232
2.3123	78.303
2.3113	78.379
2.3102	78.457
2.3092	78.535
2.3082	78.611
2.3071	78.685
2.3061	78.756
2.3051	78.824
2.3041	78.887
2.3030	78.947
2.3020	79.001
2.3010	79.053
2.3000	79.103
2.2990	79.155
2.2979	79.211
2.2969	79.271
2.2959	79.333
2.2949	79.394
2.2939	79.453
2.2929	79.507
2.2918	79.557
2.2908	79.602
2.2898	79.641
2.2888	79.675
2.2878	79.701
2.2868	79.722
2.2858	79.739
2.2848	79.758
2.2838	79.781
2.2828	79.811
2.2818	79.847
2.2808	79.887
2.2798	79.926
2.2787	79.957
2.2777	79.976
2.2767	79.982
2.2757	79.974
2.2747	79.953
2.2738	79.926
2.2728	79.895
2.2718	79.864
2.2708	79.835
2.2698	79.807
2.2688	79.777
2.2678	79.744
2.2668	79.706
2.2658	79.662
2.2648	79.617
2.2638	79.573
2.2628	79.532
2.2618	79.500
2.2609	79.476
2.2599	79.463
2.2589	79.457
2.2579	79.457
2.2569	79.458
2.2559	79.457
2.2550	79.454
2.2540	79.450
2.2530	79.452
2.2520	79.466
2.2510	79.496
2.2501	79.545
2.2491	79.611
2.2481	79.689
2.2471	79.771
2.2462	79.851
2.2452	79.924
2.2442	79.989
2.2433	80.049
2.2423	80.104
2.2413	80.157
2.2403	80.212
2.2394	80.269
2.2384	80.329
2.2374	80.393
2.2365	80.461
2.2355	80.529
2.2345	80.594
2.2336	80.651
2.2326	80.695
2.2317	80.721
2.2307	80.731
2.2297	80.728
2.2288	80.715
2.2278	80.697
2.2269	80.676
2.2259	80.650
2.2250	80.619
2.2240	80.581
2.2231	80.537
2.2221	80.490
2.2211	80.443
2.2202	80.401
2.2192	80.363
2.2183	80.327
2.2173	80.287
2.2164	80.238
2.2155	80.173
2.2145	80.092
2.2136	79.999
2.2126	79.899
2.2117	79.799
2.2107	79.707
2.2098	79.626
2.2088	79.556
2.2079	79.495
2.2070	79.439
2.2060	79.387
2.2051	79.340
2.2041	79.298
2.2032	79.265
2.2023	79.240
2.2013	79.224
2.2004	79.215
2.1995	79.213
2.1985	79.218
2.1976	79.235
2.1967	79.267
2.1957	79.318
2.1948	79.387
2.1939	79.474
2.1930	79.573
2.1920	79.681
2.1911	79.793
2.1902	79.907
2.1893	80.023
2.1883	80.138
2.1874	80.253
2.1865	80.364
2.1856	80.473
2.1846	80.578
2.1837	80.680
2.1828	80.779
2.1819	80.875
2.1810	80.966
2.1800	81.052
2.1791	81.133
2.1782	81.212
2.1773	81.293
2.1764	81.379
2.1755	81.471
2.1746	81.565
2.1736	81.656
2.1727	81.732
2.1718	81.789
2.1709	81.828
2.1700	81.854
2.1691	81.877
2.1682	81.906
2.1673	81.943
2.1664	81.990
2.1655	82.040
2.1646	82.087
2.1637	82.130
2.1628	82.169
2.1619	82.210
2.1610	82.258
2.1601	82.313
2.1592	82.372
2.1583	82.428
2.1574	82.471
2.1565	82.497
2.1556	82.505
2.1547	82.499
2.1538	82.488
2.1529	82.479
2.1520	82.478
2.1511	82.486
2.1502	82.500
2.1493	82.517
2.1484	82.535
2.1475	82.552
2.1466	82.568
2.1458	82.585
2.1449	82.602
2.1440	82.621
2.1431	82.641
2.1422	82.661
2.1413	82.679
2.1404	82.691
2.1396	82.691
2.1387	82.676
2.1378	82.648
2.1369	82.613
2.1360	82.582
2.1352	82.565
2.1343	82.568
2.1334	82.588
2.1325	82.619
2.1316	82.647
2.1308	82.665
2.1299	82.671
2.1290	82.666
2.1281	82.656
2.1273	82.645
2.1264	82.632
2.1255	82.615
2.1247	82.589
2.1238	82.555
2.1229	82.519
2.1220	82.488
2.1212	82.473
2.1203	82.477
2.1194	82.502
2.1186	82.542
2.1177	82.587
2.1168	82.631
2.1160	82.665
2.1151	82.689
2.1143	82.701
2.1134	82.704
2.1125	82.700
2.1117	82.691
2.1108	82.679
2.1100	82.663
2.1091	82.643
2.1082	82.618
2.1074	82.588
2.1065	82.558
2.1057	82.533
2.1048	82.523
2.1040	82.533
2.1031	82.563
2.1023	82.605
2.1014	82.646
2.1005	82.671
2.0997	82.672
2.0988	82.647
2.0980	82.607
2.0971	82.567
2.0963	82.542
2.0955	82.542
2.0946	82.568
2.0938	82.617
2.0929	82.677
2.0921	82.739
2.0912	82.792
2.0904	82.829
2.0895	82.848
2.0887	82.848
2.0879	82.833
2.0870	82.812
2.0862	82.788
2.0853	82.766
2.0845	82.746
2.0837	82.731
2.0828	82.713
2.0820	82.710
2.0812	82.702
2.0803	82.706
2.0795	82.768
2.0760	82.768
2.0720	82.673
2.0680	82.601
2.0640	82.696
2.0600	82.625
2.0560	82.696
2.0520	82.625
2.0480	82.412
2.0440	82.153
2.0400	81.705
2.0360	81.496
2.0320	81.055
2.0280	80.942
2.0240	81.011
2.0200	80.962
2.0160	80.706
2.0120	80.314
2.0080	79.899
2.0040	79.764
2.0000	79.882
1.9960	79.495
1.9920	79.562
1.9880	79.336
1.9840	79.151
1.9800	78.556
1.9760	78.267
1.9720	78.294
1.9680	77.861
1.9640	77.639
1.9600	77.926
1.9560	77.991
1.9520	77.834
1.9480	77.585
1.9440	77.309
1.9400	77.098
1.9360	76.987
1.9320	77.054
1.9280	77.107
1.9240	76.743
1.9200	76.743
1.9160	76.585
1.9120	76.305
1.9080	76.305
1.9040	76.405
1.9000	76.453
1.8960	76.641
1.8920	77.143
1.8880	77.142
1.8840	77.431
1.8800	77.896
1.8760	78.086
1.8720	78.226
1.8680	78.636
1.8640	78.530
1.8600	78.491
1.8560	78.440
1.8520	78.492
1.8480	78.475
1.8440	78.995
1.8400	79.380
1.8360	79.487
1.8320	79.589
1.8280	78.890
1.8240	77.920
1.8200	77.924
1.8160	77.771
1.8120	77.312
1.8080	77.339
1.8040	77.349
1.8000	77.349
1.7960	76.678
1.7920	77.071
1.7880	77.133
1.7840	77.133
1.7800	77.079
1.7760	76.417
1.7720	76.293
1.7680	76.221
1.7640	76.132
1.7600	75.963
1.7560	75.990
1.7520	75.984
1.7480	75.506
1.7440	75.422
1.7400	75.455
1.7360	75.919
1.7320	75.744
1.7280	75.687
1.7240	75.507
1.7200	75.744
1.7160	75.885
1.7120	76.576
1.7080	75.922
1.7040	75.549
1.7000	75.342
1.6960	75.436
1.6920	75.432
1.6880	75.286
1.6840	75.395
1.6800	75.516
1.6760	75.130
1.6720	74.871
1.6680	74.571
1.6640	74.096
1.6600	74.156
1.6560	73.946
1.6520	73.471
1.6480	73.827
1.6440	74.457
1.6400	73.947
1.6360	73.768
1.6320	73.768
1.6280	73.559
1.6240	73.261
1.6200	73.411
1.6160	73.086
1.6120	72.138
1.6080	72.219
1.6040	72.422
1.6000	72.481
1.5960	72.215
1.5920	72.391
1.5880	72.422
1.5840	72.481
1.5800	72.987
1.5760	72.797
1.5720	72.320
1.5680	71.818
1.5640	71.148
1.5600	70.864
1.5560	70.662
1.5520	70.799
1.5480	70.848
1.5440	70.614
1.5400	70.421
1.5360	71.019
1.5320	71.012
1.5280	70.980
1.5240	70.898
1.5200	70.581
1.5160	70.202
1.5120	70.371
1.5080	70.883
1.5040	70.957
1.5000	70.629
1.4960	70.106
1.4920	69.241
1.4880	68.929
1.4840	68.729
1.4800	68.241
1.4760	67.954
1.4720	67.722
1.4680	68.377
1.4640	68.598
1.4600	68.377
1.4560	68.322
1.4520	68.336
1.4480	67.904
1.4440	67.854
1.4400	67.777
1.4360	67.796
1.4320	67.906
1.4280	67.526
1.4240	67.362
1.4200	67.039
1.4160	66.320
1.4120	65.957
1.4080	66.141
1.4040	66.138
1.4000	65.872
1.3960	65.652
1.3920	65.530
1.3880	65.393
1.3840	65.160
1.3800	65.615
1.3760	65.975
1.3720	65.530
1.3680	65.611
1.3640	65.801
1.3600	65.623
1.3560	65.334
1.3520	65.087
1.3480	65.020
1.3440	65.183
1.3400	64.838
1.3360	64.497
1.3320	64.536
1.3280	64.460
1.3240	64.164
1.3200	64.116
1.3160	63.896
1.3120	63.577
1.3080	63.399
1.3040	63.209
1.3000	63.031
1.2960	62.942
1.2920	62.913
1.2880	62.565
1.2840	62.545
1.2800	62.715
1.2760	62.654
1.2720	62.654
1.2680	62.624
1.2640	62.276
1.2600	62.094
1.2560	61.994
1.2520	62.085
1.2480	62.035
1.2440	61.646
1.2400	61.474
1.2360	61.251
1.2320	60.937
1.2280	61.042
1.2240	60.937
1.2200	60.888
1.2160	60.713
1.2120	60.296
1.2080	60.285
1.2040	60.285
1.2000	60.104
1.1960	60.246
1.1920	60.103
1.1880	59.803
1.1840	59.756
1.1800	59.709
1.1760	59.569
1.1720	59.297
1.1680	59.297
1.1640	59.038
1.1600	58.899
1.1560	58.951
1.1520	58.605
1.1480	58.647
1.1440	58.875
1.1400	58.558
1.1360	58.337
1.1320	58.109
1.1280	57.883
1.1240	57.839
1.1200	57.848
1.1160	57.803
1.1120	57.987
1.1080	57.577
1.1040	56.940
1.1000	57.341
1.0960	57.531
1.0920	57.621
1.0880	57.849
1.0840	58.125
1.0800	57.349
1.0760	57.667
1.0720	57.223
1.0680	56.766
1.0640	56.910
1.0600	56.998
1.0560	56.643
1.0520	56.555
1.0480	57.063
1.0440	57.269
1.0400	57.403
1.0360	57.358
1.0320	57.267
1.0280	56.906
1.0240	56.814
1.0200	56.995
1.0160	57.040
1.0120	56.547
1.0080	56.906
1.0040	56.724
1.0000	56.411
0.99600	56.042
0.99200	56.931
0.98800	56.865
0.98400	56.360
0.98000	56.131
0.97600	55.681
0.97200	55.687
0.96800	55.905
0.96400	55.900
0.96000	55.634
0.95600	55.768
0.95200	55.367
0.94800	55.367
0.94400	55.277
0.94000	55.190
0.93600	54.925
0.93200	54.967
0.92800	54.622
0.92400	55.013
0.92000	54.711
0.91600	54.659
0.91200	54.617
0.90800	54.702
0.90400	54.528
0.90000	54.523
0.89600	54.570
0.89200	54.481
0.88800	54.165
0.88400	54.250
0.88000	54.240
0.87600	54.278
0.87200	54.576
0.86800	54.220
0.86400	54.257
0.86000	54.416
0.85600	54.199
0.85200	54.151
0.84800	54.220
0.84400	54.097
0.84000	54.006
0.83600	54.221
0.83200	54.060
0.82800	53.927
0.82400	53.709
0.82000	54.146
0.81600	54.133
0.81200	53.922
0.80800	54.186
0.80400	54.282
0.80000	54.244
0.79900	53.701
0.79800	53.701
0.79700	53.653
0.79600	53.847
0.79500	53.847
0.79400	54.088
0.79300	53.944
0.79200	53.506
0.79100	53.553
0.79000	53.844
0.78900	53.701
0.78800	53.702
0.78700	53.361
0.78600	53.315
0.78500	53.506
0.78400	53.698
0.78300	53.309
0.78200	53.170
0.78100	53.070
0.78000	53.212
0.77900	53.746
0.77800	53.357
0.77700	53.164
0.77600	53.024
0.77500	52.829
0.77400	52.829
0.77300	52.829
0.77200	52.972
0.77100	53.168
0.77000	52.451
0.76900	52.450
0.76800	52.778
0.76700	53.064
0.76600	53.064
0.76500	52.923
0.76400	53.158
0.76300	53.113
0.76200	52.536
0.76100	52.913
0.76000	52.873
0.75900	52.441
0.75800	52.248
0.75700	52.538
0.75600	52.145
0.75500	52.528
0.75400	52.863
0.75300	52.198
0.75200	51.858
0.75100	51.955
0.75000	51.959
0.74900	52.145
0.74800	52.048
0.74700	52.145
0.74600	51.858
0.74500	51.854
0.74400	51.802
0.74300	51.384
0.74200	51.465
0.74100	52.173
0.74000	52.175
0.73900	51.750
0.73800	51.847
0.73700	51.467
0.73600	51.419
0.73500	51.370
0.73400	51.458
0.73300	51.698
0.73200	51.886
0.73100	51.702
0.73000	51.855
0.72900	51.748
0.72800	51.986
0.72700	51.452
0.72600	51.592
0.72500	51.788
0.72400	51.600
0.72300	50.920
0.72200	50.876
0.72100	51.355
0.72000	51.397
0.71900	51.478
0.71800	51.525
0.71700	51.870
0.71600	51.582
0.71500	51.302
0.71400	51.107
0.71300	51.300
0.71200	51.635
0.71100	51.535
0.71000	51.527
0.70900	51.582
0.70800	51.382
0.70700	51.004
0.70600	51.097
0.70500	51.046
0.70400	51.186
0.70300	51.240
0.70200	51.435
0.70100	51.440
0.70000	51.476
0.69900	51.903
0.69800	51.382
0.69700	51.635
0.69600	51.543
0.69500	51.439
0.69400	51.539
0.69300	51.691
0.69200	51.447
0.69100	51.639
0.69000	51.791
0.68900	52.237
0.68800	51.839
0.68700	51.739
0.68600	51.839
0.68500	51.735
0.68400	51.539
0.68300	51.539
0.68200	51.391
0.68100	51.691
0.68000	51.736
0.67900	51.885
0.67800	51.836
0.67700	51.439
0.67600	51.739
0.67500	51.985
0.67400	51.784
0.67300	52.086
0.67200	51.691
0.67100	51.982
0.67000	52.235
0.66900	52.384
0.66800	52.435
0.66700	52.033
0.66600	51.784
0.66500	51.635
0.66400	51.391
0.66300	51.443
0.66200	51.877
0.66100	52.079
0.66000	52.083
0.65900	52.329
0.65800	52.329
0.65700	52.331
0.65600	52.186
0.65500	52.134
0.65400	52.037
0.65300	52.040
0.65200	52.240
0.65100	52.242
0.65000	51.646
0.64900	51.404
0.64800	51.801
0.64700	52.033
0.64600	52.835
0.64500	52.834
0.64400	52.835
0.64300	52.432
0.64200	52.186
0.64100	52.338
0.64000	52.886
0.63900	52.586
0.63800	52.436
0.63700	52.291
0.63600	52.045
0.63500	51.791
0.63400	51.839
0.63300	51.891
0.63200	52.142
0.63100	52.387
0.63000	52.340
0.62900	52.142
0.62800	51.694
0.62700	51.994
0.62600	52.242
0.62500	52.588
0.62400	52.739
0.62300	52.391
0.62200	52.293
0.62100	52.343
0.62000	52.537
0.61900	52.784
0.61800	53.238
0.61700	53.087
0.61600	52.835
0.61500	52.634
0.61400	52.436
0.61300	52.240
0.61200	52.634
0.61100	52.532
0.61000	52.684
0.60900	52.432
0.60800	52.383
0.60700	52.281
0.60600	52.177
0.60500	52.230
0.60400	52.028
0.60300	52.228
0.60200	52.377
0.60100	52.115
0.60000	52.209
0.59900	52.153
0.59800	52.259
0.59700	52.510
0.59600	52.249
0.59500	51.699
0.59400	51.742
0.59300	52.453
0.59200	52.459
0.59100	52.408
0.59000	52.095
0.58900	52.051
0.58800	52.356
0.58700	52.151
0.58600	52.252
0.58500	52.294
0.58400	51.643
0.58300	52.156
0.58200	51.948
0.58100	51.898
0.58000	51.948
0.57900	52.048
0.57800	51.998
0.57700	51.798
0.57600	51.901
0.57500	51.951
0.57400	51.851
0.57300	51.552
0.57200	51.318
0.57100	51.513
0.57000	51.419
0.56900	51.269
0.56800	51.371
0.56700	51.463
0.56600	51.513
0.56500	51.464
0.56400	51.367
0.56300	51.460
0.56200	51.005
0.56100	51.005
0.56000	51.407
0.55900	51.088
0.55800	51.088
0.55700	51.392
0.55600	51.500
0.55500	51.509
0.55400	51.500
0.55300	51.203
0.55200	51.141
0.55100	51.176
0.55000	50.715
0.54900	51.083
0.54800	50.913
0.54700	50.769
0.54600	50.993
0.54500	50.983
0.54400	50.803
0.54300	50.973
0.54200	50.817
0.54100	50.616
0.54000	50.616
0.53900	50.831
0.53800	50.979
0.53700	50.538
0.53600	50.337
0.53500	50.191
0.53400	50.280
0.53300	49.837
0.53200	49.837
0.53100	49.595
0.53000	49.283
0.52900	49.697
0.52800	50.359
0.52700	49.913
0.52600	49.813
0.52500	49.913
0.52400	49.900
0.52300	49.669
0.52200	49.914
0.52100	49.871
0.52000	49.627
0.51900	49.280
0.51800	49.052
0.51700	49.296
0.51600	49.052
0.51500	49.382
0.51400	48.951
0.51300	48.893
0.51200	48.540
0.51100	48.299
0.51000	48.265
0.50900	48.182
0.50800	48.189
0.50700	48.339
0.50600	47.993
0.50500	48.171
0.50400	48.153
0.50300	48.160
0.50200	48.095
0.50100	48.264
0.50000	47.898
0.49900	47.485
0.49800	47.263
0.49700	47.203
0.49600	46.639
0.49500	46.457
0.49400	46.478
0.49300	46.497
0.49200	47.002
0.49100	47.207
0.49000	47.002
0.48900	46.696
0.48800	46.532
0.48700	46.395
0.48600	46.373
0.48500	45.982
0.48400	46.086
0.48300	46.104
0.48200	45.805
0.48100	45.501
0.48000	45.544
0.47900	45.520
0.47800	45.638
0.47700	45.209
0.47600	45.262
0.47500	44.981
0.47400	45.111
0.47300	44.725
0.47200	44.343
0.47100	44.535
0.47000	44.535
0.46900	43.970
0.46800	43.990
0.46700	43.941
0.46600	43.776
0.46500	43.601
0.46400	43.619
0.46300	43.350
0.46200	43.970
0.46100	43.377
0.46000	43.295
0.45900	44.639
0.45800	44.560
0.45700	44.570
0.45600	44.234
0.45500	44.121
0.45400	43.876
0.45300	43.936
0.45200	43.876
0.45100	43.729
0.45000	43.913
0.44900	43.921
0.44800	43.397
0.44700	43.330
0.44600	43.132
0.44500	42.921
0.44400	43.132
0.44300	42.707
0.44200	42.741
0.44100	42.821
0.44000	42.191
0.43900	42.261
0.43800	42.506
0.43700	42.362
0.43600	42.158
0.43500	42.333
0.43400	42.014
0.43300	41.557
0.43200	41.487
0.43100	41.485
0.43000	41.553
0.42900	41.230
0.42800	40.917
0.42700	40.683
0.42600	40.850
0.42500	40.250
0.42400	40.211
0.42300	40.386
0.42200	39.912
0.42100	39.760
0.42000	40.208
0.41900	39.931
0.41800	39.484
0.41700	39.240
0.41600	39.130
0.41500	39.104
0.41400	39.335
0.41300	38.993
0.41200	38.714
0.41100	38.352
0.41000	38.136
0.40900	38.337
0.40800	38.110
0.40700	38.140
0.40600	38.088
0.40500	37.711
0.40400	37.799
0.40300	37.905
0.40200	37.616
0.40100	37.591
0.40000	37.598
