Name: Diorite
Type: Rocks
Class: Igneous
Subclass: Intermediate
Particle Size: 0-75 micrometers
Sample No.: Diorite.H1
Owner: JHU
Wavelength range: All
Origin: Near Azusa, Los Angeles County, California, via Ward's Scientific 
(Cat. No. W-25)
Description: Powder derived from sample: a dark gray, medium-grained 
rock composed of plagioclase, a dark mafic phase and minor biotite.




Measurement: Directional (10 degree) hemispherical reflectance
First Column: X
Second Column: Y
X Units: Wavelength (micrometers)
Y Units: Reflectance (percent)
First X Value: 14.0112
Last X Value: 0.4000
Number of X Values: 2844
Additional information: diorit1a.txt

14.011	1.0237
13.973	3.8025
13.936	2.0400
13.899	0.1987
13.861	0.2550
13.824	0.4237
13.788	0.0000
13.751	1.3950
13.715	1.9912
13.679	0.9712
13.643	1.2225
13.607	0.9525
13.571	0.5925
13.536	1.3650
13.500	1.7475
13.465	2.0550
13.430	1.5712
13.396	0.7500
13.361	0.9000
13.327	1.2750
13.293	1.2421
13.259	0.6862
13.225	0.8484
13.191	1.2000
13.158	0.8081
13.124	0.7668
13.091	1.2722
13.058	1.7925
13.026	1.5750
12.993	1.3050
12.960	1.9397
12.928	2.2462
12.896	2.1328
12.864	1.7859
12.832	1.5849
12.800	1.4986
12.769	1.4179
12.737	1.4457
12.706	1.5103
12.675	1.9312
12.644	2.1075
12.614	2.0213
12.583	2.0330
12.552	1.9618
12.522	2.2467
12.492	2.6681
12.462	2.5860
12.432	2.6737
12.402	2.8247
12.373	2.9367
12.343	3.0740
12.314	3.3806
12.285	3.8367
12.256	3.9450
12.227	3.9703
12.198	4.1798
12.169	4.3945
12.141	4.3524
12.113	4.1990
12.084	4.2543
12.056	4.3725
12.028	4.3504
12.000	4.4418
11.973	4.4198
11.945	4.2958
11.918	4.2265
11.890	4.3005
11.863	4.2387
11.836	4.1852
11.809	4.1259
11.782	4.0392
11.755	3.9199
11.729	3.8252
11.702	3.9140
11.676	3.7974
11.650	3.6883
11.624	3.8187
11.598	3.8693
11.572	3.8587
11.546	3.8672
11.520	3.7953
11.495	3.8618
11.469	3.7932
11.444	3.5749
11.419	3.5559
11.394	3.5536
11.369	3.6159
11.344	3.6595
11.319	3.5686
11.294	3.4772
11.270	3.4577
11.245	3.3543
11.221	3.2437
11.197	3.2055
11.173	3.1821
11.149	3.2852
11.125	3.2747
11.101	3.0886
11.077	2.9460
11.054	3.0764
11.030	3.0799
11.007	3.0145
10.983	3.0304
10.960	2.9796
10.937	2.9824
10.914	2.9543
10.891	2.8699
10.868	2.8657
10.846	2.8617
10.823	2.7963
10.800	2.8444
10.778	2.9104
10.755	2.9714
10.733	3.0169
10.711	3.0031
10.689	3.0546
10.667	3.1092
10.645	3.0756
10.623	3.1319
10.602	3.1767
10.580	3.1818
10.558	3.1694
10.537	3.1296
10.516	3.1451
10.494	3.2124
10.473	3.2096
10.452	3.1336
10.431	3.1594
10.410	3.2226
10.389	3.1788
10.368	3.1725
10.348	3.2093
10.327	3.2792
10.306	3.3182
10.286	3.2629
10.266	3.2920
10.245	3.4446
10.225	3.4158
10.205	3.0764
10.185	3.2029
10.165	3.4467
10.145	3.4416
10.125	3.3977
10.106	3.4057
10.086	3.3823
10.066	3.2967
10.047	3.4101
10.027	3.4995
10.008	3.4805
9.9887	3.4692
9.9695	3.4472
9.9504	3.4210
9.9313	3.4324
9.9123	3.4387
9.8934	3.4353
9.8746	3.3706
9.8558	3.3504
9.8371	3.2803
9.8185	3.2203
9.7999	3.2112
9.7814	3.2390
9.7630	3.2060
9.7447	3.1190
9.7264	3.1212
9.7082	3.1104
9.6900	3.0417
9.6719	3.0190
9.6539	3.0647
9.6360	3.0255
9.6181	2.9737
9.6003	2.9803
9.5825	2.9044
9.5649	2.8936
9.5472	2.9013
9.5297	2.8390
9.5122	2.8071
9.4948	2.7639
9.4774	2.6784
9.4601	2.5974
9.4429	2.6360
9.4257	2.5596
9.4086	2.4584
9.3916	2.4792
9.3746	2.4506
9.3577	2.3463
9.3408	2.2446
9.3240	2.2132
9.3073	2.2143
9.2906	2.1790
9.2740	2.0917
9.2574	2.0346
9.2409	2.0215
9.2245	1.9608
9.2081	1.9359
9.1918	2.0634
9.1755	2.1028
9.1593	2.0372
9.1431	2.0264
9.1270	1.9777
9.1110	1.9717
9.0950	1.9748
9.0791	1.9683
9.0632	1.9158
9.0474	1.9190
9.0316	1.9974
9.0159	2.0325
9.0003	2.0025
8.9847	2.0215
8.9691	2.0911
8.9536	1.9753
8.9382	1.8659
8.9228	2.0067
8.9075	2.0268
8.8922	1.9950
8.8770	2.0794
8.8618	2.1342
8.8467	2.1607
8.8316	2.2169
8.8166	2.2826
8.8016	2.2294
8.7867	2.2153
8.7718	2.3553
8.7570	2.4319
8.7422	2.4520
8.7275	2.4431
8.7129	2.4593
8.6982	2.4930
8.6837	2.5090
8.6692	2.4904
8.6547	2.4392
8.6403	2.4293
8.6259	2.4621
8.6116	2.4434
8.5973	2.3527
8.5830	2.3208
8.5688	2.3267
8.5547	2.2940
8.5406	2.2190
8.5266	2.2462
8.5126	2.2781
8.4986	2.3262
8.4847	2.4553
8.4708	2.4197
8.4570	2.4018
8.4432	2.4853
8.4295	2.5608
8.4158	2.5964
8.4022	2.5678
8.3886	2.5322
8.3750	2.5476
8.3615	2.6325
8.3481	2.7033
8.3347	2.6911
8.3213	2.6489
8.3079	2.6203
8.2946	2.5697
8.2814	2.5359
8.2682	2.4823
8.2550	2.3418
8.2419	2.2018
8.2288	2.1468
8.2158	2.0555
8.2028	1.9538
8.1898	1.9122
8.1769	1.8759
8.1640	1.8075
8.1512	1.7337
8.1384	1.6865
8.1256	1.6210
8.1129	1.5951
8.1002	1.6376
8.0876	1.6252
8.0750	1.6210
8.0624	1.6613
8.0499	1.6875
8.0374	1.6688
8.0250	1.6275
8.0126	1.6425
8.0002	1.7184
7.9879	1.7662
7.9756	1.7990
7.9634	1.8117
7.9512	1.8680
7.9390	1.9955
7.9268	2.0428
7.9147	2.0751
7.9027	2.1497
7.8906	2.1956
7.8786	2.2987
7.8667	2.3977
7.8548	2.4577
7.8429	2.5207
7.8310	2.6231
7.8192	2.7122
7.8075	2.7896
7.7957	2.8814
7.7840	2.9639
7.7723	3.0059
7.7607	3.1148
7.7491	3.2561
7.7375	3.3488
7.7260	3.4514
7.7145	3.5337
7.7031	3.6276
7.6916	3.7361
7.6802	3.8369
7.6689	3.9857
7.6575	4.0856
7.6462	4.1283
7.6350	4.2525
7.6238	4.3558
7.6126	4.4508
7.6014	4.5572
7.5903	4.6671
7.5792	4.7611
7.5681	4.8602
7.5571	5.0124
7.5461	5.1084
7.5351	5.1710
7.5242	5.2678
7.5133	5.3486
7.5024	5.4614
7.4916	5.5910
7.4807	5.6639
7.4700	5.7586
7.4592	5.9023
7.4485	6.0304
7.4378	6.1308
7.4272	6.2386
7.4165	6.3035
7.4059	6.3860
7.3954	6.5437
7.3848	6.6698
7.3743	6.7359
7.3639	6.8573
7.3534	6.9872
7.3430	7.0935
7.3326	7.2415
7.3223	7.4039
7.3119	7.4875
7.3016	7.5656
7.2914	7.6835
7.2811	7.8016
7.2709	7.9439
7.2607	8.1206
7.2506	8.2472
7.2404	8.3766
7.2303	8.4891
7.2203	8.5610
7.2102	8.6296
7.2002	8.8192
7.1902	8.9867
7.1803	9.0644
7.1703	9.0895
7.1604	9.2241
7.1506	9.3680
7.1407	9.4908
7.1309	9.6541
7.1211	9.7376
7.1113	9.8132
7.1016	9.9426
7.0919	10.036
7.0822	10.125
7.0725	10.203
7.0629	10.310
7.0533	10.281
7.0437	10.300
7.0341	10.546
7.0246	10.761
7.0151	10.879
7.0056	10.981
6.9962	11.024
6.9867	11.133
6.9773	11.278
6.9679	11.226
6.9586	11.171
6.9493	11.472
6.9400	11.653
6.9307	11.749
6.9214	11.896
6.9122	11.940
6.9030	11.974
6.8938	12.127
6.8847	12.233
6.8755	12.200
6.8664	11.900
6.8573	11.990
6.8483	12.401
6.8393	12.634
6.8302	12.648
6.8213	12.701
6.8123	12.862
6.8034	12.919
6.7944	12.815
6.7855	12.795
6.7767	13.008
6.7678	13.188
6.7590	13.304
6.7502	13.386
6.7414	13.458
6.7327	13.468
6.7239	13.460
6.7152	13.435
6.7065	13.478
6.6979	13.619
6.6892	13.566
6.6806	13.437
6.6720	13.569
6.6634	13.752
6.6549	13.863
6.6464	13.622
6.6378	13.237
6.6294	13.458
6.6209	13.830
6.6124	13.925
6.6040	13.953
6.5956	13.862
6.5872	13.823
6.5789	13.732
6.5705	13.642
6.5622	13.876
6.5539	13.922
6.5456	13.966
6.5374	14.117
6.5292	14.060
6.5209	13.853
6.5128	13.957
6.5046	13.841
6.4964	13.396
6.4883	13.367
6.4802	13.639
6.4721	13.783
6.4640	13.897
6.4560	13.924
6.4480	13.904
6.4399	13.795
6.4320	13.633
6.4240	13.435
6.4160	12.907
6.4081	12.997
6.4002	13.514
6.3923	13.635
6.3844	13.545
6.3766	13.390
6.3687	13.257
6.3609	13.374
6.3531	13.271
6.3454	12.919
6.3376	12.987
6.3299	13.233
6.3221	13.229
6.3144	13.145
6.3068	13.061
6.2991	13.052
6.2914	13.021
6.2838	12.956
6.2762	12.891
6.2686	12.880
6.2611	12.841
6.2535	12.778
6.2460	12.741
6.2385	12.709
6.2310	12.682
6.2235	12.647
6.2160	12.597
6.2086	12.547
6.2011	12.510
6.1937	12.383
6.1863	12.112
6.1790	12.242
6.1716	12.466
6.1643	12.376
6.1570	12.340
6.1496	12.400
6.1424	12.377
6.1351	12.411
6.1278	12.445
6.1206	12.309
6.1134	12.126
6.1062	12.344
6.0990	12.600
6.0918	12.649
6.0847	12.650
6.0776	12.477
6.0704	12.489
6.0633	12.771
6.0563	12.580
6.0492	12.094
6.0421	12.501
6.0351	13.039
6.0281	13.139
6.0211	13.138
6.0141	13.165
6.0071	13.304
6.0002	13.390
5.9932	13.254
5.9863	13.232
5.9794	13.445
5.9725	13.470
5.9657	13.480
5.9588	13.755
5.9520	13.844
5.9451	13.759
5.9383	13.439
5.9315	13.620
5.9247	14.024
5.9180	14.185
5.9112	14.362
5.9045	14.313
5.8978	13.965
5.8911	14.057
5.8844	14.026
5.8777	14.078
5.8711	14.600
5.8644	14.750
5.8578	14.903
5.8512	15.063
5.8446	15.179
5.8380	15.139
5.8314	15.018
5.8249	14.850
5.8184	14.957
5.8118	15.359
5.8053	15.571
5.7988	15.639
5.7923	15.685
5.7859	15.692
5.7794	15.696
5.7730	15.514
5.7666	15.208
5.7602	15.560
5.7538	15.897
5.7474	15.809
5.7410	15.951
5.7347	16.084
5.7283	16.122
5.7220	16.128
5.7157	16.067
5.7094	16.062
5.7031	16.327
5.6969	16.454
5.6906	16.439
5.6844	16.555
5.6782	16.566
5.6719	16.681
5.6657	16.884
5.6596	16.871
5.6534	16.868
5.6472	16.854
5.6411	16.810
5.6349	17.183
5.6288	17.458
5.6227	17.568
5.6166	17.662
5.6106	17.817
5.6045	17.929
5.5984	18.047
5.5924	18.229
5.5864	18.246
5.5804	18.183
5.5744	18.427
5.5684	18.717
5.5624	18.816
5.5564	18.923
5.5505	19.033
5.5445	19.182
5.5386	19.345
5.5327	19.510
5.5268	19.633
5.5209	19.751
5.5151	19.871
5.5092	19.980
5.5033	20.103
5.4975	20.257
5.4917	20.344
5.4859	20.440
5.4801	20.496
5.4743	20.630
5.4685	20.694
5.4628	20.764
5.4570	21.032
5.4513	21.201
5.4455	21.307
5.4398	21.407
5.4341	21.513
5.4284	21.527
5.4228	21.392
5.4171	21.585
5.4114	21.898
5.4058	22.075
5.4002	22.114
5.3945	22.140
5.3889	22.243
5.3833	22.309
5.3778	22.390
5.3722	22.516
5.3666	22.618
5.3611	22.667
5.3555	22.623
5.3500	22.585
5.3445	22.808
5.3390	23.041
5.3335	23.184
5.3280	23.286
5.3225	23.353
5.3171	23.464
5.3116	23.597
5.3062	23.703
5.3008	23.828
5.2954	23.877
5.2900	23.950
5.2846	24.121
5.2792	24.258
5.2738	24.399
5.2684	24.507
5.2631	24.634
5.2578	24.761
5.2524	24.870
5.2471	25.002
5.2418	25.122
5.2365	25.214
5.2312	25.386
5.2260	25.536
5.2207	25.609
5.2154	25.610
5.2102	25.771
5.2050	25.985
5.1998	26.048
5.1945	26.214
5.1893	26.373
5.1842	26.488
5.1790	26.637
5.1738	26.783
5.1686	26.865
5.1635	26.933
5.1584	27.055
5.1532	27.160
5.1481	27.198
5.1430	27.387
5.1379	27.595
5.1328	27.729
5.1277	27.866
5.1227	28.004
5.1176	28.110
5.1126	28.226
5.1075	28.398
5.1025	28.603
5.0975	28.747
5.0925	28.878
5.0875	29.005
5.0825	29.132
5.0775	29.318
5.0726	29.496
5.0676	29.630
5.0627	29.745
5.0577	29.886
5.0528	30.043
5.0479	30.198
5.0430	30.348
5.0380	30.457
5.0332	30.553
5.0283	30.691
5.0234	30.850
5.0185	30.984
5.0137	31.116
5.0088	31.278
5.0040	31.458
4.9992	31.583
4.9944	31.678
4.9896	31.792
4.9848	31.940
4.9800	32.073
4.9752	32.182
4.9704	32.369
4.9657	32.562
4.9609	32.639
4.9562	32.721
4.9514	32.847
4.9467	32.989
4.9420	33.128
4.9373	33.266
4.9326	33.399
4.9279	33.570
4.9232	33.719
4.9186	33.861
4.9139	34.014
4.9092	34.164
4.9046	34.267
4.9000	34.387
4.8953	34.540
4.8907	34.703
4.8861	34.816
4.8815	34.983
4.8769	35.180
4.8723	35.298
4.8678	35.380
4.8632	35.508
4.8586	35.635
4.8541	35.811
4.8495	35.979
4.8450	36.098
4.8405	36.271
4.8360	36.484
4.8315	36.576
4.8270	36.659
4.8225	36.814
4.8180	36.937
4.8135	37.061
4.8090	37.246
4.8046	37.437
4.8001	37.586
4.7957	37.690
4.7913	37.820
4.7868	37.937
4.7824	38.135
4.7780	38.335
4.7736	38.450
4.7692	38.638
4.7648	38.796
4.7605	38.895
4.7561	39.088
4.7517	39.306
4.7474	39.448
4.7431	39.605
4.7387	39.779
4.7344	39.943
4.7301	40.130
4.7258	40.300
4.7215	40.501
4.7172	40.672
4.7129	40.856
4.7086	41.051
4.7043	41.243
4.7000	41.397
4.6958	41.533
4.6915	41.680
4.6873	41.865
4.6831	42.067
4.6788	42.259
4.6746	42.425
4.6704	42.605
4.6662	42.852
4.6620	43.039
4.6578	43.186
4.6536	43.380
4.6495	43.598
4.6453	43.789
4.6411	43.986
4.6370	44.202
4.6328	44.380
4.6287	44.595
4.6246	44.778
4.6205	44.975
4.6163	45.182
4.6122	45.345
4.6081	45.520
4.6040	45.772
4.6000	46.054
4.5959	46.212
4.5918	46.318
4.5877	46.550
4.5837	46.735
4.5796	46.878
4.5756	47.059
4.5716	47.230
4.5675	47.412
4.5635	47.604
4.5595	47.809
4.5555	48.005
4.5515	48.159
4.5475	48.295
4.5435	48.461
4.5395	48.644
4.5356	48.792
4.5316	48.951
4.5276	49.090
4.5237	49.200
4.5197	49.314
4.5158	49.452
4.5119	49.564
4.5080	49.678
4.5040	49.753
4.5001	49.864
4.4962	49.991
4.4923	50.120
4.4884	50.241
4.4846	50.280
4.4807	50.353
4.4768	50.459
4.4730	50.580
4.4691	50.728
4.4652	50.855
4.4614	51.010
4.4576	51.138
4.4537	51.268
4.4499	51.355
4.4461	51.486
4.4423	51.652
4.4385	51.872
4.4347	52.034
4.4309	52.094
4.4271	52.188
4.4233	52.342
4.4196	52.495
4.4158	52.694
4.4120	52.861
4.4083	52.953
4.4045	53.093
4.4008	53.241
4.3971	53.318
4.3934	53.440
4.3896	53.601
4.3859	53.783
4.3822	53.914
4.3785	54.007
4.3748	54.121
4.3711	54.241
4.3674	54.363
4.3638	54.474
4.3601	54.547
4.3564	54.650
4.3528	54.801
4.3491	54.912
4.3455	54.972
4.3418	55.086
4.3382	55.164
4.3346	55.245
4.3310	55.303
4.3273	55.404
4.3237	55.572
4.3201	55.669
4.3165	55.702
4.3129	55.781
4.3094	55.847
4.3058	55.917
4.3022	55.981
4.2986	56.068
4.2951	56.143
4.2915	56.218
4.2880	56.328
4.2844	56.419
4.2809	56.479
4.2774	56.542
4.2738	56.629
4.2703	56.715
4.2668	56.768
4.2633	56.843
4.2598	56.945
4.2563	57.042
4.2528	57.138
4.2493	57.190
4.2458	57.186
4.2424	57.217
4.2389	57.303
4.2354	57.416
4.2320	57.460
4.2285	57.483
4.2251	57.602
4.2216	57.717
4.2182	57.763
4.2148	57.800
4.2113	57.839
4.2079	57.958
4.2045	58.046
4.2011	58.075
4.1977	58.161
4.1943	58.241
4.1909	58.274
4.1875	58.319
4.1841	58.420
4.1808	58.460
4.1774	58.496
4.1740	58.544
4.1707	58.603
4.1673	58.650
4.1640	58.677
4.1606	58.752
4.1573	58.807
4.1540	58.818
4.1506	58.859
4.1473	58.883
4.1440	58.957
4.1407	59.084
4.1374	59.107
4.1341	59.123
4.1308	59.141
4.1275	59.161
4.1242	59.209
4.1209	59.247
4.1177	59.307
4.1144	59.311
4.1111	59.259
4.1079	59.319
4.1046	59.411
4.1014	59.454
4.0981	59.505
4.0949	59.470
4.0917	59.478
4.0884	59.540
4.0852	59.613
4.0820	59.658
4.0788	59.707
4.0756	59.739
4.0724	59.752
4.0692	59.824
4.0660	59.929
4.0628	59.929
4.0596	59.889
4.0565	59.937
4.0533	59.996
4.0501	59.985
4.0470	59.973
4.0438	60.041
4.0406	60.093
4.0375	60.126
4.0344	60.156
4.0312	60.224
4.0281	60.283
4.0250	60.255
4.0218	60.249
4.0187	60.262
4.0156	60.282
4.0125	60.388
4.0094	60.374
4.0063	60.361
4.0032	60.454
4.0001	60.452
3.9970	60.455
3.9940	60.506
3.9909	60.516
3.9878	60.536
3.9847	60.552
3.9817	60.591
3.9786	60.661
3.9756	60.698
3.9725	60.651
3.9695	60.661
3.9665	60.711
3.9634	60.738
3.9604	60.794
3.9574	60.833
3.9544	60.867
3.9513	60.865
3.9483	60.915
3.9453	60.958
3.9423	60.941
3.9393	60.933
3.9363	60.917
3.9333	60.926
3.9304	60.998
3.9274	61.101
3.9244	61.086
3.9214	61.046
3.9185	61.095
3.9155	61.147
3.9126	61.125
3.9096	61.109
3.9067	61.132
3.9037	61.181
3.9008	61.188
3.8979	61.203
3.8949	61.270
3.8920	61.254
3.8891	61.202
3.8862	61.220
3.8833	61.252
3.8804	61.251
3.8775	61.270
3.8746	61.299
3.8717	61.271
3.8688	61.293
3.8659	61.262
3.8630	61.241
3.8601	61.278
3.8573	61.281
3.8544	61.253
3.8515	61.285
3.8487	61.291
3.8458	61.271
3.8430	61.287
3.8401	61.280
3.8373	61.268
3.8344	61.268
3.8316	61.246
3.8288	61.266
3.8259	61.341
3.8231	61.333
3.8203	61.295
3.8175	61.269
3.8147	61.221
3.8119	61.275
3.8091	61.262
3.8063	61.258
3.8035	61.262
3.8007	61.264
3.7979	61.226
3.7951	61.231
3.7924	61.229
3.7896	61.197
3.7868	61.240
3.7841	61.289
3.7813	61.247
3.7785	61.187
3.7758	61.147
3.7730	61.117
3.7703	61.096
3.7676	61.069
3.7648	61.088
3.7621	61.078
3.7594	61.063
3.7566	61.057
3.7539	61.044
3.7512	61.017
3.7485	60.963
3.7458	60.960
3.7431	60.938
3.7404	60.879
3.7377	60.866
3.7350	60.847
3.7323	60.836
3.7296	60.773
3.7269	60.713
3.7242	60.723
3.7216	60.721
3.7189	60.685
3.7162	60.629
3.7136	60.572
3.7109	60.564
3.7083	60.560
3.7056	60.507
3.7030	60.495
3.7003	60.481
3.6977	60.463
3.6950	60.439
3.6924	60.431
3.6898	60.396
3.6872	60.344
3.6845	60.310
3.6819	60.260
3.6793	60.240
3.6767	60.198
3.6741	60.182
3.6715	60.178
3.6689	60.147
3.6663	60.055
3.6637	60.032
3.6611	60.054
3.6585	59.940
3.6560	59.875
3.6534	59.868
3.6508	59.829
3.6482	59.803
3.6457	59.825
3.6431	59.734
3.6406	59.684
3.6380	59.630
3.6355	59.615
3.6329	59.577
3.6304	59.499
3.6278	59.480
3.6253	59.445
3.6227	59.400
3.6202	59.335
3.6177	59.291
3.6152	59.284
3.6127	59.199
3.6101	59.121
3.6076	59.094
3.6051	59.058
3.6026	59.014
3.6001	59.027
3.5976	58.931
3.5951	58.819
3.5926	58.737
3.5901	58.705
3.5876	58.688
3.5852	58.615
3.5827	58.558
3.5802	58.437
3.5777	58.337
3.5753	58.299
3.5728	58.252
3.5704	58.220
3.5679	58.190
3.5654	58.097
3.5630	57.984
3.5605	57.939
3.5581	57.952
3.5557	57.913
3.5532	57.798
3.5508	57.689
3.5484	57.620
3.5459	57.598
3.5435	57.534
3.5411	57.508
3.5387	57.476
3.5363	57.369
3.5338	57.272
3.5314	57.179
3.5290	57.105
3.5266	56.994
3.5242	56.825
3.5218	56.770
3.5195	56.737
3.5171	56.630
3.5147	56.494
3.5123	56.394
3.5099	56.247
3.5075	56.118
3.5052	55.982
3.5028	55.872
3.5004	55.793
3.4981	55.776
3.4957	55.691
3.4934	55.636
3.4910	55.614
3.4887	55.550
3.4863	55.482
3.4840	55.431
3.4816	55.358
3.4793	55.283
3.4770	55.240
3.4746	55.179
3.4723	55.151
3.4700	55.075
3.4677	54.942
3.4653	54.866
3.4630	54.852
3.4607	54.725
3.4584	54.593
3.4561	54.501
3.4538	54.414
3.4515	54.339
3.4492	54.238
3.4469	54.083
3.4446	53.950
3.4423	53.877
3.4400	53.767
3.4378	53.662
3.4355	53.523
3.4332	53.399
3.4309	53.287
3.4287	53.182
3.4264	53.025
3.4241	52.811
3.4219	52.648
3.4196	52.522
3.4174	52.390
3.4151	52.277
3.4129	52.162
3.4106	52.050
3.4084	52.057
3.4061	52.048
3.4039	52.027
3.4017	51.962
3.3994	51.945
3.3972	51.912
3.3950	51.803
3.3928	51.713
3.3906	51.615
3.3883	51.513
3.3861	51.467
3.3839	51.346
3.3817	51.192
3.3795	51.084
3.3773	51.006
3.3751	50.912
3.3729	50.805
3.3707	50.717
3.3685	50.689
3.3663	50.655
3.3641	50.573
3.3620	50.509
3.3598	50.438
3.3576	50.403
3.3554	50.346
3.3533	50.240
3.3511	50.133
3.3489	50.059
3.3468	49.996
3.3446	49.897
3.3425	49.834
3.3403	49.724
3.3382	49.615
3.3360	49.556
3.3339	49.476
3.3317	49.395
3.3296	49.346
3.3274	49.264
3.3253	49.109
3.3232	48.959
3.3210	48.863
3.3189	48.764
3.3168	48.647
3.3147	48.571
3.3126	48.500
3.3104	48.408
3.3083	48.261
3.3062	48.180
3.3041	48.089
3.3020	47.936
3.2999	47.869
3.2978	47.789
3.2957	47.631
3.2936	47.522
3.2915	47.434
3.2894	47.329
3.2874	47.241
3.2853	47.098
3.2832	47.031
3.2811	46.943
3.2790	46.812
3.2770	46.652
3.2749	46.490
3.2728	46.418
3.2708	46.340
3.2687	46.231
3.2666	46.117
3.2646	45.966
3.2625	45.801
3.2605	45.659
3.2584	45.528
3.2564	45.436
3.2543	45.306
3.2523	45.114
3.2503	44.970
3.2482	44.839
3.2462	44.727
3.2442	44.576
3.2421	44.477
3.2401	44.438
3.2381	44.299
3.2361	44.168
3.2340	44.023
3.2320	43.884
3.2300	43.730
3.2280	43.493
3.2260	43.361
3.2240	43.299
3.2220	43.202
3.2200	43.040
3.2180	42.854
3.2160	42.691
3.2140	42.579
3.2120	42.433
3.2100	42.273
3.2080	42.174
3.2060	42.091
3.2040	41.996
3.2021	41.897
3.2001	41.746
3.1981	41.540
3.1961	41.349
3.1942	41.229
3.1922	41.113
3.1902	40.975
3.1883	40.853
3.1863	40.734
3.1844	40.598
3.1824	40.489
3.1805	40.331
3.1785	40.112
3.1766	40.018
3.1746	39.892
3.1727	39.754
3.1707	39.681
3.1688	39.602
3.1669	39.422
3.1649	39.248
3.1630	39.153
3.1611	39.054
3.1591	38.873
3.1572	38.718
3.1553	38.574
3.1534	38.443
3.1515	38.328
3.1495	38.207
3.1476	38.051
3.1457	37.913
3.1438	37.794
3.1419	37.607
3.1400	37.455
3.1381	37.453
3.1362	37.373
3.1343	37.176
3.1324	37.064
3.1305	36.932
3.1286	36.650
3.1268	36.469
3.1249	36.450
3.1230	36.358
3.1211	36.185
3.1192	36.108
3.1174	36.050
3.1155	35.886
3.1136	35.690
3.1117	35.619
3.1099	35.545
3.1080	35.470
3.1061	35.377
3.1043	35.217
3.1024	35.152
3.1006	35.119
3.0987	34.891
3.0969	34.748
3.0950	34.647
3.0932	34.616
3.0913	34.473
3.0895	34.410
3.0876	34.379
3.0858	34.255
3.0840	34.208
3.0821	34.071
3.0803	33.911
3.0785	33.881
3.0766	33.818
3.0748	33.696
3.0730	33.637
3.0712	33.542
3.0694	33.423
3.0675	33.366
3.0657	33.380
3.0639	33.345
3.0621	33.179
3.0603	33.111
3.0585	33.098
3.0567	32.975
3.0549	32.830
3.0531	32.774
3.0513	32.664
3.0495	32.603
3.0477	32.580
3.0459	32.560
3.0441	32.430
3.0423	32.249
3.0406	32.213
3.0388	32.253
3.0370	32.126
3.0352	31.983
3.0334	31.833
3.0317	31.769
3.0299	31.697
3.0281	31.620
3.0264	31.581
3.0246	31.474
3.0228	31.335
3.0211	31.258
3.0193	31.197
3.0176	31.081
3.0158	30.974
3.0140	30.915
3.0123	30.713
3.0105	30.597
3.0088	30.507
3.0070	30.385
3.0053	30.206
3.0036	30.077
3.0018	30.039
3.0001	29.978
2.9984	29.865
2.9966	29.740
2.9949	29.629
2.9932	29.546
2.9914	29.417
2.9897	29.288
2.9880	29.143
2.9863	29.064
2.9845	28.997
2.9828	28.976
2.9811	28.898
2.9794	28.798
2.9777	28.686
2.9760	28.580
2.9743	28.445
2.9726	28.396
2.9709	28.341
2.9692	28.279
2.9675	28.144
2.9658	28.027
2.9641	28.057
2.9624	28.087
2.9607	27.980
2.9590	27.874
2.9573	27.819
2.9556	27.773
2.9539	27.694
2.9523	27.627
2.9506	27.598
2.9489	27.570
2.9472	27.576
2.9455	27.559
2.9439	27.467
2.9422	27.392
2.9405	27.420
2.9389	27.405
2.9372	27.362
2.9355	27.354
2.9339	27.355
2.9322	27.441
2.9306	27.347
2.9289	27.218
2.9272	27.273
2.9256	27.338
2.9239	27.347
2.9223	27.325
2.9207	27.351
2.9190	27.392
2.9174	27.430
2.9157	27.404
2.9141	27.377
2.9124	27.394
2.9108	27.396
2.9092	27.385
2.9075	27.383
2.9059	27.432
2.9043	27.469
2.9027	27.410
2.9010	27.323
2.8994	27.446
2.8978	27.527
2.8962	27.512
2.8946	27.559
2.8929	27.542
2.8913	27.488
2.8897	27.522
2.8881	27.482
2.8865	27.385
2.8849	27.340
2.8833	27.367
2.8817	27.328
2.8801	27.261
2.8785	27.197
2.8769	27.077
2.8753	27.074
2.8737	27.116
2.8721	27.080
2.8705	26.929
2.8689	26.937
2.8673	26.988
2.8658	26.918
2.8642	26.899
2.8626	27.026
2.8610	27.040
2.8594	27.116
2.8579	27.253
2.8563	27.342
2.8547	27.345
2.8531	27.336
2.8516	27.359
2.8500	27.401
2.8484	27.459
2.8469	27.505
2.8453	27.513
2.8437	27.463
2.8422	27.465
2.8406	27.396
2.8391	27.317
2.8375	27.257
2.8360	27.096
2.8344	26.972
2.8329	26.954
2.8313	26.997
2.8298	27.006
2.8282	26.902
2.8267	26.713
2.8252	26.653
2.8236	26.625
2.8221	26.509
2.8205	26.376
2.8190	26.314
2.8175	26.235
2.8159	26.074
2.8144	25.974
2.8129	26.039
2.8114	26.057
2.8098	26.009
2.8083	25.958
2.8068	25.902
2.8053	25.804
2.8038	25.691
2.8022	25.633
2.8007	25.715
2.7992	25.783
2.7977	25.799
2.7962	25.760
2.7947	25.650
2.7932	25.590
2.7917	25.481
2.7902	25.296
2.7887	24.995
2.7872	24.625
2.7857	24.299
2.7842	24.021
2.7827	23.542
2.7812	22.806
2.7797	22.165
2.7782	21.721
2.7767	21.353
2.7752	21.111
2.7738	20.943
2.7723	20.566
2.7708	19.956
2.7693	19.296
2.7678	18.624
2.7664	18.117
2.7649	17.773
2.7634	17.358
2.7619	17.066
2.7605	17.184
2.7590	17.350
2.7575	17.386
2.7561	17.043
2.7546	16.845
2.7531	17.196
2.7517	17.449
2.7502	17.728
2.7488	17.963
2.7473	18.140
2.7458	18.256
2.7444	18.345
2.7429	18.433
2.7415	18.365
2.7400	18.411
2.7386	18.795
2.7371	19.282
2.7357	19.205
2.7343	19.107
2.7328	19.559
2.7314	20.314
2.7299	21.127
2.7285	21.743
2.7271	21.875
2.7256	21.417
2.7242	20.916
2.7228	21.257
2.7213	21.809
2.7199	22.623
2.7185	23.955
2.7171	24.810
2.7156	25.265
2.7142	25.586
2.7128	25.796
2.7114	25.609
2.7100	25.687
2.7085	26.234
2.7071	26.802
2.7057	27.268
2.7043	27.741
2.7029	28.311
2.7015	28.768
2.7001	29.497
2.6987	30.287
2.6973	30.927
2.6959	31.533
2.6945	32.264
2.6931	33.554
2.6917	35.652
2.6903	37.650
2.6889	39.613
2.6875	41.590
2.6861	43.756
2.6847	46.103
2.6833	48.499
2.6819	51.029
2.6805	52.861
2.6791	53.913
2.6778	55.384
2.6764	56.297
2.6750	57.745
2.6736	59.155
2.6722	59.523
2.6709	57.921
2.6695	57.924
2.6681	59.427
2.6667	58.701
2.6654	58.515
2.6640	59.474
2.6626	60.822
2.6613	60.968
2.6599	60.959
2.6585	61.122
2.6572	61.521
2.6558	61.268
2.6545	61.477
2.6531	61.447
2.6517	61.370
2.6504	61.905
2.6490	62.297
2.6477	62.368
2.6463	62.130
2.6450	61.975
2.6436	62.395
2.6423	62.514
2.6409	62.632
2.6396	62.815
2.6382	63.027
2.6369	62.981
2.6356	62.856
2.6342	62.577
2.6329	62.700
2.6315	62.213
2.6302	61.125
2.6289	61.973
2.6275	62.317
2.6262	61.725
2.6249	62.653
2.6236	63.240
2.6222	63.004
2.6209	61.750
2.6196	61.476
2.6183	62.257
2.6169	61.479
2.6156	61.826
2.6143	62.895
2.6130	62.950
2.6117	63.066
2.6103	62.895
2.6090	62.652
2.6077	62.533
2.6064	61.903
2.6051	61.258
2.6038	61.943
2.6025	62.642
2.6012	63.056
2.5999	63.378
2.5986	63.572
2.5973	63.162
2.5960	61.475
2.5947	59.451
2.5934	60.786
2.5921	63.060
2.5908	63.539
2.5895	63.229
2.5882	62.889
2.5869	62.586
2.5856	62.914
2.5843	62.428
2.5830	62.206
2.5817	62.929
2.5805	63.049
2.5792	63.497
2.5779	63.255
2.5766	62.867
2.5753	63.151
2.5741	62.880
2.5728	62.569
2.5715	63.312
2.5702	63.090
2.5690	62.903
2.5677	63.394
2.5664	63.653
2.5651	63.274
2.5639	62.715
2.5626	62.543
2.5613	62.453
2.5601	63.032
2.5588	63.735
2.5575	63.814
2.5563	63.814
2.5550	63.891
2.5538	63.748
2.5525	63.478
2.5513	63.384
2.5500	63.484
2.5487	63.682
2.5475	63.627
2.5462	63.810
2.5450	63.851
2.5437	63.737
2.5425	63.564
2.5413	63.756
2.5400	63.913
2.5388	63.928
2.5375	63.919
2.5363	63.752
2.5350	63.793
2.5338	63.778
2.5326	63.641
2.5313	63.668
2.5301	63.857
2.5289	63.890
2.5276	63.853
2.5264	63.861
2.5252	63.721
2.5239	63.777
2.5227	63.975
2.5215	64.026
2.5202	63.942
2.5190	63.924
2.5178	63.765
2.5166	63.817
2.5154	63.994
2.5141	63.938
2.5129	63.864
2.5117	63.825
2.5105	63.705
2.5093	63.713
2.5081	63.874
2.5068	63.932
2.5056	63.883
2.5044	63.797
2.5032	63.737
2.5020	63.814
2.5008	63.798
2.4996	63.692
2.4984	63.703
2.4972	63.817
2.4960	63.934
2.4948	63.928
2.4936	63.899
2.4924	63.901
2.4912	63.692
2.4900	63.705
2.4888	63.930
2.4876	63.935
2.4864	63.846
2.4852	63.889
2.4840	63.921
2.4828	63.941
2.4816	63.900
2.4805	63.945
2.4793	63.938
2.4781	63.858
2.4769	63.840
2.4757	63.979
2.4745	63.921
2.4734	63.838
2.4722	63.808
2.4710	63.790
2.4698	63.861
2.4686	64.046
2.4675	64.125
2.4663	64.199
2.4651	64.200
2.4640	64.095
2.4628	63.995
2.4616	63.994
2.4604	64.013
2.4593	64.176
2.4581	64.233
2.4569	64.102
2.4558	64.104
2.4546	64.257
2.4535	64.254
2.4523	64.155
2.4511	64.189
2.4500	64.210
2.4488	64.182
2.4477	64.150
2.4465	63.981
2.4454	64.026
2.4442	64.097
2.4431	64.191
2.4419	64.247
2.4408	64.275
2.4396	64.183
2.4385	64.076
2.4373	64.037
2.4362	63.990
2.4350	64.031
2.4339	63.994
2.4327	63.881
2.4316	63.929
2.4305	63.979
2.4293	63.759
2.4282	63.547
2.4270	63.590
2.4259	63.647
2.4248	63.548
2.4236	63.405
2.4225	63.339
2.4214	63.387
2.4202	63.347
2.4191	62.933
2.4180	62.584
2.4169	62.784
2.4157	62.820
2.4146	62.616
2.4135	62.395
2.4124	62.387
2.4112	62.290
2.4101	62.012
2.4090	61.777
2.4079	61.701
2.4068	61.719
2.4056	61.550
2.4045	61.598
2.4034	61.498
2.4023	61.200
2.4012	60.951
2.4001	60.896
2.3990	60.909
2.3979	60.755
2.3967	60.664
2.3956	60.671
2.3945	60.555
2.3934	60.488
2.3923	60.507
2.3912	60.533
2.3901	60.562
2.3890	60.523
2.3879	60.737
2.3868	61.056
2.3857	60.949
2.3846	60.733
2.3835	60.889
2.3824	61.155
2.3813	61.234
2.3802	61.238
2.3791	61.406
2.3781	61.536
2.3770	61.676
2.3759	61.785
2.3748	61.845
2.3737	61.931
2.3726	62.059
2.3715	62.215
2.3704	62.281
2.3694	62.247
2.3683	62.333
2.3672	62.246
2.3661	62.260
2.3650	62.318
2.3640	62.374
2.3629	62.378
2.3618	62.257
2.3607	62.142
2.3597	62.080
2.3586	62.064
2.3575	62.072
2.3564	61.873
2.3554	61.607
2.3543	61.526
2.3532	61.406
2.3522	61.339
2.3511	61.215
2.3500	61.086
2.3490	60.872
2.3479	60.589
2.3468	60.463
2.3458	60.346
2.3447	60.100
2.3436	59.979
2.3426	59.923
2.3415	59.914
2.3405	59.817
2.3394	59.743
2.3384	59.574
2.3373	59.407
2.3363	59.332
2.3352	59.240
2.3342	59.185
2.3331	59.179
2.3321	59.164
2.3310	59.109
2.3300	59.022
2.3289	59.027
2.3279	59.091
2.3268	59.097
2.3258	58.958
2.3247	58.929
2.3237	58.922
2.3226	58.982
2.3216	59.104
2.3206	59.076
2.3195	58.972
2.3185	59.159
2.3175	59.333
2.3164	59.342
2.3154	59.395
2.3144	59.634
2.3133	59.765
2.3123	59.830
2.3113	59.690
2.3102	59.657
2.3092	59.822
2.3082	59.959
2.3071	60.034
2.3061	60.146
2.3051	60.359
2.3041	60.427
2.3030	60.531
2.3020	60.638
2.3010	60.680
2.3000	60.767
2.2990	60.875
2.2979	61.076
2.2969	61.307
2.2959	61.455
2.2949	61.755
2.2939	61.958
2.2929	62.076
2.2918	62.440
2.2908	62.951
2.2898	63.217
2.2888	63.392
2.2878	63.557
2.2868	63.893
2.2858	64.155
2.2848	64.380
2.2838	64.644
2.2828	64.930
2.2818	65.117
2.2808	65.350
2.2798	65.607
2.2787	65.760
2.2777	65.893
2.2767	66.083
2.2757	66.289
2.2747	66.445
2.2738	66.437
2.2728	66.570
2.2718	66.627
2.2708	66.671
2.2698	66.664
2.2688	66.578
2.2678	66.476
2.2668	66.536
2.2658	66.576
2.2648	66.624
2.2638	66.387
2.2628	66.295
2.2618	66.403
2.2609	66.349
2.2599	66.341
2.2589	66.349
2.2579	66.216
2.2569	66.139
2.2559	66.127
2.2550	66.011
2.2540	65.874
2.2530	65.875
2.2520	65.944
2.2510	66.049
2.2501	66.139
2.2491	66.212
2.2481	66.162
2.2471	66.274
2.2462	66.418
2.2452	66.525
2.2442	66.723
2.2433	66.898
2.2423	67.061
2.2413	67.217
2.2403	67.326
2.2394	67.249
2.2384	67.221
2.2374	67.416
2.2365	67.645
2.2355	67.789
2.2345	67.813
2.2336	67.920
2.2326	67.842
2.2317	67.955
2.2307	68.014
2.2297	67.963
2.2288	67.969
2.2278	67.947
2.2269	67.999
2.2259	68.148
2.2250	68.254
2.2240	68.252
2.2231	68.217
2.2221	68.066
2.2211	68.053
2.2202	68.040
2.2192	68.081
2.2183	68.169
2.2173	68.056
2.2164	67.986
2.2155	68.081
2.2145	68.067
2.2136	68.194
2.2126	68.094
2.2117	67.911
2.2107	67.953
2.2098	68.020
2.2088	68.116
2.2079	68.045
2.2070	67.962
2.2060	67.913
2.2051	67.872
2.2041	67.889
2.2032	67.808
2.2023	67.715
2.2013	67.742
2.2004	67.879
2.1995	67.860
2.1985	67.775
2.1976	67.815
2.1967	67.797
2.1957	67.894
2.1948	67.848
2.1939	67.880
2.1930	67.999
2.1920	68.064
2.1911	68.038
2.1902	68.132
2.1893	68.248
2.1883	68.189
2.1874	68.053
2.1865	68.149
2.1856	68.306
2.1846	68.282
2.1837	68.194
2.1828	68.273
2.1819	68.229
2.1810	68.299
2.1800	68.407
2.1791	68.371
2.1782	68.305
2.1773	68.344
2.1764	68.402
2.1755	68.386
2.1746	68.189
2.1736	68.284
2.1727	68.594
2.1718	68.635
2.1709	68.429
2.1700	68.370
2.1691	68.451
2.1682	68.416
2.1673	68.404
2.1664	68.426
2.1655	68.498
2.1646	68.532
2.1637	68.442
2.1628	68.400
2.1619	68.374
2.1610	68.495
2.1601	68.661
2.1592	68.570
2.1583	68.360
2.1574	68.449
2.1565	68.479
2.1556	68.495
2.1547	68.452
2.1538	68.551
2.1529	68.702
2.1520	68.685
2.1511	68.488
2.1502	68.432
2.1493	68.390
2.1484	68.465
2.1475	68.506
2.1466	68.435
2.1458	68.444
2.1449	68.538
2.1440	68.429
2.1431	68.442
2.1422	68.342
2.1413	68.288
2.1404	68.265
2.1396	68.304
2.1387	68.417
2.1378	68.435
2.1369	68.486
2.1360	68.485
2.1352	68.457
2.1343	68.406
2.1334	68.176
2.1325	68.233
2.1316	68.367
2.1308	68.377
2.1299	68.270
2.1290	68.205
2.1281	68.142
2.1273	68.237
2.1264	68.267
2.1255	68.342
2.1247	68.370
2.1238	68.144
2.1229	68.083
2.1220	68.308
2.1212	68.332
2.1203	68.214
2.1194	68.300
2.1186	68.284
2.1177	68.146
2.1168	68.278
2.1160	68.365
2.1151	68.467
2.1143	68.449
2.1134	68.263
2.1125	68.202
2.1117	68.325
2.1108	68.240
2.1100	68.142
2.1091	68.128
2.1082	68.119
2.1074	68.363
2.1065	68.401
2.1057	68.303
2.1048	68.324
2.1040	68.303
2.1031	68.278
2.1023	68.346
2.1014	68.288
2.1005	68.255
2.0997	68.316
2.0988	68.353
2.0980	68.487
2.0971	68.479
2.0963	68.406
2.0955	68.299
2.0946	68.341
2.0938	68.441
2.0929	68.536
2.0921	68.451
2.0912	68.314
2.0904	68.385
2.0895	68.426
2.0887	68.456
2.0879	68.400
2.0870	68.321
2.0862	68.419
2.0853	68.483
2.0845	68.463
2.0837	68.413
2.0828	68.330
2.0820	68.468
2.0812	68.472
2.0803	68.326
2.0795	68.254
2.0760	68.254
2.0720	68.341
2.0680	68.187
2.0640	67.898
2.0600	67.802
2.0560	67.947
2.0520	67.927
2.0480	67.753
2.0440	67.503
2.0400	67.532
2.0360	67.322
2.0320	67.457
2.0280	67.130
2.0240	66.882
2.0200	66.809
2.0160	66.331
2.0120	65.866
2.0080	65.663
2.0040	65.458
2.0000	65.417
1.9960	65.417
1.9920	64.940
1.9880	64.599
1.9840	64.317
1.9800	64.291
1.9760	64.221
1.9720	64.069
1.9680	63.826
1.9640	63.704
1.9600	63.704
1.9560	63.497
1.9520	63.603
1.9480	63.492
1.9440	63.243
1.9400	62.924
1.9360	62.513
1.9320	62.305
1.9280	62.027
1.9240	61.632
1.9200	61.292
1.9160	61.465
1.9120	61.369
1.9080	61.002
1.9040	61.118
1.9000	61.313
1.8960	61.578
1.8920	61.964
1.8880	62.222
1.8840	62.227
1.8800	62.506
1.8760	62.210
1.8720	61.782
1.8680	61.599
1.8640	61.901
1.8600	62.372
1.8560	62.444
1.8520	62.317
1.8480	62.033
1.8440	61.451
1.8400	61.242
1.8360	60.863
1.8320	60.929
1.8280	61.616
1.8240	61.611
1.8200	61.536
1.8160	61.180
1.8120	61.052
1.8080	60.919
1.8040	60.968
1.8000	60.685
1.7960	60.797
1.7920	60.758
1.7880	60.497
1.7840	60.333
1.7800	59.931
1.7760	59.838
1.7720	59.580
1.7680	59.580
1.7640	59.487
1.7600	59.416
1.7560	59.204
1.7520	59.416
1.7480	59.440
1.7440	59.180
1.7400	59.133
1.7360	59.039
1.7320	58.874
1.7280	58.591
1.7240	58.307
1.7200	58.496
1.7160	58.732
1.7120	58.661
1.7080	58.363
1.7040	58.356
1.7000	58.332
1.6960	58.238
1.6920	57.933
1.6880	57.508
1.6840	57.556
1.6800	57.345
1.6760	57.297
1.6720	57.226
1.6680	56.943
1.6640	56.921
1.6600	56.427
1.6560	56.272
1.6520	56.290
1.6480	56.196
1.6440	55.747
1.6400	55.586
1.6360	55.514
1.6320	55.564
1.6280	55.442
1.6240	55.387
1.6200	55.159
1.6160	54.927
1.6120	54.789
1.6080	54.927
1.6040	54.915
1.6000	54.537
1.5960	54.377
1.5920	53.978
1.5880	53.776
1.5840	53.690
1.5800	53.554
1.5760	53.284
1.5720	53.033
1.5680	52.939
1.5640	52.548
1.5600	52.228
1.5560	52.052
1.5520	52.016
1.5480	52.004
1.5440	52.004
1.5400	51.983
1.5360	51.828
1.5320	51.546
1.5280	51.439
1.5240	51.439
1.5200	51.325
1.5160	51.116
1.5120	50.774
1.5080	50.398
1.5040	50.290
1.5000	49.695
1.4960	48.895
1.4920	48.876
1.4880	48.837
1.4840	48.857
1.4800	48.743
1.4760	48.688
1.4720	48.500
1.4680	48.255
1.4640	48.048
1.4600	47.823
1.4560	47.880
1.4520	47.523
1.4480	47.353
1.4440	46.957
1.4400	46.636
1.4360	46.597
1.4320	46.503
1.4280	46.219
1.4240	46.012
1.4200	45.899
1.4160	45.464
1.4120	44.853
1.4080	44.131
1.4040	43.285
1.4000	43.106
1.3960	42.864
1.3920	42.340
1.3880	42.201
1.3840	42.330
1.3800	42.114
1.3760	42.253
1.3720	42.787
1.3680	42.664
1.3640	42.172
1.3600	41.894
1.3560	41.800
1.3520	42.021
1.3480	42.215
1.3440	42.166
1.3400	41.673
1.3360	41.347
1.3320	40.848
1.3280	40.739
1.3240	40.583
1.3200	40.396
1.3160	40.271
1.3120	39.928
1.3080	39.880
1.3040	39.520
1.3000	39.253
1.2960	38.986
1.2920	38.749
1.2880	38.417
1.2840	38.020
1.2800	37.702
1.2760	37.432
1.2720	37.127
1.2680	36.864
1.2640	36.573
1.2600	36.464
1.2560	36.195
1.2520	35.900
1.2480	35.767
1.2440	35.417
1.2400	35.283
1.2360	34.958
1.2320	34.672
1.2280	34.414
1.2240	33.981
1.2200	33.981
1.2160	34.307
1.2120	34.063
1.2080	33.619
1.2040	33.404
1.2000	33.203
1.1960	33.070
1.1920	32.924
1.1880	32.805
1.1840	32.592
1.1800	32.314
1.1760	32.379
1.1720	32.297
1.1680	31.938
1.1640	31.787
1.1600	31.529
1.1560	31.294
1.1520	31.035
1.1480	30.752
1.1440	30.536
1.1400	30.429
1.1360	30.405
1.1320	30.050
1.1280	29.967
1.1240	29.781
1.1200	29.520
1.1160	29.487
1.1120	29.381
1.1080	29.164
1.1040	28.892
1.1000	29.103
1.0960	29.164
1.0920	28.892
1.0880	28.587
1.0840	28.420
1.0800	28.570
1.0760	28.370
1.0720	28.349
1.0680	28.276
1.0640	28.107
1.0600	28.223
1.0560	28.034
1.0520	28.066
1.0480	27.773
1.0440	27.469
1.0400	27.418
1.0360	27.177
1.0320	27.123
1.0280	27.154
1.0240	27.006
1.0200	26.935
1.0160	26.945
1.0120	26.736
1.0080	26.746
1.0040	26.607
1.0000	26.463
0.9960	26.274
0.9920	26.008
0.9880	26.047
0.9840	25.709
0.9800	25.719
0.9760	25.560
0.9720	25.521
0.9680	25.268
0.9640	25.183
0.9600	25.060
0.9560	25.004
0.9520	24.712
0.9480	24.617
0.9440	24.523
0.9400	24.440
0.9360	24.176
0.9320	24.149
0.9280	23.924
0.9240	23.942
0.9200	23.848
0.9160	23.566
0.9120	23.472
0.9080	23.556
0.9040	23.481
0.9000	23.323
0.8960	23.161
0.8920	23.161
0.8880	23.093
0.8840	22.990
0.8800	23.068
0.8760	23.068
0.8720	22.794
0.8680	22.794
0.8640	22.718
0.8600	22.676
0.8560	22.667
0.8520	22.667
0.8480	22.676
0.8440	22.564
0.8400	22.538
0.8360	22.650
0.8320	22.520
0.8280	22.529
0.8240	22.606
0.8200	22.597
0.8160	22.563
0.8120	22.434
0.8080	22.511
0.8040	22.384
0.8000	22.333
0.7990	22.333
0.7980	22.333
0.7970	22.340
0.7960	22.287
0.7950	22.430
0.7940	22.333
0.7930	22.453
0.7920	22.366
0.7910	22.332
0.7900	22.114
0.7890	22.137
0.7880	22.355
0.7870	22.114
0.7860	22.171
0.7850	22.085
0.7840	21.965
0.7830	22.021
0.7820	21.975
0.7810	21.957
0.7800	22.055
0.7790	21.738
0.7780	21.670
0.7770	21.901
0.7760	21.855
0.7750	21.964
0.7740	21.694
0.7730	21.509
0.7720	21.555
0.7710	21.544
0.7700	21.491
0.7690	21.611
0.7680	21.524
0.7670	21.393
0.7660	21.219
0.7650	21.370
0.7640	21.473
0.7630	21.219
0.7620	21.197
0.7610	21.088
0.7600	20.990
0.7590	21.001
0.7580	21.126
0.7570	20.947
0.7560	21.001
0.7550	20.892
0.7540	20.835
0.7530	20.729
0.7520	20.652
0.7510	20.729
0.7500	20.693
0.7490	20.799
0.7480	20.685
0.7470	20.479
0.7460	20.500
0.7450	20.445
0.7440	20.456
0.7430	20.450
0.7420	20.413
0.7410	20.440
0.7400	20.368
0.7390	20.440
0.7380	20.109
0.7370	20.172
0.7360	20.188
0.7350	20.063
0.7340	20.063
0.7330	19.902
0.7320	19.804
0.7310	19.907
0.7300	20.036
0.7290	19.944
0.7280	19.960
0.7270	20.038
0.7260	19.992
0.7250	19.976
0.7240	19.763
0.7230	19.795
0.7220	19.676
0.7210	19.970
0.7200	19.742
0.7190	19.711
0.7180	19.669
0.7170	19.464
0.7160	19.417
0.7150	19.459
0.7140	19.366
0.7130	19.387
0.7120	19.448
0.7110	19.500
0.7100	19.526
0.7090	19.376
0.7080	19.366
0.7070	19.417
0.7060	19.469
0.7050	19.402
0.7040	19.381
0.7030	19.433
0.7020	19.491
0.7010	19.527
0.7000	19.320
0.6990	19.268
0.6980	19.215
0.6970	19.151
0.6960	19.119
0.6950	19.326
0.6940	19.326
0.6930	19.326
0.6920	19.315
0.6910	19.232
0.6900	19.232
0.6890	18.933
0.6880	18.976
0.6870	18.884
0.6860	19.065
0.6850	19.016
0.6840	18.973
0.6830	19.271
0.6820	19.259
0.6810	18.984
0.6800	19.060
0.6790	19.039
0.6780	19.237
0.6770	19.033
0.6760	19.054
0.6750	18.965
0.6740	18.958
0.6730	19.009
0.6720	19.114
0.6710	19.264
0.6700	19.054
0.6690	19.103
0.6680	18.933
0.6670	19.054
0.6660	19.082
0.6650	19.259
0.6640	18.987
0.6630	19.158
0.6620	19.136
0.6610	19.136
0.6600	18.987
0.6590	18.866
0.6580	18.965
0.6570	18.965
0.6560	18.933
0.6550	19.114
0.6540	19.114
0.6530	19.232
0.6520	19.258
0.6510	19.141
0.6500	19.069
0.6490	19.087
0.6480	19.264
0.6470	19.314
0.6460	19.125
0.6450	18.976
0.6440	19.026
0.6430	19.114
0.6420	19.082
0.6410	19.136
0.6400	19.036
0.6390	19.169
0.6380	19.158
0.6370	19.114
0.6360	19.136
0.6350	19.325
0.6340	19.114
0.6330	19.114
0.6320	19.125
0.6310	19.303
0.6300	19.125
0.6290	19.119
0.6280	19.336
0.6270	19.469
0.6260	19.391
0.6250	19.491
0.6240	19.569
0.6230	19.680
0.6220	19.891
0.6210	19.580
0.6200	19.480
0.6190	19.441
0.6180	19.425
0.6170	19.402
0.6160	19.491
0.6150	19.469
0.6140	19.580
0.6130	19.458
0.6120	19.358
0.6110	19.380
0.6100	19.391
0.6090	19.536
0.6080	19.402
0.6070	19.191
0.6060	19.202
0.6050	19.202
0.6040	19.124
0.6030	19.135
0.6020	19.035
0.6010	19.035
0.6000	18.990
0.5990	19.102
0.5980	19.124
0.5970	19.247
0.5960	19.348
0.5950	19.270
0.5940	19.382
0.5930	19.371
0.5920	19.405
0.5910	19.304
0.5900	19.203
0.5890	19.315
0.5880	19.304
0.5870	19.304
0.5860	19.330
0.5850	19.296
0.5840	19.405
0.5830	19.327
0.5820	19.673
0.5810	19.549
0.5800	19.303
0.5790	19.515
0.5780	19.604
0.5770	19.515
0.5760	19.348
0.5750	19.549
0.5740	19.515
0.5730	19.525
0.5720	19.868
0.5710	19.968
0.5700	19.857
0.5690	19.857
0.5680	19.823
0.5670	19.991
0.5660	20.037
0.5650	19.987
0.5640	19.952
0.5630	20.037
0.5620	20.049
0.5610	19.960
0.5600	20.006
0.5590	19.828
0.5580	19.515
0.5570	19.551
0.5560	19.617
0.5550	19.617
0.5540	19.571
0.5530	19.546
0.5520	19.505
0.5510	19.428
0.5500	19.538
0.5490	19.534
0.5480	19.301
0.5470	19.384
0.5460	19.394
0.5450	19.384
0.5440	19.624
0.5430	19.624
0.5420	19.379
0.5410	19.360
0.5400	19.368
0.5390	19.301
0.5380	19.282
0.5370	19.218
0.5360	19.427
0.5350	19.282
0.5340	19.245
0.5330	19.245
0.5320	19.165
0.5310	19.098
0.5300	19.108
0.5290	19.167
0.5280	19.207
0.5270	19.055
0.5260	18.858
0.5250	18.910
0.5240	18.937
0.5230	19.082
0.5220	19.003
0.5210	19.003
0.5200	19.051
0.5190	18.895
0.5180	18.895
0.5170	18.748
0.5160	18.769
0.5150	18.889
0.5140	18.738
0.5130	18.858
0.5120	18.868
0.5110	18.807
0.5100	18.728
0.5090	18.649
0.5080	18.445
0.5070	18.376
0.5060	18.505
0.5050	18.561
0.5040	18.526
0.5030	18.516
0.5020	18.455
0.5010	18.348
0.5000	18.208
0.4990	18.208
0.4980	17.970
0.4970	17.980
0.4960	17.960
0.4950	17.814
0.4940	17.756
0.4930	17.823
0.4920	17.852
0.4910	17.852
0.4900	17.932
0.4890	17.776
0.4880	17.833
0.4870	17.626
0.4860	17.616
0.4850	17.479
0.4840	17.479
0.4830	17.517
0.4820	17.370
0.4810	17.380
0.4800	17.242
0.4790	17.281
0.4780	17.270
0.4770	17.261
0.4760	17.261
0.4750	17.065
0.4740	17.074
0.4730	16.837
0.4720	16.720
0.4710	16.819
0.4700	17.017
0.4690	16.819
0.4680	16.750
0.4670	16.630
0.4660	16.482
0.4650	16.590
0.4640	16.542
0.4630	16.474
0.4620	16.448
0.4610	16.448
0.4600	16.111
0.4590	16.745
0.4580	16.605
0.4570	16.565
0.4560	16.474
0.4550	16.482
0.4540	16.324
0.4530	16.432
0.4520	16.466
0.4510	16.366
0.4500	16.241
0.4490	16.049
0.4480	15.982
0.4470	15.939
0.4460	15.963
0.4450	15.987
0.4440	15.867
0.4430	15.875
0.4420	15.838
0.4410	15.618
0.4400	15.762
0.4390	15.803
0.4380	15.727
0.4370	15.714
0.4360	15.815
0.4350	15.746
0.4340	15.671
0.4330	15.554
0.4320	15.585
0.4310	15.593
0.4300	15.346
0.4290	15.316
0.4280	15.112
0.4270	15.257
0.4260	15.126
0.4250	15.115
0.4240	14.959
0.4230	14.932
0.4220	15.002
0.4210	14.848
0.4200	14.660
0.4190	14.573
0.4180	14.625
0.4170	14.567
0.4160	14.520
0.4150	14.430
0.4140	14.619
0.4130	14.645
0.4120	14.638
0.4110	14.304
0.4100	14.266
0.4090	14.165
0.4080	14.165
0.4070	14.138
0.4060	14.056
0.4050	14.044
0.4040	14.062
0.4030	14.056
0.4020	14.068
0.4010	13.927
0.4000	13.759
