Name: Graphite Schist 
Type:  Rocks
Class:  Metamorphic 
Subclass: Schist 
Particle Size:  0-75 Micrometer
Sample No.:   schist10.doc
Owner:  JHU
Wavelength Range:  All
Origin:  Sample No. 397, The Hunt and Salisbury Collection at the U.S. 
Geological Survey, Denver, Co.
Description: This rock contains coarse, irregular bands of brown, tan and gray 
material.  Microscopically there are finer grains of calcite surrounded and 
enmeshed in a network of graphite bands and veins. There are also larger 
recrystallized calcite grains which are not associated with the graphite.  Modes 
for this rock gave 62.5% calcite and 37.5% graphite.  

Measurement:  Directional (10 Degree) Hemispherical Reflectance
First Column:  X
Second Column:  Y  
X Units:  Wavelength (micrometers)
Y Units:  Reflectance (percent)
First X Value: 14.9831	
Last X Value:  0.4
Number of X Values: 2868
Additional Information:  None

14.983	15.792
14.940	15.932
14.897	16.209
14.854	16.490
14.812	16.664
14.770	16.756
14.728	16.813
14.686	16.856
14.645	16.891
14.603	16.957
14.562	17.054
14.521	17.089
14.481	17.022
14.441	16.889
14.400	16.709
14.361	16.440
14.321	15.992
14.281	15.265
14.242	14.096
14.203	12.341
14.164	10.030
14.126	7.4216
14.087	4.9802
14.049	3.2250
14.011	2.5671
13.973	3.1695
13.936	4.8666
13.899	7.2350
13.861	9.7746
13.824	12.067
13.788	13.888
13.751	15.201
13.715	16.096
13.679	16.705
13.643	17.143
13.607	17.479
13.571	17.743
13.536	17.949
13.500	18.099
13.465	18.206
13.430	18.285
13.396	18.339
13.361	18.377
13.327	18.402
13.293	18.412
13.259	18.403
13.225	18.376
13.191	18.331
13.158	18.266
13.124	18.176
13.091	18.065
13.058	17.934
13.026	17.791
12.993	17.645
12.960	17.507
12.928	17.385
12.896	17.277
12.864	17.179
12.832	17.091
12.800	17.012
12.769	16.950
12.737	16.915
12.706	16.916
12.675	16.955
12.644	17.017
12.614	17.082
12.583	17.139
12.552	17.180
12.522	17.208
12.492	17.228
12.462	17.250
12.432	17.272
12.402	17.287
12.373	17.290
12.343	17.285
12.314	17.282
12.285	17.285
12.256	17.295
12.227	17.317
12.198	17.343
12.169	17.367
12.141	17.382
12.113	17.385
12.084	17.374
12.056	17.339
12.028	17.289
12.000	17.290
11.973	17.348
11.945	17.278
11.918	16.882
11.890	16.095
11.863	14.989
11.836	13.768
11.809	12.757
11.782	12.356
11.755	12.667
11.729	13.326
11.702	13.933
11.676	14.208
11.650	13.968
11.624	13.148
11.598	11.850
11.572	10.298
11.546	8.6561
11.520	7.0112
11.495	5.5401
11.469	4.4107
11.444	3.6666
11.419	3.2733
11.394	3.2145
11.369	3.5032
11.344	4.1684
11.319	5.2251
11.294	6.6356
11.270	8.2324
11.245	9.7322
11.221	10.904
11.197	11.683
11.173	12.120
11.149	12.332
11.125	12.447
11.101	12.569
11.077	12.725
11.054	12.884
11.030	13.025
11.007	13.160
10.983	13.295
10.960	13.426
10.937	13.538
10.914	13.629
10.891	13.689
10.868	13.712
10.846	13.698
10.823	13.655
10.800	13.593
10.778	13.519
10.755	13.442
10.733	13.377
10.711	13.332
10.689	13.306
10.667	13.295
10.645	13.296
10.623	13.298
10.602	13.293
10.580	13.284
10.558	13.279
10.537	13.284
10.516	13.304
10.494	13.344
10.473	13.396
10.452	13.448
10.431	13.492
10.410	13.523
10.389	13.539
10.368	13.541
10.348	13.535
10.327	13.521
10.306	13.494
10.286	13.447
10.266	13.382
10.245	13.312
10.225	13.255
10.205	13.225
10.185	13.219
10.165	13.224
10.145	13.221
10.125	13.197
10.106	13.149
10.086	13.092
10.066	13.044
10.047	13.017
10.027	13.007
10.008	13.005
9.9887	12.998
9.9695	12.973
9.9504	12.929
9.9313	12.874
9.9123	12.819
9.8934	12.778
9.8746	12.763
9.8558	12.783
9.8371	12.833
9.8185	12.900
9.7999	12.976
9.7814	13.060
9.7630	13.152
9.7447	13.266
9.7264	13.416
9.7082	13.602
9.6900	13.813
9.6719	14.022
9.6539	14.208
9.6360	14.362
9.6181	14.493
9.6003	14.615
9.5825	14.751
9.5649	14.914
9.5472	15.101
9.5297	15.300
9.5122	15.490
9.4948	15.661
9.4774	15.805
9.4601	15.914
9.4429	15.989
9.4257	16.034
9.4086	16.057
9.3916	16.079
9.3746	16.125
9.3577	16.217
9.3408	16.365
9.3240	16.559
9.3073	16.776
9.2906	16.980
9.2740	17.148
9.2574	17.269
9.2409	17.356
9.2245	17.433
9.2081	17.529
9.1918	17.671
9.1755	17.864
9.1593	18.104
9.1431	18.370
9.1270	18.640
9.1110	18.894
9.0950	19.121
9.0791	19.320
9.0632	19.497
9.0474	19.656
9.0316	19.795
9.0159	19.916
9.0003	20.016
8.9847	20.100
8.9691	20.166
8.9536	20.221
8.9382	20.272
8.9228	20.317
8.9075	20.358
8.8922	20.395
8.8770	20.434
8.8618	20.473
8.8467	20.507
8.8316	20.530
8.8166	20.528
8.8016	20.487
8.7867	20.394
8.7718	20.244
8.7570	20.040
8.7422	19.793
8.7275	19.515
8.7129	19.212
8.6982	18.877
8.6837	18.490
8.6692	18.032
8.6547	17.505
8.6403	16.932
8.6259	16.374
8.6116	15.905
8.5973	15.578
8.5830	15.410
8.5688	15.366
8.5547	15.380
8.5406	15.383
8.5266	15.338
8.5126	15.253
8.4986	15.167
8.4847	15.126
8.4708	15.165
8.4570	15.283
8.4432	15.458
8.4295	15.667
8.4158	15.897
8.4022	16.143
8.3886	16.399
8.3750	16.665
8.3615	16.930
8.3481	17.180
8.3347	17.404
8.3213	17.604
8.3079	17.787
8.2946	17.955
8.2814	18.111
8.2682	18.255
8.2550	18.387
8.2419	18.498
8.2288	18.581
8.2158	18.627
8.2028	18.631
8.1898	18.596
8.1769	18.527
8.1640	18.430
8.1512	18.299
8.1384	18.118
8.1256	17.880
8.1129	17.597
8.1002	17.312
8.0876	17.095
8.0750	17.013
8.0624	17.101
8.0499	17.335
8.0374	17.652
8.0250	17.975
8.0126	18.240
8.0002	18.404
7.9879	18.454
7.9756	18.400
7.9634	18.254
7.9512	18.031
7.9390	17.761
7.9268	17.490
7.9147	17.270
7.9027	17.133
7.8906	17.092
7.8786	17.121
7.8667	17.165
7.8548	17.168
7.8429	17.097
7.8310	16.953
7.8192	16.766
7.8075	16.579
7.7957	16.433
7.7840	16.336
7.7723	16.272
7.7607	16.209
7.7491	16.117
7.7375	15.971
7.7260	15.760
7.7145	15.486
7.7031	15.156
7.6916	14.780
7.6802	14.369
7.6689	13.937
7.6575	13.506
7.6462	13.092
7.6350	12.708
7.6238	12.363
7.6126	12.062
7.6014	11.811
7.5903	11.609
7.5792	11.452
7.5681	11.333
7.5571	11.241
7.5461	11.157
7.5351	11.071
7.5242	10.973
7.5133	10.857
7.5024	10.721
7.4916	10.567
7.4807	10.393
7.4700	10.197
7.4592	9.9853
7.4485	9.7663
7.4378	9.5463
7.4272	9.3289
7.4165	9.1162
7.4059	8.9055
7.3954	8.6850
7.3848	8.4404
7.3743	8.1668
7.3639	7.8651
7.3534	7.5369
7.3430	7.1890
7.3326	6.8324
7.3223	6.4790
7.3119	6.1383
7.3016	5.8207
7.2914	5.5377
7.2811	5.2957
7.2709	5.0932
7.2607	4.9225
7.2506	4.7709
7.2404	4.6269
7.2303	4.4832
7.2203	4.3418
7.2102	4.2111
7.2002	4.0979
7.1902	4.0060
7.1803	3.9340
7.1703	3.8819
7.1604	3.8539
7.1506	3.8565
7.1407	3.9015
7.1309	3.9934
7.1211	4.1230
7.1113	4.2698
7.1016	4.4029
7.0919	4.4964
7.0822	4.5402
7.0725	4.5369
7.0629	4.5012
7.0533	4.4507
7.0437	4.3996
7.0341	4.3579
7.0246	4.3243
7.0151	4.2954
7.0056	4.2700
6.9962	4.2449
6.9867	4.2184
6.9773	4.1928
6.9679	4.1703
6.9586	4.1528
6.9493	4.1421
6.9400	4.1393
6.9307	4.1438
6.9214	4.1514
6.9122	4.1592
6.9030	4.1680
6.8938	4.1762
6.8847	4.1850
6.8755	4.1966
6.8664	4.2146
6.8573	4.2435
6.8483	4.2807
6.8393	4.3212
6.8302	4.3591
6.8213	4.3925
6.8123	4.4216
6.8034	4.4474
6.7944	4.4732
6.7855	4.5054
6.7767	4.5459
6.7678	4.5902
6.7590	4.6350
6.7502	4.6816
6.7414	4.7330
6.7327	4.7891
6.7239	4.8509
6.7152	4.9196
6.7065	4.9952
6.6979	5.0752
6.6892	5.1560
6.6806	5.2348
6.6720	5.3096
6.6634	5.3802
6.6549	5.4489
6.6464	5.5199
6.6378	5.6042
6.6294	5.7139
6.6209	5.8477
6.6124	5.9978
6.6040	6.1556
6.5956	6.3149
6.5872	6.4719
6.5789	6.6289
6.5705	6.7928
6.5622	6.9709
6.5539	7.1620
6.5456	7.3605
6.5374	7.5554
6.5292	7.7361
6.5209	7.8995
6.5128	8.0522
6.5046	8.2057
6.4964	8.3809
6.4883	8.6023
6.4802	8.8723
6.4721	9.1690
6.4640	9.4466
6.4560	9.6472
6.4480	9.7244
6.4399	9.6552
6.4320	9.4553
6.4240	9.1693
6.4160	8.8465
6.4081	8.5348
6.4002	8.2549
6.3923	8.0001
6.3844	7.7555
6.3766	7.5000
6.3687	7.2163
6.3609	6.8958
6.3531	6.5411
6.3454	6.1688
6.3376	5.7987
6.3299	5.4541
6.3221	5.1605
6.3144	4.9338
6.3068	4.7808
6.2991	4.6991
6.2914	4.6769
6.2838	4.6939
6.2762	4.7242
6.2686	4.7505
6.2611	4.7583
6.2535	4.7413
6.2460	4.7032
6.2385	4.6539
6.2310	4.6023
6.2235	4.5497
6.2160	4.4974
6.2086	4.4495
6.2011	4.4048
6.1937	4.3664
6.1863	4.3430
6.1790	4.3389
6.1716	4.3515
6.1643	4.3790
6.1570	4.4209
6.1496	4.4742
6.1424	4.5322
6.1351	4.5947
6.1278	4.6641
6.1206	4.7375
6.1134	4.8128
6.1062	4.8943
6.0990	4.9843
6.0918	5.0771
6.0847	5.1661
6.0776	5.2493
6.0704	5.3312
6.0633	5.4188
6.0563	5.5206
6.0492	5.6462
6.0421	5.7977
6.0351	5.9647
6.0281	6.1307
6.0211	6.2879
6.0141	6.4340
6.0071	6.5660
6.0002	6.6858
5.9932	6.7973
5.9863	6.9084
5.9794	7.0214
5.9725	7.1338
5.9657	7.2466
5.9588	7.3550
5.9520	7.4547
5.9451	7.5547
5.9383	7.6626
5.9315	7.7920
5.9247	7.9468
5.9180	8.1124
5.9112	8.2767
5.9045	8.4250
5.8978	8.5535
5.8911	8.6734
5.8844	8.7901
5.8777	8.9154
5.8711	9.0511
5.8644	9.1790
5.8578	9.2851
5.8512	9.3575
5.8446	9.3990
5.8380	9.4203
5.8314	9.4355
5.8249	9.4660
5.8184	9.5302
5.8118	9.6251
5.8053	9.7284
5.7988	9.8165
5.7923	9.8766
5.7859	9.9051
5.7794	9.9112
5.7730	9.9219
5.7666	9.9735
5.7602	10.091
5.7538	10.272
5.7474	10.503
5.7410	10.769
5.7347	11.052
5.7283	11.335
5.7220	11.616
5.7157	11.898
5.7094	12.190
5.7031	12.495
5.6969	12.813
5.6906	13.155
5.6844	13.533
5.6782	13.946
5.6719	14.385
5.6657	14.827
5.6596	15.242
5.6534	15.599
5.6472	15.864
5.6411	16.021
5.6349	16.057
5.6288	15.926
5.6227	15.550
5.6166	14.814
5.6106	13.627
5.6045	11.986
5.5984	10.001
5.5924	7.8822
5.5864	5.8863
5.5804	4.2681
5.5744	3.2224
5.5684	2.8522
5.5624	3.2062
5.5564	4.3006
5.5505	6.0892
5.5445	8.4181
5.5386	11.034
5.5327	13.662
5.5268	16.070
5.5209	18.113
5.5151	19.762
5.5092	21.087
5.5033	22.196
5.4975	23.166
5.4917	24.036
5.4859	24.830
5.4801	25.567
5.4743	26.254
5.4685	26.884
5.4628	27.460
5.4570	27.986
5.4513	28.463
5.4455	28.915
5.4398	29.381
5.4341	29.895
5.4284	30.458
5.4228	31.046
5.4171	31.638
5.4114	32.198
5.4058	32.696
5.4002	33.129
5.3945	33.516
5.3889	33.879
5.3833	34.221
5.3778	34.537
5.3722	34.826
5.3666	35.087
5.3611	35.322
5.3555	35.544
5.3500	35.773
5.3445	36.020
5.3390	36.278
5.3335	36.532
5.3280	36.773
5.3225	36.994
5.3171	37.194
5.3116	37.376
5.3062	37.546
5.3008	37.708
5.2954	37.864
5.2900	38.012
5.2846	38.152
5.2792	38.283
5.2738	38.411
5.2684	38.534
5.2631	38.654
5.2578	38.771
5.2524	38.889
5.2471	39.007
5.2418	39.120
5.2365	39.226
5.2312	39.324
5.2260	39.413
5.2207	39.496
5.2154	39.581
5.2102	39.678
5.2050	39.789
5.1998	39.907
5.1945	40.026
5.1893	40.139
5.1842	40.242
5.1790	40.336
5.1738	40.422
5.1686	40.504
5.1635	40.585
5.1584	40.666
5.1532	40.744
5.1481	40.826
5.1430	40.922
5.1379	41.038
5.1328	41.141
5.1277	41.150
5.1227	40.992
5.1176	40.655
5.1126	40.198
5.1075	39.748
5.1025	39.478
5.0975	39.531
5.0925	39.919
5.0875	40.499
5.0825	41.103
5.0775	41.601
5.0726	41.924
5.0676	42.074
5.0627	42.120
5.0577	42.141
5.0528	42.173
5.0479	42.206
5.0430	42.234
5.0380	42.255
5.0332	42.266
5.0283	42.271
5.0234	42.272
5.0185	42.275
5.0137	42.287
5.0088	42.308
5.0040	42.338
4.9992	42.371
4.9944	42.400
4.9896	42.421
4.9848	42.434
4.9800	42.439
4.9752	42.439
4.9704	42.438
4.9657	42.440
4.9609	42.447
4.9562	42.457
4.9514	42.470
4.9467	42.483
4.9420	42.495
4.9373	42.505
4.9326	42.519
4.9279	42.539
4.9232	42.562
4.9186	42.589
4.9139	42.616
4.9092	42.641
4.9046	42.661
4.9000	42.678
4.8953	42.696
4.8907	42.715
4.8861	42.732
4.8815	42.752
4.8769	42.773
4.8723	42.797
4.8678	42.821
4.8632	42.846
4.8586	42.868
4.8541	42.887
4.8495	42.898
4.8450	42.907
4.8405	42.918
4.8360	42.934
4.8315	42.954
4.8270	42.975
4.8225	42.994
4.8180	43.007
4.8135	43.011
4.8090	43.008
4.8046	43.003
4.8001	42.998
4.7957	42.993
4.7913	42.988
4.7868	42.977
4.7824	42.958
4.7780	42.925
4.7736	42.879
4.7692	42.816
4.7648	42.741
4.7605	42.657
4.7561	42.571
4.7517	42.481
4.7474	42.386
4.7431	42.278
4.7387	42.138
4.7344	41.937
4.7301	41.646
4.7258	41.235
4.7215	40.690
4.7172	40.016
4.7129	39.247
4.7086	38.434
4.7043	37.633
4.7000	36.893
4.6958	36.248
4.6915	35.714
4.6873	35.293
4.6831	34.976
4.6788	34.759
4.6746	34.643
4.6704	34.628
4.6662	34.726
4.6620	34.948
4.6578	35.301
4.6536	35.783
4.6495	36.373
4.6453	37.035
4.6411	37.721
4.6370	38.379
4.6328	38.972
4.6287	39.475
4.6246	39.885
4.6205	40.214
4.6163	40.470
4.6122	40.667
4.6081	40.814
4.6040	40.923
4.6000	41.005
4.5959	41.069
4.5918	41.124
4.5877	41.172
4.5837	41.213
4.5796	41.248
4.5756	41.277
4.5716	41.301
4.5675	41.325
4.5635	41.347
4.5595	41.367
4.5555	41.384
4.5515	41.397
4.5475	41.407
4.5435	41.415
4.5395	41.422
4.5356	41.427
4.5316	41.430
4.5276	41.433
4.5237	41.440
4.5197	41.451
4.5158	41.471
4.5119	41.502
4.5080	41.546
4.5040	41.603
4.5001	41.673
4.4962	41.758
4.4923	41.859
4.4884	41.971
4.4846	42.092
4.4807	42.219
4.4768	42.347
4.4730	42.470
4.4691	42.585
4.4652	42.688
4.4614	42.779
4.4576	42.863
4.4537	42.946
4.4499	43.032
4.4461	43.123
4.4423	43.216
4.4385	43.304
4.4347	43.382
4.4309	43.448
4.4271	43.505
4.4233	43.553
4.4196	43.595
4.4158	43.634
4.4120	43.667
4.4083	43.689
4.4045	43.702
4.4008	43.710
4.3971	43.719
4.3934	43.730
4.3896	43.746
4.3859	43.764
4.3822	43.782
4.3785	43.786
4.3748	43.770
4.3711	43.735
4.3674	43.676
4.3638	43.597
4.3601	43.507
4.3564	43.413
4.3528	43.323
4.3491	43.240
4.3455	43.167
4.3418	43.104
4.3382	43.043
4.3346	42.979
4.3310	42.908
4.3273	42.825
4.3237	42.728
4.3201	42.614
4.3165	42.486
4.3129	42.343
4.3094	42.183
4.3058	41.993
4.3022	41.760
4.2986	41.472
4.2951	41.126
4.2915	40.724
4.2880	40.276
4.2844	39.805
4.2809	39.331
4.2774	38.878
4.2738	38.475
4.2703	38.152
4.2668	37.934
4.2633	37.834
4.2598	37.841
4.2563	37.933
4.2528	38.082
4.2493	38.266
4.2458	38.471
4.2424	38.694
4.2389	38.945
4.2354	39.229
4.2320	39.539
4.2285	39.860
4.2251	40.181
4.2216	40.485
4.2182	40.756
4.2148	40.990
4.2113	41.190
4.2079	41.361
4.2045	41.501
4.2011	41.615
4.1977	41.704
4.1943	41.766
4.1909	41.803
4.1875	41.820
4.1841	41.821
4.1808	41.809
4.1774	41.786
4.1740	41.755
4.1707	41.717
4.1673	41.672
4.1640	41.617
4.1606	41.552
4.1573	41.474
4.1540	41.379
4.1506	41.269
4.1473	41.143
4.1440	41.003
4.1407	40.851
4.1374	40.690
4.1341	40.522
4.1308	40.346
4.1275	40.160
4.1242	39.967
4.1209	39.767
4.1177	39.559
4.1144	39.344
4.1111	39.128
4.1079	38.910
4.1046	38.689
4.1014	38.461
4.0981	38.226
4.0949	37.980
4.0917	37.720
4.0884	37.441
4.0852	37.143
4.0820	36.823
4.0788	36.478
4.0756	36.108
4.0724	35.718
4.0692	35.308
4.0660	34.877
4.0628	34.408
4.0596	33.875
4.0565	33.235
4.0533	32.450
4.0501	31.500
4.0470	30.392
4.0438	29.165
4.0406	27.879
4.0375	26.605
4.0344	25.401
4.0312	24.291
4.0281	23.256
4.0250	22.241
4.0218	21.168
4.0187	19.958
4.0156	18.566
4.0125	17.006
4.0094	15.352
4.0063	13.712
4.0032	12.190
4.0001	10.858
3.9970	9.7499
3.9940	8.8635
3.9909	8.1808
3.9878	7.6823
3.9847	7.3543
3.9817	7.1810
3.9786	7.1376
3.9756	7.1947
3.9725	7.3273
3.9695	7.5265
3.9665	7.8026
3.9634	8.1720
3.9604	8.6556
3.9574	9.2822
3.9544	10.077
3.9513	11.042
3.9483	12.136
3.9453	13.282
3.9423	14.379
3.9393	15.320
3.9363	16.033
3.9333	16.513
3.9304	16.825
3.9274	17.051
3.9244	17.257
3.9214	17.471
3.9185	17.694
3.9155	17.910
3.9126	18.095
3.9096	18.243
3.9067	18.365
3.9037	18.474
3.9008	18.573
3.8979	18.662
3.8949	18.747
3.8920	18.833
3.8891	18.920
3.8862	19.005
3.8833	19.086
3.8804	19.158
3.8775	19.219
3.8746	19.268
3.8717	19.313
3.8688	19.364
3.8659	19.423
3.8630	19.494
3.8601	19.580
3.8573	19.681
3.8544	19.795
3.8515	19.930
3.8487	20.103
3.8458	20.336
3.8430	20.655
3.8401	21.081
3.8373	21.628
3.8344	22.288
3.8316	23.033
3.8288	23.833
3.8259	24.654
3.8231	25.477
3.8203	26.295
3.8175	27.116
3.8147	27.955
3.8119	28.831
3.8091	29.757
3.8063	30.736
3.8035	31.759
3.8007	32.802
3.7979	33.826
3.7951	34.787
3.7924	35.641
3.7896	36.359
3.7868	36.930
3.7841	37.364
3.7813	37.687
3.7785	37.929
3.7758	38.119
3.7730	38.275
3.7703	38.410
3.7676	38.527
3.7648	38.625
3.7621	38.706
3.7594	38.768
3.7566	38.815
3.7539	38.850
3.7512	38.881
3.7485	38.915
3.7458	38.954
3.7431	39.000
3.7404	39.050
3.7377	39.101
3.7350	39.148
3.7323	39.188
3.7296	39.221
3.7269	39.246
3.7242	39.262
3.7216	39.269
3.7189	39.268
3.7162	39.263
3.7136	39.254
3.7109	39.240
3.7083	39.222
3.7056	39.202
3.7030	39.179
3.7003	39.150
3.6977	39.118
3.6950	39.086
3.6924	39.054
3.6898	39.018
3.6872	38.977
3.6845	38.933
3.6819	38.887
3.6793	38.834
3.6767	38.779
3.6741	38.726
3.6715	38.675
3.6689	38.622
3.6663	38.565
3.6637	38.508
3.6611	38.449
3.6585	38.392
3.6560	38.341
3.6534	38.300
3.6508	38.263
3.6482	38.221
3.6457	38.172
3.6431	38.117
3.6406	38.056
3.6380	37.992
3.6355	37.928
3.6329	37.864
3.6304	37.800
3.6278	37.732
3.6253	37.662
3.6227	37.592
3.6202	37.518
3.6177	37.437
3.6152	37.344
3.6127	37.239
3.6101	37.125
3.6076	37.006
3.6051	36.885
3.6026	36.763
3.6001	36.632
3.5976	36.486
3.5951	36.314
3.5926	36.109
3.5901	35.866
3.5876	35.579
3.5852	35.245
3.5827	34.877
3.5802	34.501
3.5777	34.151
3.5753	33.860
3.5728	33.656
3.5704	33.542
3.5679	33.494
3.5654	33.473
3.5630	33.441
3.5605	33.373
3.5581	33.249
3.5557	33.063
3.5532	32.820
3.5508	32.526
3.5484	32.174
3.5459	31.761
3.5435	31.280
3.5411	30.726
3.5387	30.080
3.5363	29.318
3.5338	28.418
3.5314	27.364
3.5290	26.155
3.5266	24.823
3.5242	23.427
3.5218	22.049
3.5195	20.772
3.5171	19.655
3.5147	18.726
3.5123	17.978
3.5099	17.376
3.5075	16.874
3.5052	16.420
3.5028	15.980
3.5004	15.539
3.4981	15.089
3.4957	14.631
3.4934	14.175
3.4910	13.727
3.4887	13.292
3.4863	12.880
3.4840	12.520
3.4816	12.263
3.4793	12.175
3.4770	12.324
3.4746	12.753
3.4723	13.451
3.4700	14.351
3.4677	15.341
3.4653	16.299
3.4630	17.120
3.4607	17.747
3.4584	18.177
3.4561	18.443
3.4538	18.593
3.4515	18.673
3.4492	18.716
3.4469	18.740
3.4446	18.745
3.4423	18.729
3.4400	18.696
3.4378	18.654
3.4355	18.605
3.4332	18.556
3.4309	18.510
3.4287	18.465
3.4264	18.411
3.4241	18.347
3.4219	18.283
3.4196	18.227
3.4174	18.181
3.4151	18.149
3.4129	18.129
3.4106	18.113
3.4084	18.093
3.4061	18.060
3.4039	18.019
3.4017	17.967
3.3994	17.902
3.3972	17.824
3.3950	17.735
3.3928	17.636
3.3906	17.526
3.3883	17.408
3.3861	17.289
3.3839	17.179
3.3817	17.088
3.3795	17.028
3.3773	17.005
3.3751	17.000
3.3729	16.991
3.3707	16.951
3.3685	16.861
3.3663	16.704
3.3641	16.477
3.3620	16.191
3.3598	15.864
3.3576	15.526
3.3554	15.240
3.3533	15.105
3.3511	15.237
3.3489	15.734
3.3468	16.638
3.3446	17.917
3.3425	19.458
3.3403	21.087
3.3382	22.631
3.3360	23.966
3.3339	25.036
3.3317	25.847
3.3296	26.444
3.3274	26.887
3.3253	27.229
3.3232	27.504
3.3210	27.727
3.3189	27.913
3.3168	28.077
3.3147	28.223
3.3126	28.352
3.3104	28.466
3.3083	28.569
3.3062	28.660
3.3041	28.737
3.3020	28.806
3.2999	28.869
3.2978	28.923
3.2957	28.967
3.2936	29.004
3.2915	29.037
3.2894	29.063
3.2874	29.080
3.2853	29.090
3.2832	29.096
3.2811	29.101
3.2790	29.105
3.2770	29.117
3.2749	29.136
3.2728	29.154
3.2708	29.166
3.2687	29.173
3.2666	29.181
3.2646	29.192
3.2625	29.205
3.2605	29.224
3.2584	29.244
3.2564	29.254
3.2543	29.253
3.2523	29.247
3.2503	29.237
3.2482	29.232
3.2462	29.233
3.2442	29.243
3.2421	29.256
3.2401	29.266
3.2381	29.270
3.2361	29.266
3.2340	29.251
3.2320	29.228
3.2300	29.201
3.2280	29.172
3.2260	29.146
3.2240	29.125
3.2220	29.113
3.2200	29.107
3.2180	29.100
3.2160	29.086
3.2140	29.066
3.2120	29.037
3.2100	29.003
3.2080	28.970
3.2060	28.939
3.2040	28.909
3.2021	28.876
3.2001	28.839
3.1981	28.801
3.1961	28.764
3.1942	28.728
3.1922	28.692
3.1902	28.657
3.1883	28.618
3.1863	28.574
3.1844	28.525
3.1824	28.478
3.1805	28.436
3.1785	28.395
3.1766	28.354
3.1746	28.314
3.1727	28.271
3.1707	28.219
3.1688	28.155
3.1669	28.079
3.1649	27.993
3.1630	27.896
3.1611	27.792
3.1591	27.691
3.1572	27.600
3.1553	27.523
3.1534	27.465
3.1515	27.426
3.1495	27.398
3.1476	27.375
3.1457	27.351
3.1438	27.323
3.1419	27.291
3.1400	27.261
3.1381	27.242
3.1362	27.234
3.1343	27.228
3.1324	27.218
3.1305	27.201
3.1286	27.169
3.1268	27.123
3.1249	27.066
3.1230	27.002
3.1211	26.931
3.1192	26.850
3.1174	26.763
3.1155	26.678
3.1136	26.603
3.1117	26.545
3.1099	26.507
3.1080	26.489
3.1061	26.488
3.1043	26.496
3.1024	26.508
3.1006	26.517
3.0987	26.523
3.0969	26.527
3.0950	26.529
3.0932	26.533
3.0913	26.541
3.0895	26.552
3.0876	26.565
3.0858	26.581
3.0840	26.594
3.0821	26.603
3.0803	26.607
3.0785	26.609
3.0766	26.605
3.0748	26.597
3.0730	26.589
3.0712	26.582
3.0694	26.571
3.0675	26.555
3.0657	26.537
3.0639	26.519
3.0621	26.500
3.0603	26.481
3.0585	26.463
3.0567	26.444
3.0549	26.425
3.0531	26.406
3.0513	26.389
3.0495	26.371
3.0477	26.354
3.0459	26.333
3.0441	26.306
3.0423	26.274
3.0406	26.241
3.0388	26.212
3.0370	26.188
3.0352	26.167
3.0334	26.149
3.0317	26.126
3.0299	26.095
3.0281	26.053
3.0264	26.003
3.0246	25.954
3.0228	25.906
3.0211	25.861
3.0193	25.819
3.0176	25.775
3.0158	25.728
3.0140	25.681
3.0123	25.637
3.0105	25.600
3.0088	25.565
3.0070	25.533
3.0053	25.499
3.0036	25.457
3.0018	25.408
3.0001	25.352
2.9984	25.294
2.9966	25.239
2.9949	25.191
2.9932	25.150
2.9914	25.114
2.9897	25.078
2.9880	25.042
2.9863	25.003
2.9845	24.963
2.9828	24.928
2.9811	24.894
2.9794	24.853
2.9777	24.800
2.9760	24.740
2.9743	24.674
2.9726	24.605
2.9709	24.545
2.9692	24.499
2.9675	24.463
2.9658	24.429
2.9641	24.398
2.9624	24.368
2.9607	24.335
2.9590	24.300
2.9573	24.264
2.9556	24.230
2.9539	24.198
2.9523	24.173
2.9506	24.159
2.9489	24.145
2.9472	24.125
2.9455	24.099
2.9439	24.061
2.9422	24.016
2.9405	23.977
2.9389	23.954
2.9372	23.944
2.9355	23.942
2.9339	23.946
2.9322	23.955
2.9306	23.962
2.9289	23.971
2.9272	23.987
2.9256	24.007
2.9239	24.027
2.9223	24.045
2.9207	24.059
2.9190	24.068
2.9174	24.074
2.9157	24.086
2.9141	24.103
2.9124	24.121
2.9108	24.142
2.9092	24.161
2.9075	24.174
2.9059	24.184
2.9043	24.196
2.9027	24.215
2.9010	24.235
2.8994	24.251
2.8978	24.269
2.8962	24.286
2.8946	24.300
2.8929	24.317
2.8913	24.342
2.8897	24.374
2.8881	24.405
2.8865	24.435
2.8849	24.467
2.8833	24.498
2.8817	24.524
2.8801	24.548
2.8785	24.572
2.8769	24.592
2.8753	24.612
2.8737	24.637
2.8721	24.668
2.8705	24.707
2.8689	24.747
2.8673	24.794
2.8658	24.841
2.8642	24.883
2.8626	24.924
2.8610	24.961
2.8594	24.993
2.8579	25.022
2.8563	25.048
2.8547	25.079
2.8531	25.120
2.8516	25.172
2.8500	25.231
2.8484	25.289
2.8469	25.344
2.8453	25.390
2.8437	25.423
2.8422	25.448
2.8406	25.473
2.8391	25.508
2.8375	25.554
2.8360	25.614
2.8344	25.688
2.8329	25.769
2.8313	25.847
2.8298	25.914
2.8282	25.969
2.8267	26.020
2.8252	26.063
2.8236	26.103
2.8221	26.148
2.8205	26.204
2.8190	26.272
2.8175	26.345
2.8159	26.427
2.8144	26.521
2.8129	26.616
2.8114	26.702
2.8098	26.779
2.8083	26.850
2.8068	26.914
2.8053	26.978
2.8038	27.057
2.8022	27.160
2.8007	27.282
2.7992	27.408
2.7977	27.534
2.7962	27.653
2.7947	27.753
2.7932	27.838
2.7917	27.922
2.7902	28.021
2.7887	28.148
2.7872	28.311
2.7857	28.517
2.7842	28.761
2.7827	29.023
2.7812	29.301
2.7797	29.589
2.7782	29.879
2.7767	30.167
2.7752	30.442
2.7738	30.704
2.7723	30.953
2.7708	31.195
2.7693	31.446
2.7678	31.710
2.7664	31.994
2.7649	32.297
2.7634	32.593
2.7619	32.871
2.7605	33.126
2.7590	33.356
2.7575	33.576
2.7561	33.810
2.7546	34.097
2.7531	34.434
2.7517	34.794
2.7502	35.167
2.7488	35.520
2.7473	35.812
2.7458	36.040
2.7444	36.231
2.7429	36.409
2.7415	36.589
2.7400	36.806
2.7386	37.094
2.7371	37.434
2.7357	37.794
2.7343	38.175
2.7328	38.554
2.7314	38.894
2.7299	39.180
2.7285	39.405
2.7271	39.570
2.7256	39.682
2.7242	39.784
2.7228	39.939
2.7213	40.174
2.7199	40.498
2.7185	40.883
2.7171	41.248
2.7156	41.535
2.7142	41.729
2.7128	41.854
2.7114	41.965
2.7100	42.122
2.7085	42.347
2.7071	42.603
2.7057	42.839
2.7043	43.034
2.7029	43.179
2.7015	43.264
2.7001	43.313
2.6987	43.354
2.6973	43.386
2.6959	43.414
2.6945	43.463
2.6931	43.557
2.6917	43.684
2.6903	43.807
2.6889	43.915
2.6875	43.995
2.6861	44.041
2.6847	44.053
2.6833	44.039
2.6819	44.011
2.6805	43.989
2.6791	43.977
2.6778	43.972
2.6764	43.977
2.6750	43.997
2.6736	43.991
2.6722	43.923
2.6709	43.815
2.6695	43.742
2.6681	43.732
2.6667	43.777
2.6654	43.909
2.6640	44.118
2.6626	44.335
2.6613	44.496
2.6599	44.591
2.6585	44.635
2.6572	44.629
2.6558	44.587
2.6545	44.568
2.6531	44.583
2.6517	44.626
2.6504	44.679
2.6490	44.722
2.6477	44.741
2.6463	44.743
2.6450	44.741
2.6436	44.755
2.6423	44.780
2.6409	44.814
2.6396	44.849
2.6382	44.853
2.6369	44.808
2.6356	44.725
2.6342	44.611
2.6329	44.483
2.6315	44.364
2.6302	44.311
2.6289	44.350
2.6275	44.432
2.6262	44.530
2.6249	44.618
2.6236	44.634
2.6222	44.567
2.6209	44.445
2.6196	44.349
2.6183	44.319
2.6169	44.334
2.6156	44.412
2.6143	44.529
2.6130	44.613
2.6117	44.627
2.6103	44.564
2.6090	44.455
2.6077	44.326
2.6064	44.207
2.6051	44.171
2.6038	44.251
2.6025	44.377
2.6012	44.462
2.5999	44.452
2.5986	44.334
2.5973	44.136
2.5960	43.933
2.5947	43.833
2.5934	43.905
2.5921	44.074
2.5908	44.234
2.5895	44.326
2.5882	44.324
2.5869	44.247
2.5856	44.153
2.5843	44.092
2.5830	44.113
2.5817	44.188
2.5805	44.255
2.5792	44.287
2.5779	44.275
2.5766	44.226
2.5753	44.155
2.5741	44.078
2.5728	44.036
2.5715	44.037
2.5702	44.046
2.5690	44.046
2.5677	44.017
2.5664	43.943
2.5651	43.828
2.5639	43.702
2.5626	43.605
2.5613	43.556
2.5601	43.542
2.5588	43.539
2.5575	43.508
2.5563	43.427
2.5550	43.293
2.5538	43.124
2.5525	42.944
2.5513	42.771
2.5500	42.608
2.5487	42.448
2.5475	42.282
2.5462	42.116
2.5450	41.952
2.5437	41.795
2.5425	41.651
2.5413	41.530
2.5400	41.435
2.5388	41.370
2.5375	41.335
2.5363	41.334
2.5350	41.365
2.5338	41.418
2.5326	41.487
2.5313	41.569
2.5301	41.657
2.5289	41.748
2.5276	41.838
2.5264	41.931
2.5252	42.028
2.5239	42.122
2.5227	42.215
2.5215	42.302
2.5202	42.382
2.5190	42.448
2.5178	42.497
2.5166	42.535
2.5154	42.561
2.5141	42.578
2.5129	42.595
2.5117	42.616
2.5105	42.641
2.5093	42.666
2.5081	42.682
2.5068	42.691
2.5056	42.692
2.5044	42.689
2.5032	42.690
2.5020	42.697
2.5008	42.708
2.4996	42.724
2.4984	42.741
2.4972	42.755
2.4960	42.769
2.4948	42.780
2.4936	42.787
2.4924	42.791
2.4912	42.794
2.4900	42.800
2.4888	42.810
2.4876	42.823
2.4864	42.838
2.4852	42.853
2.4840	42.872
2.4828	42.899
2.4816	42.937
2.4805	42.987
2.4793	43.050
2.4781	43.113
2.4769	43.160
2.4757	43.195
2.4745	43.222
2.4734	43.243
2.4722	43.263
2.4710	43.294
2.4698	43.339
2.4686	43.382
2.4675	43.416
2.4663	43.445
2.4651	43.469
2.4640	43.490
2.4628	43.508
2.4616	43.534
2.4604	43.569
2.4593	43.605
2.4581	43.638
2.4569	43.667
2.4558	43.687
2.4546	43.699
2.4535	43.701
2.4523	43.697
2.4511	43.694
2.4500	43.691
2.4488	43.694
2.4477	43.707
2.4465	43.726
2.4454	43.750
2.4442	43.773
2.4431	43.794
2.4419	43.809
2.4408	43.820
2.4396	43.833
2.4385	43.844
2.4373	43.850
2.4362	43.850
2.4350	43.844
2.4339	43.837
2.4327	43.833
2.4316	43.834
2.4305	43.841
2.4293	43.845
2.4282	43.841
2.4270	43.836
2.4259	43.828
2.4248	43.825
2.4236	43.826
2.4225	43.828
2.4214	43.831
2.4202	43.828
2.4191	43.824
2.4180	43.824
2.4169	43.830
2.4157	43.838
2.4146	43.842
2.4135	43.837
2.4124	43.825
2.4112	43.806
2.4101	43.790
2.4090	43.789
2.4079	43.802
2.4068	43.817
2.4056	43.823
2.4045	43.817
2.4034	43.800
2.4023	43.772
2.4012	43.746
2.4001	43.732
2.3990	43.728
2.3979	43.729
2.3967	43.735
2.3956	43.742
2.3945	43.749
2.3934	43.749
2.3923	43.744
2.3912	43.735
2.3901	43.722
2.3890	43.709
2.3879	43.699
2.3868	43.694
2.3857	43.690
2.3846	43.682
2.3835	43.671
2.3824	43.658
2.3813	43.636
2.3802	43.607
2.3791	43.579
2.3781	43.554
2.3770	43.532
2.3759	43.512
2.3748	43.497
2.3737	43.487
2.3726	43.471
2.3715	43.446
2.3704	43.423
2.3694	43.398
2.3683	43.369
2.3672	43.335
2.3661	43.296
2.3650	43.255
2.3640	43.207
2.3629	43.154
2.3618	43.100
2.3607	43.046
2.3597	42.995
2.3586	42.945
2.3575	42.890
2.3564	42.832
2.3554	42.768
2.3543	42.699
2.3532	42.628
2.3522	42.567
2.3511	42.522
2.3500	42.484
2.3490	42.442
2.3479	42.398
2.3468	42.351
2.3458	42.304
2.3447	42.257
2.3436	42.220
2.3426	42.194
2.3415	42.167
2.3405	42.134
2.3394	42.104
2.3384	42.084
2.3373	42.076
2.3363	42.081
2.3352	42.099
2.3342	42.125
2.3331	42.155
2.3321	42.191
2.3310	42.237
2.3300	42.296
2.3289	42.363
2.3279	42.422
2.3268	42.456
2.3258	42.462
2.3247	42.450
2.3237	42.428
2.3226	42.419
2.3216	42.434
2.3206	42.463
2.3195	42.486
2.3185	42.498
2.3175	42.496
2.3164	42.485
2.3154	42.471
2.3144	42.469
2.3133	42.476
2.3123	42.481
2.3113	42.483
2.3102	42.485
2.3092	42.479
2.3082	42.464
2.3071	42.452
2.3061	42.448
2.3051	42.448
2.3041	42.458
2.3030	42.477
2.3020	42.492
2.3010	42.493
2.3000	42.486
2.2990	42.483
2.2979	42.487
2.2969	42.499
2.2959	42.518
2.2949	42.537
2.2939	42.548
2.2929	42.554
2.2918	42.563
2.2908	42.579
2.2898	42.599
2.2888	42.621
2.2878	42.637
2.2868	42.643
2.2858	42.641
2.2848	42.633
2.2838	42.623
2.2828	42.616
2.2818	42.618
2.2808	42.623
2.2798	42.635
2.2787	42.652
2.2777	42.668
2.2767	42.676
2.2757	42.677
2.2747	42.679
2.2738	42.682
2.2728	42.689
2.2718	42.709
2.2708	42.736
2.2698	42.754
2.2688	42.755
2.2678	42.749
2.2668	42.743
2.2658	42.739
2.2648	42.746
2.2638	42.769
2.2628	42.798
2.2618	42.821
2.2609	42.833
2.2599	42.838
2.2589	42.836
2.2579	42.830
2.2569	42.825
2.2559	42.819
2.2550	42.812
2.2540	42.804
2.2530	42.794
2.2520	42.792
2.2510	42.807
2.2501	42.840
2.2491	42.887
2.2481	42.934
2.2471	42.963
2.2462	42.963
2.2452	42.935
2.2442	42.891
2.2433	42.847
2.2423	42.814
2.2413	42.806
2.2403	42.825
2.2394	42.854
2.2384	42.882
2.2374	42.908
2.2365	42.928
2.2355	42.935
2.2345	42.926
2.2336	42.916
2.2326	42.912
2.2317	42.904
2.2307	42.890
2.2297	42.879
2.2288	42.869
2.2278	42.851
2.2269	42.829
2.2259	42.815
2.2250	42.815
2.2240	42.816
2.2231	42.817
2.2221	42.821
2.2211	42.820
2.2202	42.812
2.2192	42.805
2.2183	42.803
2.2173	42.807
2.2164	42.812
2.2155	42.815
2.2145	42.809
2.2136	42.791
2.2126	42.759
2.2117	42.717
2.2107	42.676
2.2098	42.654
2.2088	42.657
2.2079	42.680
2.2070	42.715
2.2060	42.755
2.2051	42.789
2.2041	42.808
2.2032	42.813
2.2023	42.809
2.2013	42.793
2.2004	42.758
2.1995	42.706
2.1985	42.651
2.1976	42.609
2.1967	42.587
2.1957	42.583
2.1948	42.596
2.1939	42.615
2.1930	42.625
2.1920	42.617
2.1911	42.597
2.1902	42.579
2.1893	42.567
2.1883	42.560
2.1874	42.563
2.1865	42.574
2.1856	42.585
2.1846	42.588
2.1837	42.581
2.1828	42.570
2.1819	42.557
2.1810	42.544
2.1800	42.539
2.1791	42.542
2.1782	42.548
2.1773	42.543
2.1764	42.527
2.1755	42.506
2.1746	42.486
2.1736	42.468
2.1727	42.458
2.1718	42.456
2.1709	42.455
2.1700	42.449
2.1691	42.433
2.1682	42.414
2.1673	42.391
2.1664	42.361
2.1655	42.336
2.1646	42.322
2.1637	42.325
2.1628	42.343
2.1619	42.367
2.1610	42.386
2.1601	42.387
2.1592	42.367
2.1583	42.337
2.1574	42.300
2.1565	42.267
2.1556	42.251
2.1547	42.250
2.1538	42.261
2.1529	42.280
2.1520	42.306
2.1511	42.328
2.1502	42.334
2.1493	42.323
2.1484	42.296
2.1475	42.260
2.1466	42.234
2.1458	42.228
2.1449	42.248
2.1440	42.277
2.1431	42.296
2.1422	42.300
2.1413	42.282
2.1404	42.250
2.1396	42.220
2.1387	42.197
2.1378	42.189
2.1369	42.187
2.1360	42.183
2.1352	42.181
2.1343	42.179
2.1334	42.175
2.1325	42.165
2.1316	42.148
2.1308	42.140
2.1299	42.139
2.1290	42.145
2.1281	42.163
2.1273	42.191
2.1264	42.217
2.1255	42.234
2.1247	42.241
2.1238	42.233
2.1229	42.201
2.1220	42.150
2.1212	42.093
2.1203	42.040
2.1194	42.009
2.1186	42.011
2.1177	42.032
2.1168	42.059
2.1160	42.084
2.1151	42.102
2.1143	42.104
2.1134	42.093
2.1125	42.080
2.1117	42.057
2.1108	42.011
2.1100	41.961
2.1091	41.922
2.1082	41.903
2.1074	41.905
2.1065	41.925
2.1057	41.963
2.1048	41.997
2.1040	42.007
2.1031	41.999
2.1023	41.981
2.1014	41.957
2.1005	41.928
2.0997	41.896
2.0988	41.876
2.0980	41.869
2.0971	41.861
2.0963	41.850
2.0955	41.837
2.0946	41.820
2.0938	41.801
2.0929	41.786
2.0921	41.782
2.0912	41.790
2.0904	41.803
2.0895	41.813
2.0887	41.811
2.0879	41.797
2.0870	41.789
2.0862	41.779
2.0853	41.762
2.0845	41.758
2.0837	41.725
2.0828	41.703
2.0820	41.718
2.0812	41.591
2.0803	41.763
2.0795	41.799
2.0760	41.799
2.0720	41.894
2.0680	41.766
2.0640	41.861
2.0600	41.828
2.0560	41.861
2.0520	41.733
2.0480	41.446
2.0440	41.602
2.0400	41.570
2.0360	41.566
2.0320	41.404
2.0280	41.215
2.0240	41.247
2.0200	41.030
2.0160	40.998
2.0120	40.903
2.0080	40.747
2.0040	40.684
2.0000	40.653
1.9960	40.559
1.9920	40.312
1.9880	40.158
1.9840	40.158
1.9800	40.096
1.9760	40.004
1.9720	39.882
1.9680	39.852
1.9640	39.791
1.9600	39.882
1.9560	39.820
1.9520	39.790
1.9480	39.668
1.9440	39.668
1.9400	39.514
1.9360	39.450
1.9320	39.379
1.9280	39.258
1.9240	39.255
1.9200	39.255
1.9160	39.132
1.9120	39.132
1.9080	39.225
1.9040	39.286
1.9000	39.054
1.8960	39.125
1.8920	39.069
1.8880	38.899
1.8840	38.783
1.8800	38.949
1.8760	39.243
1.8720	39.233
1.8680	39.107
1.8640	38.926
1.8600	38.844
1.8560	38.858
1.8520	38.890
1.8480	38.837
1.8440	38.979
1.8400	38.815
1.8360	38.811
1.8320	38.785
1.8280	38.619
1.8240	38.660
1.8200	38.460
1.8160	38.342
1.8120	38.347
1.8080	38.318
1.8040	38.134
1.8000	38.313
1.7960	37.994
1.7920	38.229
1.7880	38.257
1.7840	37.988
1.7800	38.044
1.7760	37.719
1.7720	37.485
1.7680	37.448
1.7640	37.359
1.7600	37.279
1.7560	37.252
1.7520	37.170
1.7480	37.027
1.7440	37.108
1.7400	37.163
1.7360	37.499
1.7320	37.582
1.7280	37.637
1.7240	37.547
1.7200	37.582
1.7160	37.533
1.7120	37.381
1.7080	37.246
1.7040	37.155
1.7000	36.940
1.6960	37.020
1.6920	36.761
1.6880	36.815
1.6840	36.628
1.6800	36.832
1.6760	36.949
1.6720	36.779
1.6680	36.726
1.6640	36.663
1.6600	36.690
1.6560	36.369
1.6520	36.148
1.6480	36.227
1.6440	36.465
1.6400	36.269
1.6360	36.269
1.6320	36.348
1.6280	36.385
1.6240	36.064
1.6200	36.011
1.6160	35.640
1.6120	35.526
1.6080	35.680
1.6040	35.810
1.6000	35.926
1.5960	35.847
1.5920	35.926
1.5880	35.810
1.5840	35.926
1.5800	35.851
1.5760	35.367
1.5720	35.315
1.5680	35.303
1.5640	35.126
1.5600	34.912
1.5560	34.774
1.5520	34.696
1.5480	34.795
1.5440	34.859
1.5400	34.735
1.5360	34.691
1.5320	34.766
1.5280	34.791
1.5240	34.895
1.5200	34.795
1.5160	34.568
1.5120	34.553
1.5080	34.687
1.5040	34.476
1.5000	34.545
1.4960	34.687
1.4920	34.181
1.4880	34.173
1.4840	34.125
1.4800	33.849
1.4760	33.801
1.4720	33.688
1.4680	33.977
1.4640	34.165
1.4600	33.977
1.4560	33.774
1.4520	33.612
1.4480	33.451
1.4440	33.546
1.4400	33.495
1.4360	33.363
1.4320	33.591
1.4280	33.543
1.4240	33.292
1.4200	33.268
1.4160	33.178
1.4120	33.206
1.4080	33.274
1.4040	33.121
1.4000	32.946
1.3960	32.970
1.3920	32.966
1.3880	32.825
1.3840	32.621
1.3800	32.720
1.3760	33.113
1.3720	32.811
1.3680	32.918
1.3640	32.630
1.3600	32.637
1.3560	32.590
1.3520	32.695
1.3480	32.261
1.3440	32.394
1.3400	32.105
1.3360	32.061
1.3320	32.194
1.3280	32.239
1.3240	32.182
1.3200	32.284
1.3160	32.093
1.3120	31.802
1.3080	31.713
1.3040	31.669
1.3000	31.669
1.2960	31.491
1.2920	31.556
1.2880	31.332
1.2840	31.350
1.2800	31.503
1.2760	31.454
1.2720	31.545
1.2680	31.520
1.2640	31.299
1.2600	31.208
1.2560	31.073
1.2520	31.164
1.2480	31.233
1.2440	31.103
1.2400	30.930
1.2360	30.861
1.2320	30.792
1.2280	30.786
1.2240	30.519
1.2200	30.680
1.2160	30.541
1.2120	30.387
1.2080	30.303
1.2040	30.213
1.2000	30.213
1.1960	30.021
1.1920	29.960
1.1880	29.778
1.1840	29.758
1.1800	29.738
1.1760	29.499
1.1720	29.459
1.1680	29.459
1.1640	29.290
1.1600	29.339
1.1560	29.528
1.1520	29.526
1.1480	29.617
1.1440	29.637
1.1400	29.657
1.1360	29.424
1.1320	29.094
1.1280	29.114
1.1240	29.172
1.1200	29.090
1.1160	29.110
1.1120	29.136
1.1080	28.934
1.1040	28.675
1.1000	28.972
1.0960	29.006
1.0920	28.799
1.0880	28.675
1.0840	28.973
1.0800	28.489
1.0760	28.637
1.0720	28.389
1.0680	28.231
1.0640	28.079
1.0600	28.333
1.0560	28.095
1.0520	27.969
1.0480	27.899
1.0440	28.115
1.0400	28.208
1.0360	28.211
1.0320	28.029
1.0280	27.865
1.0240	27.720
1.0200	27.720
1.0160	27.467
1.0120	27.431
1.0080	27.503
1.0040	27.539
1.0000	27.359
0.99600	27.350
0.99200	27.094
0.98800	27.163
0.98400	27.297
0.98000	27.230
0.97600	27.170
0.97200	26.943
0.96800	27.007
0.96400	26.987
0.96000	26.827
0.95600	26.844
0.95200	26.611
0.94800	26.611
0.94400	26.431
0.94000	26.577
0.93600	26.363
0.93200	26.380
0.92800	26.278
0.92400	26.286
0.92000	26.099
0.91600	26.163
0.91200	26.057
0.90800	26.090
0.90400	25.878
0.90000	25.822
0.89600	25.805
0.89200	25.716
0.88800	25.553
0.88400	25.586
0.88000	25.398
0.87600	25.357
0.87200	25.381
0.86800	25.168
0.86400	25.126
0.86000	25.232
0.85600	24.935
0.85200	24.769
0.84800	24.875
0.84400	24.634
0.84000	24.634
0.83600	24.714
0.83200	24.496
0.82800	24.480
0.82400	24.434
0.82000	24.528
0.81600	24.305
0.81200	24.049
0.80800	24.259
0.80400	24.229
0.80000	24.183
0.79900	24.183
0.79800	24.183
0.79700	24.361
0.79600	24.200
0.79500	24.200
0.79400	24.472
0.79300	24.166
0.79200	24.183
0.79100	24.164
0.79000	24.197
0.78900	24.086
0.78800	24.052
0.78700	24.166
0.78600	24.019
0.78500	24.086
0.78400	24.180
0.78300	24.083
0.78200	24.002
0.78100	23.999
0.78000	23.986
0.77900	24.036
0.77800	23.905
0.77700	23.969
0.77600	23.922
0.77500	23.983
0.77400	23.983
0.77300	23.886
0.77200	23.866
0.77100	23.579
0.77000	23.631
0.76900	23.787
0.76800	23.866
0.76700	23.772
0.76600	23.772
0.76500	23.689
0.76400	23.797
0.76300	23.755
0.76200	23.531
0.76100	23.750
0.76000	23.609
0.75900	23.560
0.75800	23.560
0.75700	23.560
0.75600	23.625
0.75500	23.691
0.75400	23.898
0.75300	23.480
0.75200	23.496
0.75100	23.399
0.75000	23.463
0.74900	23.431
0.74800	23.238
0.74700	23.238
0.74600	23.109
0.74500	23.238
0.74400	23.409
0.74300	23.045
0.74200	23.296
0.74100	23.572
0.74000	23.477
0.73900	23.010
0.73800	23.010
0.73700	22.947
0.73600	23.183
0.73500	23.044
0.73400	23.010
0.73300	23.086
0.73200	23.311
0.73100	23.212
0.73000	23.070
0.72900	23.167
0.72800	23.118
0.72700	23.200
0.72600	23.151
0.72500	23.151
0.72400	22.892
0.72300	22.697
0.72200	22.744
0.72100	22.810
0.72000	22.601
0.71900	22.987
0.71800	23.003
0.71700	23.083
0.71600	22.920
0.71500	22.921
0.71400	22.824
0.71300	22.760
0.71200	22.967
0.71100	22.904
0.71000	23.067
0.70900	22.920
0.70800	22.658
0.70700	22.465
0.70600	22.595
0.70500	22.610
0.70400	22.560
0.70300	22.510
0.70200	22.608
0.70100	22.417
0.70000	22.592
0.69900	22.735
0.69800	22.431
0.69700	22.716
0.69600	22.551
0.69500	22.483
0.69400	22.583
0.69300	22.567
0.69200	22.518
0.69100	22.583
0.69000	22.767
0.68900	22.716
0.68800	22.683
0.68700	22.583
0.68600	22.583
0.68500	22.615
0.68400	22.383
0.68300	22.383
0.68200	22.167
0.68100	22.267
0.68000	22.315
0.67900	22.431
0.67800	22.515
0.67700	22.182
0.67600	22.182
0.67500	22.331
0.67400	22.431
0.67300	22.431
0.67200	22.367
0.67100	22.363
0.67000	22.448
0.66900	22.363
0.66800	21.944
0.66700	22.145
0.66600	22.230
0.66500	22.114
0.66400	22.067
0.66300	22.051
0.66200	22.294
0.66100	22.193
0.66000	22.061
0.65900	22.243
0.65800	22.243
0.65700	22.008
0.65600	22.030
0.65500	21.945
0.65400	22.014
0.65300	21.982
0.65200	21.782
0.65100	21.851
0.65000	21.820
0.64900	21.576
0.64800	21.575
0.64700	21.743
0.64600	21.939
0.64500	21.837
0.64400	22.041
0.64300	21.908
0.64200	21.829
0.64100	21.713
0.64000	21.924
0.63900	21.793
0.63800	21.543
0.63700	21.467
0.63600	21.521
0.63500	21.367
0.63400	21.281
0.63300	21.367
0.63200	21.351
0.63100	21.427
0.63000	21.382
0.62900	21.351
0.62800	21.336
0.62700	21.336
0.62600	21.351
0.62500	21.427
0.62400	21.412
0.62300	21.367
0.62200	21.236
0.62100	21.520
0.62000	21.242
0.61900	21.449
0.61800	21.628
0.61700	21.480
0.61600	21.434
0.61500	21.403
0.61400	21.342
0.61300	21.382
0.61200	21.403
0.61100	21.434
0.61000	21.317
0.60900	21.201
0.60800	21.287
0.60700	21.185
0.60600	21.012
0.60500	21.100
0.60400	20.797
0.60300	20.928
0.60200	20.973
0.60100	20.842
0.60000	20.932
0.59900	21.080
0.59800	21.049
0.59700	20.919
0.59600	20.654
0.59500	20.729
0.59400	20.874
0.59300	20.787
0.59200	20.761
0.59100	20.849
0.59000	20.639
0.58900	20.701
0.58800	20.761
0.58700	20.731
0.58600	20.864
0.58500	20.832
0.58400	20.536
0.58300	20.671
0.58200	20.565
0.58100	20.653
0.58000	20.701
0.57900	20.731
0.57800	20.613
0.57700	20.656
0.57600	20.759
0.57500	20.774
0.57400	20.949
0.57300	20.857
0.57200	20.827
0.57100	20.582
0.57000	20.423
0.56900	20.407
0.56800	20.509
0.56700	20.363
0.56600	20.480
0.56500	20.466
0.56400	20.437
0.56300	20.393
0.56200	20.480
0.56100	20.480
0.56000	20.542
0.55900	20.392
0.55800	20.392
0.55700	20.758
0.55600	20.634
0.55500	20.510
0.55400	20.437
0.55300	20.633
0.55200	20.476
0.55100	20.416
0.55000	20.257
0.54900	20.333
0.54800	20.256
0.54700	20.243
0.54600	20.307
0.54500	20.233
0.54400	20.182
0.54300	20.460
0.54200	20.473
0.54100	20.272
0.54000	20.473
0.53900	20.464
0.53800	20.580
0.53700	20.337
0.53600	20.337
0.53500	20.223
0.53400	20.249
0.53300	20.120
0.53200	19.932
0.53100	19.920
0.53000	20.044
0.52900	19.908
0.52800	19.982
0.52700	19.970
0.52600	19.769
0.52500	19.970
0.52400	19.894
0.52300	19.657
0.52200	19.870
0.52100	20.058
0.52000	19.932
0.51900	19.616
0.51800	19.681
0.51700	19.693
0.51600	19.681
0.51500	19.718
0.51400	19.580
0.51300	19.491
0.51200	19.520
0.51100	19.508
0.51000	19.456
0.50900	19.432
0.50800	19.491
0.50700	19.563
0.50600	19.449
0.50500	19.313
0.50400	19.336
0.50300	19.496
0.50200	19.551
0.50100	19.702
0.50000	19.611
0.49900	19.491
0.49800	19.313
0.49700	19.425
0.49600	19.177
0.49500	19.313
0.49400	19.189
0.49300	19.324
0.49200	19.383
0.49100	19.340
0.49000	19.282
0.48900	19.382
0.48800	19.290
0.48700	19.223
0.48600	19.042
0.48500	18.972
0.48400	18.974
0.48300	19.110
0.48200	19.053
0.48100	19.053
0.48000	18.947
0.47900	19.071
0.47800	19.104
0.47700	18.983
0.47600	18.925
0.47500	18.903
0.47400	18.866
0.47300	18.842
0.47200	18.821
0.47100	18.687
0.47000	18.789
0.46900	18.714
0.46800	18.676
0.46700	18.633
0.46600	18.644
0.46500	18.623
0.46400	18.584
0.46300	18.594
0.46200	18.727
0.46100	18.470
0.46000	18.317
0.45900	18.607
0.45800	18.773
0.45700	18.701
0.45600	18.721
0.45500	18.690
0.45400	18.575
0.45300	18.639
0.45200	18.677
0.45100	18.842
0.45000	18.893
0.44900	18.718
0.44800	18.788
0.44700	18.592
0.44600	18.441
0.44500	18.334
0.44400	18.545
0.44300	18.120
0.44200	18.048
0.44100	18.259
0.44000	18.043
0.43900	18.061
0.43800	18.097
0.43700	18.084
0.43600	18.192
0.43500	18.106
0.43400	18.101
0.43300	17.879
0.43200	17.992
0.43100	18.018
0.43000	18.036
0.42900	17.846
0.42800	17.925
0.42700	17.866
0.42600	17.908
0.42500	17.672
0.42400	17.793
0.42300	17.951
0.42200	17.745
0.42100	17.649
0.42000	17.712
0.41900	17.665
0.41800	17.528
0.41700	17.380
0.41600	17.270
0.41500	17.373
0.41400	17.402
0.41300	17.262
0.41200	17.075
0.41100	17.041
0.41000	16.931
0.40900	17.062
0.40800	17.082
0.40700	17.088
0.40600	16.883
0.40500	16.765
0.40400	16.783
0.40300	16.996
0.40200	16.790
0.40100	16.801
0.40000	16.809
