Name:  White Marble 
Type:  Rocks
Class:  Metamorphic 
Subclass:  Marble 
Particle Size:  500-1500 Micrometer
Sample No.:  marble6.doc
Owner:  JHU
Wavelength Range:  All
Origin:  Sample No. 457, The Hunt and Salisbury Collection at the U.S. 
Geological Survey, Denver, Co.
Description: This rock contains coarse-grained carbonate with scattered small 
subrounded quartz grains and minor subhedral tremolite which has altered to talc 
in a few spots.



Measurement:  Directional (10 Degree) Hemispherical Reflectance
First Column:  X
Second Column:  Y  
X Units:  Wavelength (micrometers)
Y Units:  Reflectance (percent)
First X Value:  14.9831
Last X Value:  0.4
Number of X Values:  2868
Additional Information:  None

14.9831	4.6605
14.9399	4.0789
14.897	4.0012
14.8543	4.2892
14.8119	4.0183
14.7697	4.15
14.7277	4.5507
14.686	4.4521
14.6445	4.3176
14.6033	4.0642
14.5622	4.1149
14.5214	4.1746
14.4809	3.7801
14.4405	3.6095
14.4004	3.4878
14.3605	3.3874
14.3209	3.1691
14.2814	3.108
14.2422	3.1989
14.2032	3.1489
14.1643	2.9858
14.1258	3.0106
14.0874	3.1944
14.0492	3.1925
14.0112	2.5434
13.9734	1.752
13.9359	1.4998
13.8985	1.608
13.8614	1.8258
13.8244	2.1001
13.7876	2.4148
13.7511	2.7558
13.7147	2.9597
13.6785	3.2467
13.6425	3.6275
13.6067	3.933
13.5711	4.077
13.5356	4.2847
13.5004	4.5715
13.4653	4.814
13.4304	4.9239
13.3957	4.9466
13.3612	5.0117
13.3269	5.0267
13.2927	4.9575
13.2587	4.8344
13.2249	4.7074
13.1912	4.611
13.1577	4.4836
13.1244	4.2835
13.0913	4.1322
13.0583	4.06
13.0255	3.9229
12.9929	3.781
12.9604	3.7128
12.9281	3.664
12.8959	3.687
12.8639	3.7476
12.8321	3.7798
12.8004	3.7729
12.7688	3.7746
12.7375	3.7891
12.7063	3.8345
12.6752	3.9032
12.6443	3.9586
12.6135	3.9813
12.5829	3.9965
12.5524	4.0479
12.5221	4.0943
12.4919	4.1909
12.4619	4.2288
12.432	4.2622
12.4023	4.3025
12.3727	4.2916
12.3432	4.2539
12.3139	4.2125
12.2847	4.2243
12.2557	4.2681
12.2268	4.3726
12.198	4.5016
12.1694	4.5123
12.1409	4.5274
12.1125	4.5798
12.0843	4.6582
12.0562	4.7169
12.0282	4.707
12.0003	4.7046
11.9726	4.7074
11.945	4.6432
11.9176	4.5435
11.8903	4.4971
11.8631	4.387
11.836	4.135
11.809	3.7137
11.7822	3.508
11.7555	3.8452
11.7289	4.1644
11.7024	4.2575
11.676	4.3055
11.6498	4.3463
11.6237	4.355
11.5977	4.3832
11.5718	4.4744
11.546	4.6473
11.5203	4.8578
11.4948	5.0458
11.4694	5.4929
11.444	6.2526
11.4188	7.5296
11.3937	9.6
11.3688	11.5895
11.3439	12.7684
11.3191	13.7751
11.2944	15.1245
11.2699	15.1562
11.2455	12.0468
11.2211	8.3309
11.1969	6.4475
11.1727	5.7103
11.1487	5.3511
11.1248	5.1872
11.101	5.1259
11.0773	5.0593
11.0536	5.0006
11.0301	4.9968
11.0067	5.0458
10.9834	5.0927
10.9602	5.151
10.937	5.1851
10.914	5.12
10.8911	5.0091
10.8682	4.9033
10.8455	4.7943
10.8229	4.6504
10.8003	4.4779
10.7779	4.3486
10.7555	4.1968
10.7332	4.0948
10.7111	4.0157
10.689	3.951
10.667	3.942
10.6451	3.9854
10.6233	4.0555
10.6015	4.1263
10.5799	4.096
10.5584	4.0863
10.5369	4.1372
10.5155	4.1793
10.4942	4.2265
10.473	4.3077
10.4519	4.4443
10.4309	4.545
10.4099	4.5646
10.3891	4.5952
10.3683	4.6241
10.3476	4.6598
10.327	4.6773
10.3065	4.6492
10.286	4.5679
10.2656	4.5038
10.2454	4.4311
10.2251	4.3458
10.205	4.3018
10.185	4.3129
10.165	4.3569
10.1451	4.3771
10.1253	4.3342
10.1056	4.2788
10.0859	4.2381
10.0663	4.195
10.0468	4.127
10.0274	4.0967
10.008	4.0867
9.9887	4.1071
9.9695	4.1144
9.9504	4.0813
9.9313	4.0604
9.9123	4.0702
9.8934	4.0557
9.8746	4.0432
9.8558	4.0183
9.8371	4.0474
9.8185	4.1092
9.7999	4.1469
9.7814	4.1732
9.763	4.2082
9.7447	4.2203
9.7264	4.271
9.7082	4.414
9.69	4.5978
9.6719	4.7268
9.6539	4.8154
9.636	4.922
9.6181	5.0105
9.6003	5.0477
9.5825	5.0825
9.5649	5.1155
9.5472	5.1536
9.5297	5.2189
9.5122	5.3175
9.4948	5.3684
9.4774	5.411
9.4601	5.4302
9.4429	5.4366
9.4257	5.4648
9.4086	5.4146
9.3916	5.2845
9.3746	5.2194
9.3577	5.2173
9.3408	5.2682
9.324	5.3002
9.3073	5.3575
9.2906	5.4103
9.274	5.3788
9.2574	5.1901
9.2409	4.7413
9.2245	4.4268
9.2081	4.486
9.1918	4.7725
9.1755	5.1754
9.1593	5.4382
9.1431	5.5519
9.127	5.595
9.111	5.5855
9.095	5.5389
9.0791	5.5282
9.0632	5.5356
9.0474	5.5083
9.0316	5.4759
9.0159	5.4671
9.0003	5.4669
8.9847	5.4399
8.9691	5.4382
8.9536	5.4183
8.9382	5.3674
8.9228	5.3568
8.9075	5.321
8.8922	5.3002
8.877	5.3227
8.8618	5.2805
8.8467	5.2064
8.8316	5.222
8.8166	5.2334
8.8016	5.1195
8.7867	5.0397
8.7718	5.011
8.757	4.9395
8.7422	4.9066
8.7275	4.8576
8.7129	4.7901
8.6982	4.7112
8.6837	4.6639
8.6692	4.6314
8.6547	4.557
8.6403	4.4948
8.6259	4.4308
8.6116	4.3598
8.5973	4.2939
8.583	4.2871
8.5688	4.3288
8.5547	4.3273
8.5406	4.2913
8.5266	4.3058
8.5126	4.3458
8.4986	4.3323
8.4847	4.3285
8.4708	4.3539
8.457	4.4019
8.4432	4.4121
8.4295	4.3962
8.4158	4.3993
8.4022	4.4173
8.3886	4.4571
8.375	4.5007
8.3615	4.5703
8.3481	4.6099
8.3347	4.5985
8.3213	4.6297
8.3079	4.6553
8.2946	4.6736
8.2814	4.724
8.2682	4.7818
8.255	4.8171
8.2419	4.8164
8.2288	4.8374
8.2158	4.8599
8.2028	4.8805
8.1898	4.8869
8.1769	4.8685
8.164	4.8938
8.1512	4.8912
8.1384	4.8708
8.1256	4.8704
8.1129	4.8543
8.1002	4.8694
8.0876	4.9082
8.075	4.9099
8.0624	4.9011
8.0499	4.8931
8.0374	4.9225
8.025	4.9734
8.0126	5.0034
8.0002	5.0307
7.9879	5.0458
7.9756	5.0724
7.9634	5.0963
7.9512	5.1155
7.939	5.1278
7.9268	5.1126
7.9147	5.1162
7.9027	5.1403
7.8906	5.1472
7.8786	5.1571
7.8667	5.1822
7.8548	5.2313
7.8429	5.2656
7.831	5.2682
7.8192	5.2538
7.8075	5.2841
7.7957	5.3217
7.784	5.3243
7.7723	5.3677
7.7607	5.4138
7.7491	5.4446
7.7375	5.4868
7.726	5.5107
7.7145	5.5098
7.7031	5.5436
7.6916	5.5661
7.6802	5.5623
7.6689	5.5723
7.6575	5.6187
7.6462	5.6379
7.635	5.6298
7.6238	5.6402
7.6126	5.667
7.6014	5.6959
7.5903	5.7527
7.5792	5.7738
7.5681	5.8124
7.5571	5.8638
7.5461	5.9192
7.5351	5.9931
7.5242	6.0471
7.5133	6.0805
7.5024	6.1288
7.4916	6.1885
7.4807	6.25
7.47	6.3109
7.4592	6.3666
7.4485	6.4454
7.4378	6.4999
7.4272	6.5562
7.4165	6.6211
7.4059	6.6716
7.3954	6.7694
7.3848	6.8866
7.3743	6.9399
7.3639	6.9839
7.3534	7.0763
7.343	7.1675
7.3326	7.2418
7.3223	7.2977
7.3119	7.3853
7.3016	7.4552
7.2914	7.5281
7.2811	7.6304
7.2709	7.7403
7.2607	7.8628
7.2506	7.9963
7.2404	8.1446
7.2303	8.3134
7.2203	8.5185
7.2102	8.7743
7.2002	9.0156
7.1902	9.3095
7.1803	9.6671
7.1703	10.036
7.1604	10.4194
7.1506	10.7846
7.1407	11.0808
7.1309	11.432
7.1211	12.0009
7.1113	12.6881
7.1016	13.3178
7.0919	13.8177
7.0822	14.137
7.0725	14.3094
7.0629	14.4557
7.0533	14.5431
7.0437	14.5831
7.0341	14.6163
7.0246	14.6542
7.0151	14.6935
7.0056	14.7084
6.9962	14.7489
6.9867	14.8308
6.9773	14.8978
6.9679	14.9689
6.9586	15.0245
6.9493	15.0451
6.94	15.111
6.9307	15.2419
6.9214	15.3809
6.9122	15.5474
6.903	15.7568
6.8938	16.0026
6.8847	16.2588
6.8755	16.4767
6.8664	16.6562
6.8573	16.8243
6.8483	16.9996
6.8393	17.2215
6.8302	17.4753
6.8213	17.7221
6.8123	17.9563
6.8034	18.2026
6.7944	18.4468
6.7855	18.7179
6.7767	19.0102
6.7678	19.2986
6.759	19.602
6.7502	19.9617
6.7414	20.3948
6.7327	20.9286
6.7239	21.4825
6.7152	22.0158
6.7065	22.5702
6.6979	23.0888
6.6892	23.5956
6.6806	24.0605
6.672	24.5078
6.6634	24.9355
6.6549	25.3239
6.6464	25.7379
6.6378	26.1959
6.6294	26.6631
6.6209	27.1242
6.6124	27.6115
6.604	28.1162
6.5956	28.6554
6.5872	29.2224
6.5789	29.7571
6.5705	30.2494
6.5622	30.7434
6.5539	31.1804
6.5456	31.5803
6.5374	31.9455
6.5292	32.2775
6.5209	32.5475
6.5128	32.7343
6.5046	32.8942
6.4964	32.9884
6.4883	32.9465
6.4802	32.7182
6.4721	32.2536
6.464	31.3937
6.456	29.9248
6.448	27.6606
6.4399	24.7844
6.432	21.7908
6.424	19.1648
6.416	16.9131
6.4081	14.981
6.4002	13.3467
6.3923	11.9104
6.3844	10.5767
6.3766	9.4023
6.3687	8.3255
6.3609	7.3157
6.3531	6.3841
6.3454	5.5304
6.3376	4.7815
6.3299	4.14
6.3221	3.6119
6.3144	3.152
6.3068	2.7551
6.2991	2.4518
6.2914	2.2242
6.2838	2.0404
6.2762	1.8254
6.2686	1.6411
6.2611	1.5085
6.2535	1.3297
6.246	1.185
6.2385	1.0754
6.231	0.9923
6.2235	0.9274
6.216	0.8345
6.2086	0.7604
6.2011	0.7284
6.1937	0.7138
6.1863	0.669
6.179	0.62
6.1716	0.6053
6.1643	0.5999
6.157	0.5949
6.1496	0.5629
6.1424	0.5402
6.1351	0.5508
6.1278	0.5752
6.1206	0.575
6.1134	0.5624
6.1062	0.5615
6.099	0.5601
6.0918	0.5433
6.0847	0.5343
6.0776	0.5591
6.0704	0.5586
6.0633	0.5643
6.0563	0.5996
6.0492	0.5937
6.0421	0.5781
6.0351	0.5939
6.0281	0.5852
6.0211	0.5859
6.0141	0.5854
6.0071	0.5894
6.0002	0.6351
5.9932	0.6766
5.9863	0.6562
5.9794	0.6915
5.9725	0.7327
5.9657	0.7398
5.9588	0.7434
5.952	0.7531
5.9451	0.794
5.9383	0.799
5.9315	0.7824
5.9247	0.7571
5.918	0.772
5.9112	0.8338
5.9045	0.8757
5.8978	0.8885
5.8911	0.8987
5.8844	0.8935
5.8777	0.9018
5.8711	0.8918
5.8644	0.921
5.8578	0.9579
5.8512	0.9629
5.8446	0.9387
5.838	0.9546
5.8314	1.0055
5.8249	0.9854
5.8184	0.9771
5.8118	0.9899
5.8053	0.9946
5.7988	0.9968
5.7923	1.0003
5.7859	1.0176
5.7794	1.0275
5.773	1.0287
5.7666	1.0377
5.7602	1.0377
5.7538	1.0491
5.7474	1.0657
5.741	1.0716
5.7347	1.0879
5.7283	1.0827
5.722	1.0903
5.7157	1.1313
5.7094	1.154
5.7031	1.1644
5.6969	1.1817
5.6906	1.2014
5.6844	1.2004
5.6782	1.2288
5.6719	1.2563
5.6657	1.2693
5.6596	1.3082
5.6534	1.3378
5.6472	1.3461
5.6411	1.351
5.6349	1.3489
5.6288	1.3714
5.6227	1.3565
5.6166	1.3465
5.6106	1.3359
5.6045	1.316
5.5984	1.3112
5.5924	1.2726
5.5864	1.2277
5.5804	1.194
5.5744	1.137
5.5684	1.1069
5.5624	1.0749
5.5564	1.0725
5.5505	1.0422
5.5445	1.0522
5.5386	1.1197
5.5327	1.1973
5.5268	1.2814
5.5209	1.3676
5.5151	1.4311
5.5092	1.5182
5.5033	1.6224
5.4975	1.6814
5.4917	1.7453
5.4859	1.8261
5.4801	1.8938
5.4743	1.9779
5.4685	2.0885
5.4628	2.2145
5.457	2.3234
5.4513	2.4255
5.4455	2.5515
5.4398	2.7113
5.4341	2.8437
5.4284	2.9574
5.4228	3.1283
5.4171	3.3235
5.4114	3.5087
5.4058	3.6702
5.4002	3.8551
5.3945	4.0744
5.3889	4.284
5.3833	4.5106
5.3778	4.7474
5.3722	4.9904
5.3666	5.2239
5.3611	5.4704
5.3555	5.7399
5.35	5.9858
5.3445	6.2212
5.339	6.4653
5.3335	6.7848
5.328	7.0995
5.3225	7.3875
5.3171	7.665
5.3116	7.9532
5.3062	8.2644
5.3008	8.5623
5.2954	8.8119
5.29	9.0653
5.2846	9.3291
5.2792	9.5868
5.2738	9.8106
5.2684	10.0216
5.2631	10.2589
5.2578	10.5371
5.2524	10.7799
5.2471	11.0266
5.2418	11.2876
5.2365	11.528
5.2312	11.7385
5.226	11.9758
5.2207	12.2036
5.2154	12.4215
5.2102	12.6223
5.205	12.8165
5.1998	13.0502
5.1945	13.2932
5.1893	13.4976
5.1842	13.6991
5.179	13.8646
5.1738	13.9908
5.1686	14.1043
5.1635	14.3117
5.1584	14.5163
5.1532	14.6617
5.1481	14.8339
5.143	14.9831
5.1379	15.0563
5.1328	15.0695
5.1277	14.9876
5.1227	14.6596
5.1176	13.84
5.1126	12.38
5.1075	10.3692
5.1025	8.6009
5.0975	8.1197
5.0925	9.597
5.0875	12.137
5.0825	14.2978
5.0775	15.7059
5.0726	16.5466
5.0676	17.0121
5.0627	17.2686
5.0577	17.405
5.0528	17.4789
5.0479	17.5566
5.043	17.5999
5.038	17.5826
5.0332	17.5483
5.0283	17.5033
5.0234	17.4682
5.0185	17.4282
5.0137	17.3714
5.0088	17.3468
5.004	17.3368
4.9992	17.3337
4.9944	17.3093
4.9896	17.2646
4.9848	17.1964
4.98	17.122
4.9752	17.0697
4.9704	17.0214
4.9657	16.9439
4.9609	16.87
4.9562	16.8433
4.9514	16.8078
4.9467	16.7798
4.942	16.7692
4.9373	16.7623
4.9326	16.7595
4.9279	16.7535
4.9232	16.7663
4.9186	16.8037
4.9139	16.8674
4.9092	16.9229
4.9046	16.9409
4.9	16.9634
4.8953	17.0207
4.8907	17.0782
4.8861	17.117
4.8815	17.1651
4.8769	17.2059
4.8723	17.2459
4.8678	17.2928
4.8632	17.3167
4.8586	17.3648
4.8541	17.4394
4.8495	17.4725
4.845	17.4884
4.8405	17.5244
4.836	17.5431
4.8315	17.5653
4.827	17.607
4.8225	17.5954
4.818	17.5627
4.8135	17.5779
4.809	17.5762
4.8046	17.5478
4.8001	17.5099
4.7957	17.4583
4.7913	17.4223
4.7868	17.3558
4.7824	17.2336
4.778	17.0638
4.7736	16.8369
4.7692	16.5288
4.7648	16.1414
4.7605	15.6905
4.7561	15.2067
4.7517	14.6849
4.7474	14.1069
4.7431	13.4478
4.7387	12.749
4.7344	11.9682
4.7301	11.1403
4.7258	10.2937
4.7215	9.3616
4.7172	8.4112
4.7129	7.5556
4.7086	6.7684
4.7043	6.0802
4.7	5.5495
4.6958	5.1623
4.6915	4.8675
4.6873	4.6463
4.6831	4.4725
4.6788	4.3704
4.6746	4.334
4.6704	4.3108
4.6662	4.3472
4.662	4.4015
4.6578	4.5099
4.6536	4.6804
4.6495	4.9035
4.6453	5.2507
4.6411	5.6871
4.637	6.1617
4.6328	6.6919
4.6287	7.1992
4.6246	7.6541
4.6205	8.0951
4.6163	8.5284
4.6122	8.9431
4.6081	9.2934
4.604	9.5494
4.6	9.7613
4.5959	9.9467
4.5918	10.1189
4.5877	10.2671
4.5837	10.3588
4.5796	10.4542
4.5756	10.5343
4.5716	10.5613
4.5675	10.5904
4.5635	10.6503
4.5595	10.6674
4.5555	10.6768
4.5515	10.7019
4.5475	10.7474
4.5435	10.7832
4.5395	10.7825
4.5356	10.795
4.5316	10.8118
4.5276	10.8213
4.5237	10.8388
4.5197	10.8739
4.5158	10.9068
4.5119	10.9539
4.508	11.0456
4.504	11.1571
4.5001	11.2641
4.4962	11.4349
4.4923	11.6833
4.4884	11.9755
4.4846	12.2912
4.4807	12.641
4.4768	13.0152
4.473	13.4078
4.4691	13.8208
4.4652	14.2258
4.4614	14.5926
4.4576	14.9329
4.4537	15.2495
4.4499	15.5837
4.4461	15.9609
4.4423	16.3668
4.4385	16.7945
4.4347	17.2314
4.4309	17.6639
4.4271	18.0636
4.4233	18.3899
4.4196	18.6701
4.4158	18.9514
4.412	19.1624
4.4083	19.3384
4.4045	19.5001
4.4008	19.6173
4.3971	19.7076
4.3934	19.8075
4.3896	19.8719
4.3859	19.9574
4.3822	20.0218
4.3785	20.0211
4.3748	19.9832
4.3711	19.858
4.3674	19.6578
4.3638	19.3921
4.3601	19.0047
4.3564	18.5282
4.3528	18.0818
4.3491	17.7214
4.3455	17.4765
4.3418	17.3295
4.3382	17.2085
4.3346	17.1244
4.331	17.0962
4.3273	17.1303
4.3237	17.1803
4.3201	17.1691
4.3165	17.1114
4.3129	17.1014
4.3094	17.1701
4.3058	17.2932
4.3022	17.4938
4.2986	17.7186
4.2951	17.873
4.2915	17.939
4.288	17.9658
4.2844	17.9776
4.2809	17.9414
4.2774	17.8007
4.2738	17.509
4.2703	17.1639
4.2668	16.9316
4.2633	16.9172
4.2598	17.0173
4.2563	17.0837
4.2528	17.0979
4.2493	17.0811
4.2458	17.0275
4.2424	16.9245
4.2389	16.8113
4.2354	16.6924
4.232	16.539
4.2285	16.3626
4.2251	16.192
4.2216	16.0604
4.2182	15.9337
4.2148	15.8124
4.2113	15.681
4.2079	15.5458
4.2045	15.4068
4.2011	15.2192
4.1977	15.0191
4.1943	14.833
4.1909	14.6182
4.1875	14.4098
4.1841	14.203
4.1808	13.9885
4.1774	13.7898
4.174	13.5769
4.1707	13.3555
4.1673	13.1279
4.164	12.8856
4.1606	12.6438
4.1573	12.3874
4.154	12.1352
4.1506	11.8619
4.1473	11.5763
4.144	11.2892
4.1407	10.9847
4.1374	10.6629
4.1341	10.3271
4.1308	10.0173
4.1275	9.7142
4.1242	9.3945
4.1209	9.0835
4.1177	8.7968
4.1144	8.5275
4.1111	8.2724
4.1079	8.0567
4.1046	7.8069
4.1014	7.5222
4.0981	7.275
4.0949	7.0462
4.0917	6.8328
4.0884	6.6299
4.0852	6.4033
4.082	6.1589
4.0788	5.9097
4.0756	5.6637
4.0724	5.433
4.0692	5.2239
4.066	5.029
4.0628	4.8152
4.0596	4.6297
4.0565	4.4481
4.0533	4.2759
4.0501	4.0967
4.047	3.879
4.0438	3.6512
4.0406	3.4599
4.0375	3.3128
4.0344	3.1859
4.0312	3.0698
4.0281	2.968
4.025	2.8766
4.0218	2.8257
4.0187	2.7719
4.0156	2.6784
4.0125	2.6419
4.0094	2.6126
4.0063	2.564
4.0032	2.5074
4.0001	2.4416
3.997	2.4042
3.994	2.3696
3.9909	2.3113
3.9878	2.273
3.9847	2.2616
3.9817	2.2358
3.9786	2.2154
3.9756	2.2043
3.9725	2.1936
3.9695	2.191
3.9665	2.1991
3.9634	2.1894
3.9604	2.186
3.9574	2.2291
3.9544	2.2569
3.9513	2.2834
3.9483	2.3127
3.9453	2.3651
3.9423	2.4219
3.9393	2.4667
3.9363	2.5143
3.9333	2.5607
3.9304	2.6076
3.9274	2.6144
3.9244	2.6107
3.9214	2.6308
3.9185	2.6457
3.9155	2.6628
3.9126	2.6931
3.9096	2.7191
3.9067	2.6916
3.9037	2.6966
3.9008	2.7305
3.8979	2.7388
3.8949	2.7248
3.892	2.7061
3.8891	2.7359
3.8862	2.7802
3.8833	2.7681
3.8804	2.7501
3.8775	2.7589
3.8746	2.7795
3.8717	2.7838
3.8688	2.7954
3.8659	2.7935
3.863	2.8041
3.8601	2.8001
3.8573	2.825
3.8544	2.8271
3.8515	2.8283
3.8487	2.8501
3.8458	2.8567
3.843	2.8747
3.8401	2.8861
3.8373	2.906
3.8344	2.9581
3.8316	3.0267
3.8288	3.098
3.8259	3.171
3.8231	3.2524
3.8203	3.3322
3.8175	3.4362
3.8147	3.5345
3.8119	3.6586
3.8091	3.848
3.8063	4.0607
3.8035	4.2918
3.8007	4.6106
3.7979	5.0451
3.7951	5.5938
3.7924	6.2538
3.7896	7.0114
3.7868	7.7953
3.7841	8.5166
3.7813	9.1212
3.7785	9.6645
3.7758	10.1798
3.773	10.6558
3.7703	11.1041
3.7676	11.5133
3.7648	11.869
3.7621	12.2057
3.7594	12.4681
3.7566	12.6853
3.7539	12.8977
3.7512	13.1104
3.7485	13.3342
3.7458	13.5802
3.7431	13.8663
3.7404	14.1855
3.7377	14.5421
3.735	14.8969
3.7323	15.2455
3.7296	15.5697
3.7269	15.8513
3.7242	16.1127
3.7216	16.3126
3.7189	16.4653
3.7162	16.6403
3.7136	16.8104
3.7109	16.9579
3.7083	17.0915
3.7056	17.2172
3.703	17.3546
3.7003	17.481
3.6977	17.545
3.695	17.5848
3.6924	17.6499
3.6898	17.7183
3.6872	17.7839
3.6845	17.8308
3.6819	17.8509
3.6793	17.8422
3.6767	17.8194
3.6741	17.7972
3.6715	17.7602
3.6689	17.7015
3.6663	17.6361
3.6637	17.5743
3.6611	17.4971
3.6585	17.3783
3.656	17.2482
3.6534	17.1035
3.6508	16.9868
3.6482	16.8817
3.6457	16.7334
3.6431	16.5788
3.6406	16.4447
3.638	16.2898
3.6355	16.1373
3.6329	15.9718
3.6304	15.7928
3.6278	15.5699
3.6253	15.3315
3.6227	15.1221
3.6202	14.9433
3.6177	14.7437
3.6152	14.5189
3.6127	14.2914
3.6101	14.028
3.6076	13.7592
3.6051	13.4521
3.6026	13.072
3.6001	12.6907
3.5976	12.3123
3.5951	11.9038
3.5926	11.4716
3.5901	11.0098
3.5876	10.4961
3.5852	9.9321
3.5827	9.3762
3.5802	8.7979
3.5777	8.2649
3.5753	7.7983
3.5728	7.4519
3.5704	7.3029
3.5679	7.2312
3.5654	7.175
3.563	7.0962
3.5605	6.9979
3.5581	6.8603
3.5557	6.6434
3.5532	6.4161
3.5508	6.1982
3.5484	5.9389
3.5459	5.6483
3.5435	5.3717
3.5411	5.1129
3.5387	4.8547
3.5363	4.6032
3.5338	4.3837
3.5314	4.1717
3.529	3.942
3.5266	3.7329
3.5242	3.5856
3.5218	3.4573
3.5195	3.2988
3.5171	3.2032
3.5147	3.1295
3.5123	3.0308
3.5099	2.9664
3.5075	2.9832
3.5052	2.9732
3.5028	2.9237
3.5004	2.8847
3.4981	2.8667
3.4957	2.8418
3.4934	2.8257
3.491	2.8309
3.4887	2.8086
3.4863	2.762
3.484	2.73
3.4816	2.6959
3.4793	2.6834
3.477	2.6895
3.4746	2.7042
3.4723	2.7175
3.47	2.7629
3.4677	2.8129
3.4653	2.8785
3.463	2.9467
3.4607	3.004
3.4584	3.0199
3.4561	3.0275
3.4538	3.0824
3.4515	3.1414
3.4492	3.1584
3.4469	3.1549
3.4446	3.1549
3.4423	3.1714
3.44	3.1579
3.4378	3.1868
3.4355	3.2164
3.4332	3.1703
3.4309	3.1757
3.4287	3.1991
3.4264	3.2055
3.4241	3.1951
3.4219	3.1766
3.4196	3.1437
3.4174	3.1331
3.4151	3.1748
3.4129	3.2117
3.4106	3.1821
3.4084	3.1523
3.4061	3.1577
3.4039	3.2017
3.4017	3.2051
3.3994	3.1485
3.3972	3.0886
3.395	3.1087
3.3928	3.1321
3.3906	3.1267
3.3883	3.0869
3.3861	3.0791
3.3839	3.1127
3.3817	3.1196
3.3795	3.0933
3.3773	3.1021
3.3751	3.1047
3.3729	3.0914
3.3707	3.0919
3.3685	3.0791
3.3663	3.0608
3.3641	3.0575
3.362	2.9971
3.3598	2.9801
3.3576	2.977
3.3554	2.9621
3.3533	2.9185
3.3511	2.8856
3.3489	2.9225
3.3468	2.9552
3.3446	3.0078
3.3425	3.1193
3.3403	3.2913
3.3382	3.5283
3.336	3.8004
3.3339	4.1014
3.3317	4.4116
3.3296	4.7107
3.3274	4.9987
3.3253	5.3307
3.3232	5.6431
3.321	5.9007
3.3189	6.1492
3.3168	6.4011
3.3147	6.6469
3.3126	6.8802
3.3104	7.0869
3.3083	7.3015
3.3062	7.5364
3.3041	7.7439
3.302	7.9459
3.2999	8.1304
3.2978	8.3345
3.2957	8.5436
3.2936	8.7155
3.2915	8.892
3.2894	9.1063
3.2874	9.2806
3.2853	9.4788
3.2832	9.6626
3.2811	9.7736
3.279	9.9247
3.277	10.1163
3.2749	10.2795
3.2728	10.4689
3.2708	10.6326
3.2687	10.7514
3.2666	10.8736
3.2646	10.9859
3.2625	11.1197
3.2605	11.231
3.2584	11.3797
3.2564	11.474
3.2543	11.5528
3.2523	11.626
3.2503	11.6665
3.2482	11.7761
3.2462	11.8747
3.2442	11.9178
3.2421	11.9519
3.2401	12.0269
3.2381	12.124
3.2361	12.2138
3.234	12.2635
3.232	12.3154
3.23	12.3533
3.228	12.4165
3.226	12.5022
3.224	12.5401
3.222	12.5515
3.22	12.619
3.218	12.6955
3.216	12.7246
3.214	12.7168
3.212	12.7495
3.21	12.802
3.208	12.8357
3.206	12.8634
3.204	12.8354
3.2021	12.7921
3.2001	12.7691
3.1981	12.7689
3.1961	12.7516
3.1942	12.7023
3.1922	12.6704
3.1902	12.6704
3.1883	12.6526
3.1863	12.5932
3.1844	12.4949
3.1824	12.411
3.1805	12.353
3.1785	12.2585
3.1766	12.1167
3.1746	11.9919
3.1727	11.8356
3.1707	11.6677
3.1688	11.5069
3.1669	11.2928
3.1649	11.0527
3.163	10.8514
3.1611	10.5857
3.1591	10.3574
3.1572	10.193
3.1553	10.0393
3.1534	9.9122
3.1515	9.8011
3.1495	9.7559
3.1476	9.7341
3.1457	9.727
3.1438	9.7561
3.1419	9.7419
3.14	9.7608
3.1381	9.8466
3.1362	9.8949
3.1343	9.8908
3.1324	9.9205
3.1305	9.9453
3.1286	9.8721
3.1268	9.8099
3.1249	9.7774
3.123	9.7139
3.1211	9.6024
3.1192	9.4774
3.1174	9.3372
3.1155	9.1844
3.1136	9.0156
3.1117	8.9156
3.1099	8.8384
3.108	8.8221
3.1061	8.8167
3.1043	8.8013
3.1024	8.8174
3.1006	8.9097
3.0987	9.0004
3.0969	9.0629
3.095	9.1174
3.0932	9.2086
3.0913	9.3225
3.0895	9.4321
3.0876	9.5257
3.0858	9.5944
3.084	9.7206
3.0821	9.7613
3.0803	9.8487
3.0785	9.9593
3.0766	10.027
3.0748	10.0363
3.073	10.022
3.0712	10.022
3.0694	10.076
3.0675	10.1045
3.0657	10.1414
3.0639	10.1757
3.0621	10.1857
3.0603	10.1935
3.0585	10.2293
3.0567	10.2797
3.0549	10.3268
3.0531	10.3493
3.0513	10.3815
3.0495	10.3536
3.0477	10.3545
3.0459	10.3929
3.0441	10.4438
3.0423	10.4976
3.0406	10.5082
3.0388	10.499
3.037	10.5082
3.0352	10.5393
3.0334	10.5859
3.0317	10.5802
3.0299	10.5539
3.0281	10.5973
3.0264	10.6236
3.0246	10.6236
3.0228	10.624
3.0211	10.6368
3.0193	10.679
3.0176	10.6723
3.0158	10.6413
3.014	10.6534
3.0123	10.6496
3.0105	10.6652
3.0088	10.741
3.007	10.75
3.0053	10.6818
3.0036	10.6643
3.0018	10.6941
3.0001	10.6941
2.9984	10.6783
2.9966	10.6683
2.9949	10.6347
2.9932	10.6536
2.9914	10.674
2.9897	10.6491
2.988	10.6191
2.9863	10.6451
2.9845	10.6255
2.9828	10.602
2.9811	10.5918
2.9794	10.5857
2.9777	10.5556
2.976	10.5445
2.9743	10.5106
2.9726	10.4675
2.9709	10.4483
2.9692	10.4715
2.9675	10.4682
2.9658	10.454
2.9641	10.3872
2.9624	10.3903
2.9607	10.4523
2.959	10.4289
2.9573	10.4009
2.9556	10.3718
2.9539	10.3695
2.9523	10.3811
2.9506	10.4168
2.9489	10.3785
2.9472	10.3285
2.9455	10.3936
2.9439	10.4431
2.9422	10.4173
2.9405	10.3503
2.9389	10.3642
2.9372	10.4301
2.9355	10.4419
2.9339	10.4396
2.9322	10.4618
2.9306	10.4969
2.9289	10.5144
2.9272	10.499
2.9256	10.4796
2.9239	10.4905
2.9223	10.5262
2.9207	10.5305
2.919	10.5423
2.9174	10.6368
2.9157	10.6761
2.9141	10.6401
2.9124	10.6842
2.9108	10.7278
2.9092	10.7339
2.9075	10.7358
2.9059	10.7079
2.9043	10.7008
2.9027	10.7827
2.901	10.8516
2.8994	10.8495
2.8978	10.8836
2.8962	10.947
2.8946	10.9748
2.8929	10.9968
2.8913	11.065
2.8897	11.0709
2.8881	11.0823
2.8865	11.1455
2.8849	11.163
2.8833	11.2078
2.8817	11.275
2.8801	11.3122
2.8785	11.3705
2.8769	11.3811
2.8753	11.4493
2.8737	11.5322
2.8721	11.5377
2.8705	11.55
2.8689	11.5919
2.8673	11.6625
2.8658	11.6897
2.8642	11.7101
2.8626	11.7517
2.861	11.7854
2.8594	11.8289
2.8579	11.8865
2.8563	11.9241
2.8547	11.9665
2.8531	12.0089
2.8516	12.0672
2.85	12.1569
2.8484	12.1631
2.8469	12.137
2.8453	12.1546
2.8437	12.2268
2.8422	12.2616
2.8406	12.3139
2.8391	12.3445
2.8375	12.3874
2.836	12.4051
2.8344	12.4139
2.8329	12.443
2.8313	12.438
2.8298	12.4039
2.8282	12.4698
2.8267	12.4759
2.8252	12.4404
2.8236	12.4073
2.8221	12.3876
2.8205	12.3921
2.819	12.3755
2.8175	12.3544
2.8159	12.2957
2.8144	12.2408
2.8129	12.2057
2.8114	12.1458
2.8098	12.0672
2.8083	11.9457
2.8068	11.8709
2.8053	11.8055
2.8038	11.706
2.8022	11.5978
2.8007	11.4957
2.7992	11.3797
2.7977	11.2016
2.7962	11.0425
2.7947	10.8234
2.7932	10.6238
2.7917	10.462
2.7902	10.3105
2.7887	10.2169
2.7872	10.194
2.7857	10.2034
2.7842	10.347
2.7827	10.6096
2.7812	10.9018
2.7797	11.2459
2.7782	11.6146
2.7767	12.017
2.7752	12.381
2.7738	12.7203
2.7723	13.0864
2.7708	13.4942
2.7693	13.9323
2.7678	14.3877
2.7664	14.8161
2.7649	15.2157
2.7634	15.6227
2.7619	15.9891
2.7605	16.3337
2.759	16.6581
2.7575	16.9603
2.7561	17.1834
2.7546	17.405
2.7531	17.684
2.7517	17.9504
2.7502	18.1803
2.7488	18.4366
2.7473	18.7698
2.7458	19.0904
2.7444	19.3658
2.7429	19.6837
2.7415	19.9681
2.74	20.2596
2.7386	20.6537
2.7371	21.0674
2.7357	21.4579
2.7343	21.8884
2.7328	22.3083
2.7314	22.7495
2.7299	23.2482
2.7285	23.7152
2.7271	24.1585
2.7256	24.6362
2.7242	25.1709
2.7228	25.6656
2.7213	26.2169
2.7199	26.9288
2.7185	27.698
2.7171	28.4442
2.7156	29.1738
2.7142	29.9503
2.7128	30.7894
2.7114	31.5886
2.71	32.394
2.7085	33.2759
2.7071	34.1538
2.7057	35.0584
2.7043	35.9697
2.7029	36.7664
2.7015	37.5884
2.7001	38.4388
2.6987	39.2309
2.6973	40.0247
2.6959	40.8095
2.6945	41.5638
2.6931	42.3739
2.6917	43.1407
2.6903	43.8441
2.6889	44.5202
2.6875	45.1776
2.6861	45.8355
2.6847	46.4083
2.6833	46.9243
2.6819	47.3999
2.6805	47.8195
2.6791	48.269
2.6778	48.7116
2.6764	49.0597
2.675	49.3482
2.6736	49.7095
2.6722	50.1171
2.6709	50.4778
2.6695	50.7534
2.6681	51.0388
2.6667	51.3642
2.6654	51.6315
2.664	51.8411
2.6626	52.0715
2.6613	52.3697
2.6599	52.6217
2.6585	52.8679
2.6572	53.0773
2.6558	53.294
2.6545	53.5033
2.6531	53.7112
2.6517	53.872
2.6504	53.9653
2.649	54.1063
2.6477	54.2457
2.6463	54.3173
2.645	54.4245
2.6436	54.5425
2.6423	54.6166
2.6409	54.6739
2.6396	54.7753
2.6382	54.798
2.6369	54.7959
2.6356	54.8366
2.6342	54.8574
2.6329	54.8742
2.6315	54.9185
2.6302	54.9261
2.6289	54.9062
2.6275	54.8446
2.6262	54.7537
2.6249	54.6843
2.6236	54.6703
2.6222	54.613
2.6209	54.5647
2.6196	54.4994
2.6183	54.4212
2.6169	54.3052
2.6156	54.1827
2.6143	54.0885
2.613	53.9727
2.6117	53.7759
2.6103	53.5656
2.609	53.3584
2.6077	53.1455
2.6064	52.9556
2.6051	52.6915
2.6038	52.3995
2.6025	52.1052
2.6012	51.7883
2.5999	51.4613
2.5986	51.0861
2.5973	50.6535
2.596	50.2298
2.5947	49.7934
2.5934	49.2553
2.5921	48.6813
2.5908	48.0788
2.5895	47.4719
2.5882	46.8457
2.5869	46.1845
2.5856	45.4961
2.5843	44.8688
2.583	44.304
2.5817	43.8086
2.5805	43.3731
2.5792	42.9359
2.5779	42.4786
2.5766	42.0391
2.5753	41.5159
2.5741	40.917
2.5728	40.3231
2.5715	39.6728
2.5702	38.995
2.569	38.2581
2.5677	37.4787
2.5664	36.6726
2.5651	35.8051
2.5639	34.8607
2.5626	33.8223
2.5613	32.7282
2.5601	31.5121
2.5588	30.2651
2.5575	29.107
2.5563	27.9019
2.555	26.6475
2.5538	25.4359
2.5525	24.2556
2.5513	23.1293
2.55	22.0577
2.5487	21.0162
2.5475	20.0917
2.5462	19.2692
2.545	18.524
2.5437	17.8242
2.5425	17.1703
2.5413	16.6335
2.54	16.2548
2.5388	15.9491
2.5375	15.7362
2.5363	15.6436
2.535	15.632
2.5338	15.6751
2.5326	15.7985
2.5313	16.0161
2.5301	16.2858
2.5289	16.6188
2.5276	16.9958
2.5264	17.3463
2.5252	17.8014
2.5239	18.2879
2.5227	18.7165
2.5215	19.1217
2.5202	19.5525
2.519	19.951
2.5178	20.3534
2.5166	20.7434
2.5154	20.9942
2.5141	21.199
2.5129	21.4709
2.5117	21.708
2.5105	21.8543
2.5093	22.0007
2.5081	22.12
2.5068	22.2671
2.5056	22.4021
2.5044	22.506
2.5032	22.5991
2.502	22.7196
2.5008	22.8946
2.4996	23.0083
2.4984	23.0796
2.4972	23.2082
2.496	23.3313
2.4948	23.4689
2.4936	23.6084
2.4924	23.7297
2.4912	23.8817
2.49	24.0515
2.4888	24.1967
2.4876	24.3984
2.4864	24.6895
2.4852	25.0087
2.484	25.2621
2.4828	25.5697
2.4816	25.8996
2.4805	26.2648
2.4793	26.6906
2.4781	27.1104
2.4769	27.5796
2.4757	28.0977
2.4745	28.6329
2.4734	29.1809
2.4722	29.7239
2.471	30.3349
2.4698	31.0077
2.4686	31.6817
2.4675	32.3116
2.4663	32.9136
2.4651	33.5959
2.464	34.2843
2.4628	34.9436
2.4616	35.5906
2.4604	36.2155
2.4593	36.8336
2.4581	37.4735
2.4569	38.0961
2.4558	38.6502
2.4546	39.2077
2.4535	39.7633
2.4523	40.2774
2.4511	40.8206
2.45	41.3386
2.4488	41.7914
2.4477	42.2764
2.4465	42.8108
2.4454	43.2892
2.4442	43.7295
2.4431	44.1328
2.4419	44.5789
2.4408	45.1151
2.4396	45.5619
2.4385	45.9757
2.4373	46.4886
2.4362	46.9475
2.435	47.4046
2.4339	47.8609
2.4327	48.2749
2.4316	48.7291
2.4305	49.1511
2.4293	49.6124
2.4282	50.0662
2.427	50.5029
2.4259	50.9625
2.4248	51.3656
2.4236	51.7478
2.4225	52.2004
2.4214	52.6295
2.4202	52.9795
2.4191	53.3603
2.418	53.7446
2.4169	54.0643
2.4157	54.3431
2.4146	54.6045
2.4135	54.8612
2.4124	55.1196
2.4112	55.2816
2.4101	55.4573
2.409	55.5837
2.4079	55.5783
2.4068	55.548
2.4056	55.5196
2.4045	55.4476
2.4034	55.3832
2.4023	55.3083
2.4012	55.261
2.4001	55.2375
2.399	55.2505
2.3979	55.3806
2.3967	55.5253
2.3956	55.74
2.3945	55.8871
2.3934	55.9778
2.3923	55.9638
2.3912	55.9501
2.3901	55.9712
2.389	55.9079
2.3879	55.7488
2.3868	55.5882
2.3857	55.4246
2.3846	55.1523
2.3835	54.8584
2.3824	54.5519
2.3813	54.1276
2.3802	53.6634
2.3791	53.2187
2.3781	52.5759
2.377	51.9119
2.3759	51.3052
2.3748	50.6386
2.3737	49.889
2.3726	49.117
2.3715	48.3628
2.3704	47.6341
2.3694	46.8981
2.3683	46.0683
2.3672	45.2593
2.3661	44.4243
2.365	43.5177
2.364	42.4793
2.3629	41.4238
2.3618	40.3477
2.3607	39.2091
2.3597	38.0336
2.3586	36.9314
2.3575	35.9245
2.3564	34.8541
2.3554	33.7917
2.3543	32.8284
2.3532	31.9528
2.3522	31.2104
2.3511	30.5033
2.35	29.8113
2.349	29.2136
2.3479	28.6917
2.3468	28.1285
2.3458	27.6911
2.3447	27.3314
2.3436	27.0519
2.3426	26.8222
2.3415	26.6008
2.3405	26.4931
2.3394	26.4694
2.3384	26.4099
2.3373	26.4514
2.3363	26.6389
2.3352	26.7824
2.3342	26.8999
2.3331	27.0808
2.3321	27.3721
2.331	27.7505
2.33	28.1295
2.3289	28.4555
2.3279	28.7887
2.3268	29.1757
2.3258	29.6008
2.3247	30.0162
2.3237	30.3844
2.3226	30.6833
2.3216	30.9594
2.3206	31.3239
2.3195	31.6976
2.3185	31.9851
2.3175	32.2503
2.3164	32.4873
2.3154	32.7225
2.3144	32.8904
2.3133	33.0955
2.3123	33.3844
2.3113	33.5852
2.3102	33.7354
2.3092	33.9404
2.3082	34.042
2.3071	34.0953
2.3061	34.2637
2.3051	34.3951
2.3041	34.5353
2.303	34.6968
2.302	34.859
2.301	35.0248
2.3	35.1799
2.299	35.3223
2.2979	35.5806
2.2969	35.8667
2.2959	36.0493
2.2949	36.2537
2.2939	36.5106
2.2929	36.7815
2.2918	37.0697
2.2908	37.3226
2.2898	37.6459
2.2888	37.9459
2.2878	38.2545
2.2868	38.6578
2.2858	39.0036
2.2848	39.3739
2.2838	39.8092
2.2828	40.2568
2.2818	40.7022
2.2808	41.1536
2.2798	41.6201
2.2787	42.1378
2.2777	42.687
2.2767	43.2018
2.2757	43.7562
2.2747	44.2685
2.2738	44.7404
2.2728	45.2773
2.2718	45.7708
2.2708	46.2717
2.2698	46.7195
2.2688	47.0676
2.2678	47.4891
2.2668	47.9869
2.2658	48.4369
2.2648	48.8485
2.2638	49.1767
2.2628	49.5861
2.2618	50.0666
2.2609	50.464
2.2599	50.8889
2.2589	51.2517
2.2579	51.6528
2.2569	52.0744
2.2559	52.3789
2.255	52.6783
2.254	53.0718
2.253	53.438
2.252	53.8131
2.251	54.2024
2.2501	54.6055
2.2491	54.9441
2.2481	55.2759
2.2471	55.6406
2.2462	56.0183
2.2452	56.4053
2.2442	56.6714
2.2433	57.002
2.2423	57.3916
2.2413	57.7454
2.2403	58.0561
2.2394	58.3753
2.2384	58.6574
2.2374	58.9667
2.2365	59.3427
2.2355	59.6563
2.2345	59.9201
2.2336	60.1829
2.2326	60.5228
2.2317	60.883
2.2307	61.1946
2.2297	61.4288
2.2288	61.7071
2.2278	62.0671
2.2269	62.3735
2.2259	62.678
2.225	62.9738
2.224	63.2057
2.2231	63.4737
2.2221	63.7676
2.2211	64.0142
2.2202	64.2486
2.2192	64.4596
2.2183	64.6943
2.2173	64.9226
2.2164	65.0898
2.2155	65.2508
2.2145	65.4673
2.2136	65.6174
2.2126	65.7976
2.2117	66.0086
2.2107	66.2151
2.2098	66.3837
2.2088	66.5457
2.2079	66.6982
2.207	66.845
2.206	66.9762
2.2051	67.133
2.2041	67.3007
2.2032	67.4906
2.2023	67.5955
2.2013	67.7378
2.2004	67.847
2.1995	67.9178
2.1985	67.919
2.1976	68.0526
2.1967	68.1835
2.1957	68.2579
2.1948	68.3531
2.1939	68.436
2.193	68.4604
2.192	68.5264
2.1911	68.5577
2.1902	68.5129
2.1893	68.5913
2.1883	68.6141
2.1874	68.5383
2.1865	68.4109
2.1856	68.3862
2.1846	68.3777
2.1837	68.2991
2.1828	68.2517
2.1819	68.1208
2.181	67.8605
2.18	67.7786
2.1791	67.6801
2.1782	67.4267
2.1773	67.3608
2.1764	67.2699
2.1755	67.0833
2.1746	66.9478
2.1736	66.7873
2.1727	66.5841
2.1718	66.3231
2.1709	66.1341
2.17	65.9996
2.1691	65.7931
2.1682	65.5227
2.1673	65.2499
2.1664	65.0183
2.1655	64.8582
2.1646	64.7241
2.1637	64.619
2.1628	64.4968
2.1619	64.4042
2.161	64.3265
2.1601	64.2524
2.1592	64.169
2.1583	64.1612
2.1574	64.1191
2.1565	63.9647
2.1556	63.9431
2.1547	64.0028
2.1538	64.0288
2.1529	64.0923
2.152	64.1221
2.1511	64.2387
2.1502	64.4456
2.1493	64.5655
2.1484	64.6701
2.1475	64.8636
2.1466	65.135
2.1458	65.3541
2.1449	65.6955
2.144	66.0801
2.1431	66.4382
2.1422	66.9009
2.1413	67.3196
2.1404	67.5981
2.1396	67.8989
2.1387	68.1617
2.1378	68.5018
2.1369	68.8267
2.136	68.9295
2.1352	69.1928
2.1343	69.415
2.1334	69.5147
2.1325	69.586
2.1316	69.8145
2.1308	70.0113
2.1299	70.0601
2.129	70.133
2.1281	70.2083
2.1273	70.3106
2.1264	70.4548
2.1255	70.6455
2.1247	70.708
2.1238	70.7042
2.1229	70.7686
2.122	70.7715
2.1212	70.8079
2.1203	70.9514
2.1194	71.0272
2.1186	71.1305
2.1177	71.1927
2.1168	71.2882
2.116	71.3535
2.1151	71.3933
2.1143	71.4786
2.1134	71.6169
2.1125	71.6661
2.1117	71.7168
2.1108	71.8466
2.11	72.0015
2.1091	72.1592
2.1082	72.1469
2.1074	72.0896
2.1065	72.2009
2.1057	72.4221
2.1048	72.5031
2.104	72.4836
2.1031	72.6508
2.1023	72.7844
2.1014	72.8232
2.1005	72.9037
2.0997	72.9317
2.0988	73.0217
2.098	73.1538
2.0971	73.2429
2.0963	73.2438
2.0955	73.2301
2.0946	73.3111
2.0938	73.4001
2.0929	73.4645
2.0921	73.5161
2.0912	73.5995
2.0904	73.5524
2.0895	73.4944
2.0887	73.5737
2.0879	73.6395
2.087	73.6824
2.0862	73.7385
2.0853	73.7385
2.0845	73.7369
2.0837	73.7781
2.0828	73.7745
2.082	73.7212
2.0812	73.7144
2.0803	73.7601
2.0795	73.7416
2.076	73.669
2.072	73.7589
2.068	74.0063
2.064	74.1095
2.06	73.8286
2.056	73.7037
2.052	73.7793
2.048	73.6598
2.044	73.4244
2.04	73.237
2.036	73.5497
2.032	73.1648
2.028	72.1754
2.024	71.8172
2.02	71.1726
2.016	70.385
2.012	69.7711
2.008	69.1044
2.004	67.6754
2	66.5055
1.996	65.3634
1.992	64.2006
1.988	63.476
1.984	63.3622
1.98	63.3453
1.976	64.0637
1.972	64.6354
1.968	64.619
1.964	64.485
1.96	64.3708
1.956	64.5107
1.952	64.6438
1.948	64.9082
1.944	65.1195
1.94	65.3592
1.936	65.0651
1.932	64.6164
1.928	64.6445
1.924	64.6117
1.92	64.5628
1.916	64.4937
1.912	64.4354
1.908	64.6044
1.904	64.6079
1.9	65.5425
1.896	66.8657
1.892	67.8141
1.888	68.7749
1.884	69.3701
1.88	69.3821
1.876	68.5474
1.872	67.2325
1.868	66.8109
1.864	67.4398
1.86	68.8143
1.856	70.303
1.852	71.0144
1.848	71.7801
1.844	72.0728
1.84	72.1722
1.836	72.1124
1.832	72.2967
1.828	73.7021
1.824	74.972
1.82	75.3663
1.816	75.5266
1.812	76.0721
1.808	76.7182
1.804	76.8147
1.8	77.0243
1.796	77.6409
1.792	77.6409
1.788	77.601
1.784	77.5475
1.78	77.0699
1.776	77.0914
1.772	77.3351
1.768	77.1373
1.764	76.7954
1.76	76.4101
1.756	76.1686
1.752	76.3011
1.748	76.5135
1.744	76.6075
1.74	76.5396
1.736	76.4718
1.732	76.5552
1.728	76.343
1.724	76.1216
1.72	76.2686
1.716	76.5824
1.712	76.6843
1.708	76.9014
1.704	77.1685
1.7	77.1709
1.696	77.0955
1.692	77.637
1.688	77.6694
1.684	77.7194
1.68	77.8498
1.676	77.9145
1.672	78.0121
1.668	78.0047
1.664	77.6803
1.66	77.4859
1.656	77.5507
1.652	77.735
1.648	77.9411
1.644	77.8836
1.64	77.9161
1.636	77.4934
1.632	77.4819
1.628	77.6597
1.624	77.4423
1.62	77.6156
1.616	77.8737
1.612	77.8873
1.608	77.7433
1.604	77.6701
1.6	77.8119
1.596	77.9867
1.592	77.8885
1.588	77.8521
1.584	77.8348
1.58	77.4232
1.576	77.3952
1.572	77.1652
1.568	77.1033
1.564	77.1513
1.56	76.9368
1.556	76.6781
1.552	76.6193
1.548	76.7562
1.544	76.7562
1.54	76.4532
1.536	76.6615
1.532	76.5002
1.528	76.2993
1.524	76.4422
1.52	76.4298
1.516	76.5045
1.512	76.957
1.508	77.1522
1.504	77.247
1.5	76.9814
1.496	75.2071
1.492	75.1253
1.488	75.1021
1.484	75.0753
1.48	74.8579
1.476	74.2764
1.472	74.1357
1.468	73.8724
1.464	73.9838
1.46	74.1361
1.456	74.2578
1.452	74.4825
1.448	74.2889
1.444	74.1499
1.44	74.0027
1.436	73.8837
1.432	73.9639
1.428	74.143
1.424	74.3409
1.42	74.796
1.416	74.7698
1.412	74.6862
1.408	74.7543
1.404	74.8517
1.4	75.0785
1.396	75.1498
1.392	75.0664
1.388	75.0185
1.384	75.7786
1.38	75.7614
1.376	76.3635
1.372	77.4951
1.368	77.5606
1.364	76.9778
1.36	76.7536
1.356	76.6526
1.352	77.2234
1.348	77.5486
1.344	77.8463
1.34	78.0551
1.336	78.004
1.332	77.9769
1.328	77.7407
1.324	77.5384
1.32	77.5842
1.316	77.5644
1.312	77.4982
1.308	77.4328
1.304	77.7484
1.3	78.073
1.296	78.1327
1.292	78.2147
1.288	78.2339
1.284	78.0617
1.28	77.9153
1.276	77.572
1.272	77.2402
1.268	77.0922
1.264	77.3084
1.26	77.5219
1.256	77.5184
1.252	77.4168
1.248	77.5324
1.244	77.4219
1.24	77.5894
1.236	77.7591
1.232	77.4651
1.228	77.2969
1.224	77.3035
1.22	77.4414
1.216	77.8019
1.212	78.0658
1.208	77.9112
1.204	77.7877
1.2	77.9483
1.196	77.8164
1.192	77.8432
1.188	77.7882
1.184	77.744
1.18	77.7847
1.176	77.7266
1.172	77.5606
1.168	77.659
1.164	77.8699
1.16	77.6287
1.156	77.401
1.152	77.2544
1.148	77.2177
1.144	76.8161
1.14	77.1832
1.136	76.9899
1.132	76.8406
1.128	76.7122
1.124	77.293
1.12	76.9808
1.116	76.6948
1.112	76.7064
1.108	76.9519
1.104	76.8985
1.1	76.7482
1.096	76.6391
1.092	76.5281
1.088	76.7849
1.084	77.105
1.08	77.2711
1.076	77.0139
1.072	77.1895
1.068	77.036
1.064	77.1458
1.06	77.2805
1.056	77.0666
1.052	77.3115
1.048	77.4093
1.044	77.432
1.04	77.3342
1.036	77.6241
1.032	77.6339
1.028	77.6321
1.024	77.9667
1.02	77.8151
1.016	77.9518
1.012	78.007
1.008	78.2609
1.004	78.5688
1	78.486
0.996	78.3882
0.992	78.471
0.988	78.4417
0.984	78.6181
0.98	78.7762
0.976	79.3375
0.972	79.3798
0.968	79.3001
0.964	79.6778
0.96	79.589
0.956	79.6065
0.952	79.8338
0.948	79.9143
0.944	80.2629
0.94	80.0791
0.936	80.1599
0.932	80.1769
0.928	80.6549
0.924	80.8082
0.92	80.8184
0.916	81.0545
0.912	81.0172
0.908	81.0892
0.904	81.4376
0.9	81.6327
0.896	81.6551
0.892	81.9
0.888	82.3369
0.884	82.4404
0.88	82.3731
0.876	82.7899
0.872	82.8647
0.868	82.9265
0.864	83.1573
0.86	83.0896
0.856	83.2142
0.852	83.2341
0.848	83.4405
0.844	83.3086
0.84	83.2713
0.836	83.1705
0.832	83.1071
0.828	82.8895
0.824	82.8216
0.82	82.8764
0.816	82.6216
0.812	82.8354
0.808	83.3199
0.804	83.3706
0.8	83.0979
0.799	83.0983
0.798	83.1001
0.797	83.1781
0.796	83.201
0.795	82.8127
0.794	82.9969
0.793	83.2399
0.792	83.2302
0.791	83.5256
0.79	83.6026
0.789	83.4364
0.788	83.0454
0.787	83.141
0.786	83.3999
0.785	83.3104
0.784	83.055
0.783	83.2033
0.782	83.3999
0.781	83.1904
0.78	83.0474
0.779	83.1223
0.778	83.3465
0.777	83.8338
0.776	83.8338
0.775	83.7096
0.774	84.0606
0.773	84.1193
0.772	84.2665
0.771	83.8166
0.77	83.4037
0.769	83.5437
0.768	83.5271
0.767	83.5638
0.766	83.7691
0.765	84.0042
0.764	83.7881
0.763	83.8616
0.762	84.3887
0.761	84.2291
0.76	84.6353
0.759	84.4538
0.758	84.4715
0.757	84.2112
0.756	83.4947
0.755	83.4276
0.754	83.9581
0.753	83.7388
0.752	83.8064
0.751	84.0859
0.75	84.1669
0.749	83.8496
0.748	83.9607
0.747	84.1758
0.746	84.002
0.745	83.5701
0.744	83.5186
0.743	83.3322
0.742	83.4632
0.741	83.7463
0.74	84.137
0.739	84.0736
0.738	84.0274
0.737	83.5718
0.736	83.6934
0.735	83.6151
0.734	84.1758
0.733	84.0046
0.732	84.2485
0.731	84.1142
0.73	83.8667
0.729	83.6069
0.728	83.6481
0.727	83.3889
0.726	83.0683
0.725	83.3112
0.724	83.9076
0.723	83.844
0.722	83.9747
0.721	84.2779
0.72	83.7833
0.719	83.5081
0.718	83.5305
0.717	84.012
0.716	84.1997
0.715	84.1233
0.714	83.9004
0.713	83.8844
0.712	83.6198
0.711	82.9167
0.71	83.3201
0.709	83.4629
0.708	83.554
0.707	83.4753
0.706	83.2958
0.705	83.5688
0.704	83.4915
0.703	83.5584
0.702	83.7862
0.701	83.7756
0.7	83.8986
0.699	84.0616
0.698	83.2793
0.697	83.213
0.696	83.4716
0.695	83.7527
0.694	83.8043
0.693	83.8475
0.692	83.5339
0.691	83.4694
0.69	83.5016
0.689	83.7537
0.688	83.9016
0.687	83.8644
0.686	83.8463
0.685	83.7527
0.684	83.5661
0.683	83.7823
0.682	83.3062
0.681	83.3993
0.68	83.1197
0.679	83.0365
0.678	83.3909
0.677	83.1665
0.676	83.1988
0.675	83.6514
0.674	83.5111
0.673	83.3856
0.672	83.4363
0.671	83.1577
0.67	83.1948
0.669	82.8987
0.668	82.8768
0.667	83.5856
0.666	83.3806
0.665	83.3806
0.664	83.7212
0.663	84.1909
0.662	83.7643
0.661	83.4742
0.66	82.8532
0.659	83.1117
0.658	82.898
0.657	82.6772
0.656	83.1492
0.655	83.0287
0.654	83.0658
0.653	83.2606
0.652	83.3492
0.651	83.4978
0.65	83.3669
0.649	83.0432
0.648	82.9872
0.647	83.2658
0.646	83.3492
0.645	83.7124
0.644	83.6886
0.643	83.3483
0.642	83.2976
0.641	83.2653
0.64	83.3393
0.639	83.1356
0.638	83.5073
0.637	83.5931
0.636	82.8375
0.635	82.6062
0.634	82.5524
0.633	82.7276
0.632	82.7095
0.631	83.1356
0.63	83.2006
0.629	82.8953
0.628	82.8953
0.627	82.909
0.626	83.0015
0.625	82.8389
0.624	83.2245
0.623	82.9309
0.622	82.6805
0.621	82.9396
0.62	82.9396
0.619	82.7435
0.618	82.7919
0.617	82.9028
0.616	83.0797
0.615	82.9314
0.614	82.5243
0.613	82.6534
0.612	83.1262
0.611	83.1729
0.61	83.061
0.609	83.1769
0.608	83.1769
0.607	83.2379
0.606	83.3501
0.605	83.4532
0.604	83.4164
0.603	83.426
0.602	83.3329
0.601	83.3274
0.6	83.4988
0.599	83.4522
0.598	83.0208
0.597	83.0872
0.596	83.3942
0.595	83.3558
0.594	82.6572
0.593	82.0595
0.592	82.4295
0.591	82.5212
0.59	83.0202
0.589	82.7503
0.588	82.6375
0.587	82.576
0.586	82.5792
0.585	82.6975
0.584	82.5362
0.583	82.5913
0.582	82.6214
0.581	82.8978
0.58	82.8125
0.579	82.6147
0.578	82.7468
0.577	82.7855
0.576	82.6068
0.575	82.3601
0.574	82.3127
0.573	82.0948
0.572	82.2232
0.571	82.6318
0.57	82.6915
0.569	82.7663
0.568	82.555
0.567	82.4444
0.566	82.5728
0.565	82.4762
0.564	82.4075
0.563	82.4075
0.562	82.3794
0.561	82.3689
0.56	82.302
0.559	82.4829
0.558	84.2002
0.557	83.9659
0.556	83.6594
0.555	83.3686
0.554	83.6505
0.553	83.6601
0.552	83.5849
0.551	83.6378
0.55	83.6717
0.549	83.3781
0.548	83.2649
0.547	83.0441
0.546	82.9354
0.545	82.8848
0.544	82.9524
0.543	82.5775
0.542	82.7199
0.541	83.0392
0.54	82.7847
0.539	82.4566
0.538	82.4169
0.537	82.5749
0.536	82.4595
0.535	82.2082
0.534	82.6618
0.533	83.0563
0.532	83.2077
0.531	83.1147
0.53	82.9049
0.529	82.8282
0.528	82.8558
0.527	83.1221
0.526	83.3306
0.525	83.169
0.524	82.5749
0.523	82.6702
0.522	83.0563
0.521	83.2196
0.52	82.9724
0.519	82.6312
0.518	82.7054
0.517	82.1301
0.516	81.9788
0.515	82.4796
0.514	82.3972
0.513	82.7363
0.512	82.415
0.511	82.1142
0.51	82.4127
0.509	82.2138
0.508	82.4303
0.507	82.2423
0.506	82.457
0.505	82.8457
0.504	82.6585
0.503	82.6674
0.502	83.0462
0.501	82.7255
0.5	81.863
0.499	81.9701
0.498	82.2131
0.497	82.459
0.496	82.385
0.495	82.3176
0.494	82.5907
0.493	81.9773
0.492	82.0389
0.491	81.8232
0.49	81.7005
0.489	82.2666
0.488	82.2578
0.487	82.493
0.486	82.0503
0.485	81.6517
0.484	81.6899
0.483	81.723
0.482	81.6465
0.481	81.9312
0.48	82.1271
0.479	81.9725
0.478	81.7615
0.477	81.5169
0.476	81.4563
0.475	81.3794
0.474	81.5435
0.473	81.7252
0.472	81.9508
0.471	81.6181
0.47	81.2282
0.469	81.3857
0.468	81.2217
0.467	81.1214
0.466	80.9216
0.465	80.9907
0.464	80.9777
0.463	81.48
0.462	81.7956
0.461	81.6282
0.46	81.1011
0.459	80.6464
0.458	80.7592
0.457	80.434
0.456	80.6246
0.455	80.7155
0.454	80.6965
0.453	80.7421
0.452	80.1184
0.451	79.7328
0.45	79.9354
0.449	79.9106
0.448	80.0073
0.447	79.7697
0.446	79.5503
0.445	79.7981
0.444	79.4775
0.443	79.8498
0.442	80.1146
0.441	79.9987
0.44	79.7813
0.439	79.8521
0.438	79.8777
0.437	79.7195
0.436	79.5739
0.435	79.3894
0.434	79.3238
0.433	79.073
0.432	79.1001
0.431	78.7712
0.43	78.6863
0.429	79.0202
0.428	78.5904
0.427	78.5623
0.426	78.3237
0.425	78.3289
0.424	78.5841
0.423	78.0607
0.422	77.9825
0.421	77.9766
0.42	77.6913
0.419	77.9807
0.418	78.2654
0.417	78.1375
0.416	77.3687
0.415	77.2658
0.414	76.9018
0.413	76.7902
0.412	76.9974
0.411	77.1484
0.41	76.6234
0.409	76.0902
0.408	76.0544
0.407	76.0411
0.406	76.0975
0.405	75.7734
0.404	75.5732
0.403	75.0616
0.402	74.7097
0.401	75.0195
0.4	74.7422
