Name: Hornblende Gneiss
Type:  Rocks
Class: Metamorphic 
Subclass: Gneiss 
Particle Size:  0-75 Micrometer
Sample No.:  gneiss6.doc
Owner:  JHU
Wavelength Range:  All
Origin:  Sample No. 465, The Hunt and Salisbury Collection at the U.S. 
Geological Survey, Denver, Co.
Description: Coarse grains of slightly lineated hornblende euhedra with anhedra 
of alkali feldspar make up the bulk of this rock.  There are scattered grains of 
pyrite and possibly a trace of quartz as well.  The modes were 69% hornblende, 
30.4% feldspar and 0.6% opaques.  


Measurement:  Directional (10 Degree) Hemispherical Reflectance
First Column:  X
Second Column:  Y  
X Units:  Wavelength (micrometers)
Y Units:  Reflectance (percent)
First X Value: 14.983
Last X Value:  0.4
Number of X Values: 2868
Additional Information:  None

14.983	1.0465
14.940	1.2802
14.897	1.4117
14.854	1.4458
14.812	1.4188
14.770	1.3792
14.728	1.3619
14.686	1.3799
14.645	1.4280
14.603	1.4848
14.562	1.5289
14.521	1.5504
14.481	1.5530
14.441	1.5490
14.400	1.5523
14.361	1.5762
14.321	1.6255
14.281	1.6944
14.242	1.7735
14.203	1.8545
14.164	1.9303
14.126	1.9968
14.087	2.0532
14.049	2.1020
14.011	2.1444
13.973	2.1797
13.936	2.2069
13.899	2.2265
13.861	2.2374
13.824	2.2379
13.788	2.2289
13.751	2.2133
13.715	2.1948
13.679	2.1766
13.643	2.1619
13.607	2.1517
13.571	2.1439
13.536	2.1347
13.500	2.1216
13.465	2.1046
13.430	2.0842
13.396	2.0620
13.361	2.0390
13.327	2.0146
13.293	1.9871
13.259	1.9563
13.225	1.9258
13.191	1.9019
13.158	1.8926
13.124	1.9047
13.091	1.9405
13.058	1.9968
13.026	2.0672
12.993	2.1434
12.960	2.2194
12.928	2.2921
12.896	2.3615
12.864	2.4278
12.832	2.4918
12.800	2.5531
12.769	2.6121
12.737	2.6706
12.706	2.7321
12.675	2.8020
12.644	2.8842
12.614	2.9803
12.583	3.0893
12.552	3.2081
12.522	3.3339
12.492	3.4644
12.462	3.5994
12.432	3.7391
12.402	3.8838
12.373	4.0320
12.343	4.1815
12.314	4.3283
12.285	4.4687
12.256	4.5992
12.227	4.7171
12.198	4.8199
12.169	4.9049
12.141	4.9705
12.113	5.0162
12.084	5.0416
12.056	5.0477
12.028	5.0359
12.000	5.0068
11.973	4.9618
11.945	4.9014
11.918	4.8280
11.890	4.7441
11.863	4.6539
11.836	4.5618
11.809	4.4711
11.782	4.3854
11.755	4.3058
11.729	4.2331
11.702	4.1663
11.676	4.1052
11.650	4.0496
11.624	3.9996
11.598	3.9565
11.572	3.9210
11.546	3.8940
11.520	3.8743
11.495	3.8589
11.469	3.8440
11.444	3.8262
11.419	3.8042
11.394	3.7782
11.369	3.7512
11.344	3.7256
11.319	3.7024
11.294	3.6787
11.270	3.6510
11.245	3.6150
11.221	3.5688
11.197	3.5148
11.173	3.4577
11.149	3.4038
11.125	3.3583
11.101	3.3235
11.077	3.2977
11.054	3.2771
11.030	3.2572
11.007	3.2351
10.983	3.2100
10.960	3.1835
10.937	3.1589
10.914	3.1392
10.891	3.1264
10.868	3.1217
10.846	3.1250
10.823	3.1366
10.800	3.1563
10.778	3.1838
10.755	3.2183
10.733	3.2581
10.711	3.3019
10.689	3.3476
10.667	3.3948
10.645	3.4424
10.623	3.4904
10.602	3.5383
10.580	3.5844
10.558	3.6278
10.537	3.6671
10.516	3.7024
10.494	3.7339
10.473	3.7628
10.452	3.7898
10.431	3.8153
10.410	3.8393
10.389	3.8620
10.368	3.8840
10.348	3.9063
10.327	3.9300
10.306	3.9551
10.286	3.9804
10.266	4.0046
10.245	4.0249
10.225	4.0396
10.205	4.0472
10.185	4.0472
10.165	4.0394
10.145	4.0237
10.125	4.0015
10.106	3.9733
10.086	3.9401
10.066	3.9034
10.047	3.8636
10.027	3.8213
10.008	3.7753
9.9887	3.7256
9.9695	3.6716
9.9504	3.6138
9.9313	3.5539
9.9123	3.4928
9.8934	3.4322
9.8746	3.3732
9.8558	3.3161
9.8371	3.2631
9.8185	3.2169
9.7999	3.1811
9.7814	3.1594
9.7630	3.1511
9.7447	3.1532
9.7264	3.1598
9.7082	3.1639
9.6900	3.1610
9.6719	3.1506
9.6539	3.1366
9.6360	3.1241
9.6181	3.1160
9.6003	3.1122
9.5825	3.1101
9.5649	3.1049
9.5472	3.0935
9.5297	3.0755
9.5122	3.0547
9.4948	3.0343
9.4774	3.0175
9.4601	3.0061
9.4429	2.9988
9.4257	2.9938
9.4086	2.9891
9.3916	2.9836
9.3746	2.9775
9.3577	2.9711
9.3408	2.9630
9.3240	2.9521
9.3073	2.9358
9.2906	2.9124
9.2740	2.8813
9.2574	2.8453
9.2409	2.8086
9.2245	2.7750
9.2081	2.7471
9.1918	2.7250
9.1755	2.7078
9.1593	2.6924
9.1431	2.6777
9.1270	2.6635
9.1110	2.6509
9.0950	2.6417
9.0791	2.6362
9.0632	2.6346
9.0474	2.6360
9.0316	2.6386
9.0159	2.6419
9.0003	2.6448
8.9847	2.6471
8.9691	2.6500
8.9536	2.6545
8.9382	2.6625
8.9228	2.6755
8.9075	2.6950
8.8922	2.7220
8.8770	2.7561
8.8618	2.7968
8.8467	2.8434
8.8316	2.8955
8.8166	2.9507
8.8016	3.0069
8.7867	3.0611
8.7718	3.1099
8.7570	3.1494
8.7422	3.1750
8.7275	3.1826
8.7129	3.1686
8.6982	3.1317
8.6837	3.0736
8.6692	3.0019
8.6547	2.9259
8.6403	2.8567
8.6259	2.8032
8.6116	2.7700
8.5973	2.7577
8.5830	2.7625
8.5688	2.7786
8.5547	2.8008
8.5406	2.8247
8.5266	2.8484
8.5126	2.8707
8.4986	2.8915
8.4847	2.9121
8.4708	2.9351
8.4570	2.9628
8.4432	2.9976
8.4295	3.0400
8.4158	3.0897
8.4022	3.1442
8.3886	3.2008
8.3750	3.2569
8.3615	3.3121
8.3481	3.3663
8.3347	3.4206
8.3213	3.4753
8.3079	3.5309
8.2946	3.5859
8.2814	3.6370
8.2682	3.6818
8.2550	3.7171
8.2419	3.7410
8.2288	3.7533
8.2158	3.7550
8.2028	3.7490
8.1898	3.7381
8.1769	3.7256
8.1640	3.7130
8.1512	3.7012
8.1384	3.6903
8.1256	3.6801
8.1129	3.6716
8.1002	3.6666
8.0876	3.6673
8.0750	3.6761
8.0624	3.6950
8.0499	3.7249
8.0374	3.7656
8.0250	3.8158
8.0126	3.8741
8.0002	3.9385
7.9879	4.0069
7.9756	4.0773
7.9634	4.1483
7.9512	4.2191
7.9390	4.2902
7.9268	4.3629
7.9147	4.4391
7.9027	4.5211
7.8906	4.6099
7.8786	4.7058
7.8667	4.8076
7.8548	4.9142
7.8429	5.0240
7.8310	5.1368
7.8192	5.2526
7.8075	5.3722
7.7957	5.4958
7.7840	5.6234
7.7723	5.7549
7.7607	5.8889
7.7491	6.0251
7.7375	6.1627
7.7260	6.3014
7.7145	6.4409
7.7031	6.5799
7.6916	6.7180
7.6802	6.8537
7.6689	6.9865
7.6575	7.1170
7.6462	7.2463
7.6350	7.3756
7.6238	7.5066
7.6126	7.6399
7.6014	7.7763
7.5903	7.9151
7.5792	8.0551
7.5681	8.1945
7.5571	8.3324
7.5461	8.4666
7.5351	8.5969
7.5242	8.7238
7.5133	8.8479
7.5024	8.9715
7.4916	9.0959
7.4807	9.2223
7.4700	9.3511
7.4592	9.4826
7.4485	9.6164
7.4378	9.7525
7.4272	9.8904
7.4165	10.030
7.4059	10.170
7.3954	10.311
7.3848	10.452
7.3743	10.594
7.3639	10.738
7.3534	10.885
7.3430	11.035
7.3326	11.189
7.3223	11.347
7.3119	11.507
7.3016	11.668
7.2914	11.830
7.2811	11.993
7.2709	12.156
7.2607	12.319
7.2506	12.479
7.2404	12.637
7.2303	12.788
7.2203	12.933
7.2102	13.070
7.2002	13.200
7.1902	13.326
7.1803	13.448
7.1703	13.571
7.1604	13.694
7.1506	13.819
7.1407	13.944
7.1309	14.066
7.1211	14.184
7.1113	14.294
7.1016	14.396
7.0919	14.491
7.0822	14.579
7.0725	14.664
7.0629	14.749
7.0533	14.838
7.0437	14.932
7.0341	15.032
7.0246	15.136
7.0151	15.241
7.0056	15.344
6.9962	15.443
6.9867	15.539
6.9773	15.631
6.9679	15.722
6.9586	15.814
6.9493	15.909
6.9400	16.003
6.9307	16.095
6.9214	16.181
6.9122	16.259
6.9030	16.325
6.8938	16.384
6.8847	16.440
6.8755	16.500
6.8664	16.568
6.8573	16.649
6.8483	16.740
6.8393	16.833
6.8302	16.921
6.8213	16.998
6.8123	17.062
6.8034	17.118
6.7944	17.174
6.7855	17.235
6.7767	17.306
6.7678	17.382
6.7590	17.460
6.7502	17.533
6.7414	17.597
6.7327	17.654
6.7239	17.710
6.7152	17.770
6.7065	17.840
6.6979	17.918
6.6892	18.000
6.6806	18.077
6.6720	18.144
6.6634	18.201
6.6549	18.250
6.6464	18.298
6.6378	18.351
6.6294	18.409
6.6209	18.468
6.6124	18.520
6.6040	18.557
6.5956	18.578
6.5872	18.587
6.5789	18.590
6.5705	18.601
6.5622	18.625
6.5539	18.663
6.5456	18.711
6.5374	18.756
6.5292	18.791
6.5209	18.810
6.5128	18.817
6.5046	18.820
6.4964	18.833
6.4883	18.863
6.4802	18.910
6.4721	18.965
6.4640	19.011
6.4560	19.031
6.4480	19.015
6.4399	18.965
6.4320	18.893
6.4240	18.817
6.4160	18.751
6.4081	18.700
6.4002	18.661
6.3923	18.622
6.3844	18.567
6.3766	18.489
6.3687	18.387
6.3609	18.269
6.3531	18.148
6.3454	18.034
6.3376	17.934
6.3299	17.848
6.3221	17.772
6.3144	17.698
6.3068	17.621
6.2991	17.540
6.2914	17.455
6.2838	17.371
6.2762	17.292
6.2686	17.222
6.2611	17.163
6.2535	17.112
6.2460	17.070
6.2385	17.033
6.2310	17.001
6.2235	16.973
6.2160	16.952
6.2086	16.940
6.2011	16.943
6.1937	16.966
6.1863	17.014
6.1790	17.088
6.1716	17.187
6.1643	17.304
6.1570	17.431
6.1496	17.560
6.1424	17.683
6.1351	17.799
6.1278	17.909
6.1206	18.017
6.1134	18.128
6.1062	18.242
6.0990	18.355
6.0918	18.458
6.0847	18.545
6.0776	18.614
6.0704	18.667
6.0633	18.716
6.0563	18.771
6.0492	18.841
6.0421	18.927
6.0351	19.021
6.0281	19.111
6.0211	19.186
6.0141	19.238
6.0071	19.268
6.0002	19.280
5.9932	19.284
5.9863	19.287
5.9794	19.292
5.9725	19.299
5.9657	19.306
5.9588	19.314
5.9520	19.328
5.9451	19.356
5.9383	19.402
5.9315	19.471
5.9247	19.558
5.9180	19.656
5.9112	19.755
5.9045	19.852
5.8978	19.949
5.8911	20.053
5.8844	20.171
5.8777	20.310
5.8711	20.463
5.8644	20.620
5.8578	20.767
5.8512	20.894
5.8446	20.997
5.8380	21.083
5.8314	21.164
5.8249	21.252
5.8184	21.357
5.8118	21.475
5.8053	21.598
5.7988	21.713
5.7923	21.808
5.7859	21.882
5.7794	21.940
5.7730	21.995
5.7666	22.058
5.7602	22.137
5.7538	22.229
5.7474	22.327
5.7410	22.419
5.7347	22.500
5.7283	22.567
5.7220	22.624
5.7157	22.678
5.7094	22.737
5.7031	22.802
5.6969	22.876
5.6906	22.953
5.6844	23.030
5.6782	23.102
5.6719	23.167
5.6657	23.225
5.6596	23.280
5.6534	23.339
5.6472	23.406
5.6411	23.489
5.6349	23.587
5.6288	23.698
5.6227	23.818
5.6166	23.939
5.6106	24.057
5.6045	24.169
5.5984	24.277
5.5924	24.385
5.5864	24.498
5.5804	24.619
5.5744	24.751
5.5684	24.894
5.5624	25.043
5.5564	25.196
5.5505	25.351
5.5445	25.504
5.5386	25.654
5.5327	25.802
5.5268	25.948
5.5209	26.093
5.5151	26.237
5.5092	26.380
5.5033	26.522
5.4975	26.661
5.4917	26.798
5.4859	26.930
5.4801	27.059
5.4743	27.185
5.4685	27.310
5.4628	27.431
5.4570	27.546
5.4513	27.649
5.4455	27.733
5.4398	27.795
5.4341	27.831
5.4284	27.845
5.4228	27.837
5.4171	27.814
5.4114	27.776
5.4058	27.725
5.4002	27.660
5.3945	27.584
5.3889	27.501
5.3833	27.416
5.3778	27.337
5.3722	27.272
5.3666	27.228
5.3611	27.213
5.3555	27.230
5.3500	27.279
5.3445	27.359
5.3390	27.462
5.3335	27.581
5.3280	27.708
5.3225	27.837
5.3171	27.965
5.3116	28.091
5.3062	28.219
5.3008	28.349
5.2954	28.486
5.2900	28.632
5.2846	28.788
5.2792	28.955
5.2738	29.135
5.2684	29.326
5.2631	29.529
5.2578	29.742
5.2524	29.961
5.2471	30.183
5.2418	30.404
5.2365	30.618
5.2312	30.819
5.2260	31.003
5.2207	31.168
5.2154	31.312
5.2102	31.437
5.2050	31.545
5.1998	31.637
5.1945	31.715
5.1893	31.781
5.1842	31.838
5.1790	31.888
5.1738	31.931
5.1686	31.972
5.1635	32.014
5.1584	32.059
5.1532	32.112
5.1481	32.174
5.1430	32.246
5.1379	32.329
5.1328	32.421
5.1277	32.520
5.1227	32.624
5.1176	32.731
5.1126	32.838
5.1075	32.941
5.1025	33.040
5.0975	33.134
5.0925	33.223
5.0875	33.310
5.0825	33.398
5.0775	33.489
5.0726	33.587
5.0676	33.691
5.0627	33.802
5.0577	33.916
5.0528	34.029
5.0479	34.137
5.0430	34.237
5.0380	34.329
5.0332	34.415
5.0283	34.500
5.0234	34.589
5.0185	34.687
5.0137	34.797
5.0088	34.918
5.0040	35.048
4.9992	35.187
4.9944	35.333
4.9896	35.488
4.9848	35.654
4.9800	35.835
4.9752	36.033
4.9704	36.244
4.9657	36.464
4.9609	36.685
4.9562	36.901
4.9514	37.106
4.9467	37.301
4.9420	37.487
4.9373	37.670
4.9326	37.854
4.9279	38.044
4.9232	38.245
4.9186	38.458
4.9139	38.683
4.9092	38.916
4.9046	39.154
4.9000	39.391
4.8953	39.622
4.8907	39.844
4.8861	40.056
4.8815	40.258
4.8769	40.452
4.8723	40.640
4.8678	40.822
4.8632	40.998
4.8586	41.167
4.8541	41.329
4.8495	41.485
4.8450	41.637
4.8405	41.786
4.8360	41.933
4.8315	42.078
4.8270	42.221
4.8225	42.361
4.8180	42.500
4.8135	42.641
4.8090	42.788
4.8046	42.942
4.8001	43.104
4.7957	43.276
4.7913	43.454
4.7868	43.637
4.7824	43.824
4.7780	44.011
4.7736	44.200
4.7692	44.390
4.7648	44.580
4.7605	44.771
4.7561	44.961
4.7517	45.150
4.7474	45.337
4.7431	45.520
4.7387	45.699
4.7344	45.873
4.7301	46.043
4.7258	46.211
4.7215	46.378
4.7172	46.544
4.7129	46.712
4.7086	46.879
4.7043	47.048
4.7000	47.218
4.6958	47.389
4.6915	47.560
4.6873	47.733
4.6831	47.905
4.6788	48.078
4.6746	48.252
4.6704	48.429
4.6662	48.609
4.6620	48.794
4.6578	48.984
4.6536	49.177
4.6495	49.374
4.6453	49.570
4.6411	49.766
4.6370	49.958
4.6328	50.146
4.6287	50.329
4.6246	50.508
4.6205	50.686
4.6163	50.864
4.6122	51.044
4.6081	51.227
4.6040	51.411
4.6000	51.594
4.5959	51.772
4.5918	51.945
4.5877	52.111
4.5837	52.271
4.5796	52.426
4.5756	52.579
4.5716	52.731
4.5675	52.879
4.5635	53.025
4.5595	53.163
4.5555	53.294
4.5515	53.415
4.5475	53.526
4.5435	53.625
4.5395	53.714
4.5356	53.792
4.5316	53.863
4.5276	53.927
4.5237	53.987
4.5197	54.044
4.5158	54.098
4.5119	54.150
4.5080	54.198
4.5040	54.243
4.5001	54.286
4.4962	54.331
4.4923	54.379
4.4884	54.435
4.4846	54.498
4.4807	54.570
4.4768	54.649
4.4730	54.736
4.4691	54.830
4.4652	54.932
4.4614	55.042
4.4576	55.161
4.4537	55.287
4.4499	55.417
4.4461	55.548
4.4423	55.678
4.4385	55.803
4.4347	55.924
4.4309	56.042
4.4271	56.157
4.4233	56.270
4.4196	56.382
4.4158	56.496
4.4120	56.611
4.4083	56.726
4.4045	56.841
4.4008	56.953
4.3971	57.062
4.3934	57.165
4.3896	57.262
4.3859	57.355
4.3822	57.444
4.3785	57.532
4.3748	57.618
4.3711	57.703
4.3674	57.789
4.3638	57.872
4.3601	57.952
4.3564	58.027
4.3528	58.097
4.3491	58.162
4.3455	58.223
4.3418	58.283
4.3382	58.344
4.3346	58.406
4.3310	58.469
4.3273	58.532
4.3237	58.591
4.3201	58.647
4.3165	58.699
4.3129	58.746
4.3094	58.791
4.3058	58.834
4.3022	58.877
4.2986	58.922
4.2951	58.969
4.2915	59.018
4.2880	59.068
4.2844	59.118
4.2809	59.167
4.2774	59.214
4.2738	59.262
4.2703	59.310
4.2668	59.360
4.2633	59.412
4.2598	59.464
4.2563	59.515
4.2528	59.563
4.2493	59.607
4.2458	59.648
4.2424	59.686
4.2389	59.721
4.2354	59.756
4.2320	59.792
4.2285	59.829
4.2251	59.867
4.2216	59.907
4.2182	59.947
4.2148	59.987
4.2113	60.026
4.2079	60.062
4.2045	60.098
4.2011	60.133
4.1977	60.169
4.1943	60.207
4.1909	60.244
4.1875	60.282
4.1841	60.316
4.1808	60.349
4.1774	60.381
4.1740	60.413
4.1707	60.447
4.1673	60.485
4.1640	60.523
4.1606	60.560
4.1573	60.596
4.1540	60.631
4.1506	60.665
4.1473	60.700
4.1440	60.738
4.1407	60.777
4.1374	60.816
4.1341	60.853
4.1308	60.886
4.1275	60.917
4.1242	60.945
4.1209	60.974
4.1177	61.003
4.1144	61.034
4.1111	61.065
4.1079	61.096
4.1046	61.126
4.1014	61.155
4.0981	61.182
4.0949	61.208
4.0917	61.233
4.0884	61.256
4.0852	61.279
4.0820	61.301
4.0788	61.323
4.0756	61.346
4.0724	61.370
4.0692	61.395
4.0660	61.420
4.0628	61.444
4.0596	61.466
4.0565	61.485
4.0533	61.501
4.0501	61.514
4.0470	61.524
4.0438	61.533
4.0406	61.543
4.0375	61.555
4.0344	61.570
4.0312	61.588
4.0281	61.605
4.0250	61.619
4.0218	61.631
4.0187	61.638
4.0156	61.642
4.0125	61.644
4.0094	61.642
4.0063	61.639
4.0032	61.632
4.0001	61.620
3.9970	61.606
3.9940	61.590
3.9909	61.574
3.9878	61.560
3.9847	61.549
3.9817	61.541
3.9786	61.537
3.9756	61.536
3.9725	61.541
3.9695	61.553
3.9665	61.572
3.9634	61.598
3.9604	61.631
3.9574	61.667
3.9544	61.704
3.9513	61.738
3.9483	61.769
3.9453	61.798
3.9423	61.826
3.9393	61.854
3.9363	61.882
3.9333	61.909
3.9304	61.935
3.9274	61.959
3.9244	61.981
3.9214	62.002
3.9185	62.025
3.9155	62.051
3.9126	62.079
3.9096	62.109
3.9067	62.138
3.9037	62.166
3.9008	62.188
3.8979	62.207
3.8949	62.222
3.8920	62.233
3.8891	62.243
3.8862	62.251
3.8833	62.258
3.8804	62.262
3.8775	62.264
3.8746	62.265
3.8717	62.265
3.8688	62.267
3.8659	62.273
3.8630	62.283
3.8601	62.296
3.8573	62.310
3.8544	62.323
3.8515	62.335
3.8487	62.346
3.8458	62.356
3.8430	62.367
3.8401	62.380
3.8373	62.394
3.8344	62.408
3.8316	62.421
3.8288	62.429
3.8259	62.433
3.8231	62.432
3.8203	62.427
3.8175	62.419
3.8147	62.411
3.8119	62.405
3.8091	62.401
3.8063	62.401
3.8035	62.403
3.8007	62.407
3.7979	62.412
3.7951	62.418
3.7924	62.424
3.7896	62.431
3.7868	62.435
3.7841	62.437
3.7813	62.436
3.7785	62.434
3.7758	62.430
3.7730	62.426
3.7703	62.423
3.7676	62.419
3.7648	62.415
3.7621	62.409
3.7594	62.401
3.7566	62.392
3.7539	62.383
3.7512	62.374
3.7485	62.367
3.7458	62.363
3.7431	62.359
3.7404	62.354
3.7377	62.349
3.7350	62.339
3.7323	62.327
3.7296	62.311
3.7269	62.294
3.7242	62.277
3.7216	62.260
3.7189	62.244
3.7162	62.229
3.7136	62.213
3.7109	62.198
3.7083	62.184
3.7056	62.172
3.7030	62.162
3.7003	62.153
3.6977	62.147
3.6950	62.140
3.6924	62.131
3.6898	62.119
3.6872	62.103
3.6845	62.083
3.6819	62.060
3.6793	62.037
3.6767	62.014
3.6741	61.993
3.6715	61.973
3.6689	61.952
3.6663	61.931
3.6637	61.911
3.6611	61.891
3.6585	61.874
3.6560	61.858
3.6534	61.842
3.6508	61.824
3.6482	61.804
3.6457	61.780
3.6431	61.755
3.6406	61.730
3.6380	61.706
3.6355	61.683
3.6329	61.660
3.6304	61.635
3.6278	61.607
3.6253	61.576
3.6227	61.544
3.6202	61.510
3.6177	61.476
3.6152	61.443
3.6127	61.411
3.6101	61.382
3.6076	61.356
3.6051	61.332
3.6026	61.310
3.6001	61.287
3.5976	61.261
3.5951	61.231
3.5926	61.194
3.5901	61.153
3.5876	61.108
3.5852	61.063
3.5827	61.022
3.5802	60.985
3.5777	60.952
3.5753	60.923
3.5728	60.894
3.5704	60.864
3.5679	60.830
3.5654	60.790
3.5630	60.746
3.5605	60.698
3.5581	60.647
3.5557	60.593
3.5532	60.538
3.5508	60.482
3.5484	60.426
3.5459	60.370
3.5435	60.316
3.5411	60.263
3.5387	60.212
3.5363	60.160
3.5338	60.106
3.5314	60.046
3.5290	59.977
3.5266	59.899
3.5242	59.814
3.5218	59.726
3.5195	59.637
3.5171	59.551
3.5147	59.467
3.5123	59.382
3.5099	59.294
3.5075	59.204
3.5052	59.116
3.5028	59.035
3.5004	58.969
3.4981	58.922
3.4957	58.893
3.4934	58.878
3.4910	58.868
3.4887	58.857
3.4863	58.841
3.4840	58.817
3.4816	58.789
3.4793	58.758
3.4770	58.726
3.4746	58.691
3.4723	58.653
3.4700	58.608
3.4677	58.556
3.4653	58.495
3.4630	58.429
3.4607	58.357
3.4584	58.280
3.4561	58.200
3.4538	58.116
3.4515	58.032
3.4492	57.949
3.4469	57.872
3.4446	57.803
3.4423	57.743
3.4400	57.690
3.4378	57.641
3.4355	57.593
3.4332	57.539
3.4309	57.478
3.4287	57.405
3.4264	57.318
3.4241	57.217
3.4219	57.105
3.4196	56.987
3.4174	56.874
3.4151	56.774
3.4129	56.695
3.4106	56.640
3.4084	56.603
3.4061	56.578
3.4039	56.553
3.4017	56.521
3.3994	56.477
3.3972	56.423
3.3950	56.361
3.3928	56.294
3.3906	56.225
3.3883	56.154
3.3861	56.081
3.3839	56.006
3.3817	55.929
3.3795	55.851
3.3773	55.775
3.3751	55.703
3.3729	55.636
3.3707	55.573
3.3685	55.513
3.3663	55.455
3.3641	55.399
3.3620	55.344
3.3598	55.291
3.3576	55.239
3.3554	55.187
3.3533	55.133
3.3511	55.078
3.3489	55.020
3.3468	54.963
3.3446	54.910
3.3425	54.862
3.3403	54.824
3.3382	54.793
3.3360	54.767
3.3339	54.744
3.3317	54.721
3.3296	54.694
3.3274	54.663
3.3253	54.628
3.3232	54.588
3.3210	54.543
3.3189	54.493
3.3168	54.441
3.3147	54.388
3.3126	54.338
3.3104	54.292
3.3083	54.251
3.3062	54.211
3.3041	54.170
3.3020	54.125
3.2999	54.074
3.2978	54.019
3.2957	53.961
3.2936	53.904
3.2915	53.849
3.2894	53.795
3.2874	53.743
3.2853	53.690
3.2832	53.637
3.2811	53.583
3.2790	53.527
3.2770	53.467
3.2749	53.402
3.2728	53.331
3.2708	53.255
3.2687	53.176
3.2666	53.098
3.2646	53.021
3.2625	52.947
3.2605	52.873
3.2584	52.801
3.2564	52.729
3.2543	52.657
3.2523	52.584
3.2503	52.512
3.2482	52.436
3.2462	52.355
3.2442	52.270
3.2421	52.179
3.2401	52.085
3.2381	51.992
3.2361	51.900
3.2340	51.810
3.2320	51.722
3.2300	51.633
3.2280	51.545
3.2260	51.455
3.2240	51.363
3.2220	51.269
3.2200	51.172
3.2180	51.073
3.2160	50.969
3.2140	50.862
3.2120	50.752
3.2100	50.640
3.2080	50.527
3.2060	50.416
3.2040	50.309
3.2021	50.208
3.2001	50.112
3.1981	50.019
3.1961	49.926
3.1942	49.830
3.1922	49.728
3.1902	49.620
3.1883	49.510
3.1863	49.401
3.1844	49.298
3.1824	49.205
3.1805	49.121
3.1785	49.046
3.1766	48.973
3.1746	48.898
3.1727	48.819
3.1707	48.733
3.1688	48.643
3.1669	48.552
3.1649	48.463
3.1630	48.378
3.1611	48.299
3.1591	48.223
3.1572	48.150
3.1553	48.078
3.1534	48.007
3.1515	47.936
3.1495	47.865
3.1476	47.795
3.1457	47.724
3.1438	47.650
3.1419	47.572
3.1400	47.490
3.1381	47.408
3.1362	47.329
3.1343	47.255
3.1324	47.187
3.1305	47.126
3.1286	47.068
3.1268	47.011
3.1249	46.948
3.1230	46.879
3.1211	46.801
3.1192	46.716
3.1174	46.626
3.1155	46.534
3.1136	46.445
3.1117	46.360
3.1099	46.280
3.1080	46.205
3.1061	46.130
3.1043	46.054
3.1024	45.975
3.1006	45.892
3.0987	45.808
3.0969	45.724
3.0950	45.644
3.0932	45.568
3.0913	45.494
3.0895	45.421
3.0876	45.347
3.0858	45.270
3.0840	45.190
3.0821	45.106
3.0803	45.020
3.0785	44.931
3.0766	44.840
3.0748	44.751
3.0730	44.665
3.0712	44.586
3.0694	44.514
3.0675	44.446
3.0657	44.378
3.0639	44.305
3.0621	44.224
3.0603	44.138
3.0585	44.049
3.0567	43.964
3.0549	43.885
3.0531	43.811
3.0513	43.737
3.0495	43.657
3.0477	43.565
3.0459	43.461
3.0441	43.350
3.0423	43.239
3.0406	43.137
3.0388	43.045
3.0370	42.964
3.0352	42.889
3.0334	42.813
3.0317	42.729
3.0299	42.635
3.0281	42.529
3.0264	42.417
3.0246	42.303
3.0228	42.191
3.0211	42.082
3.0193	41.974
3.0176	41.864
3.0158	41.750
3.0140	41.629
3.0123	41.503
3.0105	41.374
3.0088	41.243
3.0070	41.113
3.0053	40.986
3.0036	40.862
3.0018	40.742
3.0001	40.625
2.9984	40.510
2.9966	40.395
2.9949	40.277
2.9932	40.155
2.9914	40.030
2.9897	39.903
2.9880	39.778
2.9863	39.657
2.9845	39.540
2.9828	39.426
2.9811	39.313
2.9794	39.198
2.9777	39.082
2.9760	38.963
2.9743	38.842
2.9726	38.721
2.9709	38.603
2.9692	38.491
2.9675	38.385
2.9658	38.288
2.9641	38.200
2.9624	38.124
2.9607	38.058
2.9590	38.003
2.9573	37.957
2.9556	37.919
2.9539	37.886
2.9523	37.853
2.9506	37.819
2.9489	37.783
2.9472	37.744
2.9455	37.706
2.9439	37.672
2.9422	37.646
2.9405	37.631
2.9389	37.629
2.9372	37.641
2.9355	37.667
2.9339	37.705
2.9322	37.751
2.9306	37.803
2.9289	37.855
2.9272	37.907
2.9256	37.959
2.9239	38.015
2.9223	38.079
2.9207	38.153
2.9190	38.233
2.9174	38.315
2.9157	38.394
2.9141	38.465
2.9124	38.529
2.9108	38.591
2.9092	38.653
2.9075	38.720
2.9059	38.791
2.9043	38.864
2.9027	38.934
2.9010	38.998
2.8994	39.052
2.8978	39.096
2.8962	39.131
2.8946	39.158
2.8929	39.179
2.8913	39.193
2.8897	39.201
2.8881	39.203
2.8865	39.199
2.8849	39.185
2.8833	39.159
2.8817	39.119
2.8801	39.064
2.8785	38.996
2.8769	38.920
2.8753	38.842
2.8737	38.770
2.8721	38.709
2.8705	38.660
2.8689	38.622
2.8673	38.595
2.8658	38.575
2.8642	38.563
2.8626	38.559
2.8610	38.563
2.8594	38.574
2.8579	38.586
2.8563	38.597
2.8547	38.600
2.8531	38.597
2.8516	38.586
2.8500	38.570
2.8484	38.550
2.8469	38.525
2.8453	38.492
2.8437	38.447
2.8422	38.389
2.8406	38.322
2.8391	38.248
2.8375	38.173
2.8360	38.102
2.8344	38.037
2.8329	37.979
2.8313	37.928
2.8298	37.885
2.8282	37.850
2.8267	37.824
2.8252	37.809
2.8236	37.805
2.8221	37.811
2.8205	37.828
2.8190	37.855
2.8175	37.892
2.8159	37.939
2.8144	37.994
2.8129	38.056
2.8114	38.122
2.8098	38.190
2.8083	38.262
2.8068	38.341
2.8053	38.432
2.8038	38.539
2.8022	38.662
2.8007	38.797
2.7992	38.935
2.7977	39.063
2.7962	39.168
2.7947	39.235
2.7932	39.251
2.7917	39.194
2.7902	39.035
2.7887	38.737
2.7872	38.259
2.7857	37.573
2.7842	36.678
2.7827	35.610
2.7812	34.446
2.7797	33.280
2.7782	32.198
2.7767	31.249
2.7752	30.429
2.7738	29.689
2.7723	28.958
2.7708	28.177
2.7693	27.323
2.7678	26.420
2.7664	25.521
2.7649	24.687
2.7634	23.962
2.7619	23.367
2.7605	22.894
2.7590	22.531
2.7575	22.263
2.7561	22.080
2.7546	21.972
2.7531	21.919
2.7517	21.891
2.7502	21.859
2.7488	21.809
2.7473	21.750
2.7458	21.705
2.7444	21.697
2.7429	21.724
2.7415	21.755
2.7400	21.752
2.7386	21.701
2.7371	21.639
2.7357	21.646
2.7343	21.804
2.7328	22.146
2.7314	22.624
2.7299	23.117
2.7285	23.495
2.7271	23.700
2.7256	23.787
2.7242	23.904
2.7228	24.228
2.7213	24.870
2.7199	25.822
2.7185	26.950
2.7171	28.059
2.7156	28.976
2.7142	29.612
2.7128	29.978
2.7114	30.167
2.7100	30.302
2.7085	30.494
2.7071	30.813
2.7057	31.286
2.7043	31.909
2.7029	32.659
2.7015	33.511
2.7001	34.452
2.6987	35.488
2.6973	36.641
2.6959	37.947
2.6945	39.438
2.6931	41.130
2.6917	43.012
2.6903	45.046
2.6889	47.174
2.6875	49.330
2.6861	51.449
2.6847	53.479
2.6833	55.377
2.6819	57.112
2.6805	58.661
2.6791	60.004
2.6778	61.125
2.6764	62.015
2.6750	62.676
2.6736	63.124
2.6722	63.393
2.6709	63.533
2.6695	63.603
2.6681	63.657
2.6667	63.729
2.6654	63.839
2.6640	63.980
2.6626	64.133
2.6613	64.273
2.6599	64.386
2.6585	64.465
2.6572	64.517
2.6558	64.552
2.6545	64.584
2.6531	64.625
2.6517	64.676
2.6504	64.734
2.6490	64.795
2.6477	64.851
2.6463	64.903
2.6450	64.952
2.6436	65.003
2.6423	65.059
2.6409	65.116
2.6396	65.166
2.6382	65.196
2.6369	65.193
2.6356	65.155
2.6342	65.087
2.6329	65.007
2.6315	64.936
2.6302	64.895
2.6289	64.893
2.6275	64.923
2.6262	64.965
2.6249	65.001
2.6236	65.011
2.6222	64.995
2.6209	64.965
2.6196	64.946
2.6183	64.954
2.6169	64.997
2.6156	65.066
2.6143	65.139
2.6130	65.190
2.6117	65.198
2.6103	65.165
2.6090	65.109
2.6077	65.059
2.6064	65.043
2.6051	65.075
2.6038	65.145
2.6025	65.218
2.6012	65.254
2.5999	65.226
2.5986	65.138
2.5973	65.021
2.5960	64.924
2.5947	64.891
2.5934	64.939
2.5921	65.051
2.5908	65.181
2.5895	65.286
2.5882	65.337
2.5869	65.333
2.5856	65.296
2.5843	65.256
2.5830	65.237
2.5817	65.243
2.5805	65.265
2.5792	65.288
2.5779	65.301
2.5766	65.302
2.5753	65.297
2.5741	65.295
2.5728	65.304
2.5715	65.319
2.5702	65.334
2.5690	65.336
2.5677	65.319
2.5664	65.286
2.5651	65.246
2.5639	65.216
2.5626	65.209
2.5613	65.231
2.5601	65.277
2.5588	65.333
2.5575	65.383
2.5563	65.418
2.5550	65.436
2.5538	65.442
2.5525	65.443
2.5513	65.445
2.5500	65.448
2.5487	65.448
2.5475	65.442
2.5462	65.431
2.5450	65.417
2.5437	65.406
2.5425	65.402
2.5413	65.405
2.5400	65.413
2.5388	65.419
2.5375	65.419
2.5363	65.411
2.5350	65.398
2.5338	65.385
2.5326	65.376
2.5313	65.373
2.5301	65.375
2.5289	65.378
2.5276	65.378
2.5264	65.370
2.5252	65.354
2.5239	65.330
2.5227	65.302
2.5215	65.275
2.5202	65.250
2.5190	65.231
2.5178	65.217
2.5166	65.208
2.5154	65.202
2.5141	65.198
2.5129	65.194
2.5117	65.187
2.5105	65.176
2.5093	65.162
2.5081	65.145
2.5068	65.130
2.5056	65.117
2.5044	65.111
2.5032	65.110
2.5020	65.113
2.5008	65.115
2.4996	65.115
2.4984	65.111
2.4972	65.106
2.4960	65.105
2.4948	65.109
2.4936	65.121
2.4924	65.135
2.4912	65.147
2.4900	65.152
2.4888	65.148
2.4876	65.137
2.4864	65.126
2.4852	65.120
2.4840	65.123
2.4828	65.135
2.4816	65.153
2.4805	65.173
2.4793	65.189
2.4781	65.199
2.4769	65.202
2.4757	65.199
2.4745	65.191
2.4734	65.179
2.4722	65.167
2.4710	65.156
2.4698	65.150
2.4686	65.152
2.4675	65.162
2.4663	65.181
2.4651	65.205
2.4640	65.232
2.4628	65.258
2.4616	65.279
2.4604	65.294
2.4593	65.304
2.4581	65.309
2.4569	65.310
2.4558	65.308
2.4546	65.305
2.4535	65.304
2.4523	65.303
2.4511	65.303
2.4500	65.304
2.4488	65.304
2.4477	65.302
2.4465	65.298
2.4454	65.292
2.4442	65.284
2.4431	65.275
2.4419	65.265
2.4408	65.253
2.4396	65.240
2.4385	65.224
2.4373	65.204
2.4362	65.177
2.4350	65.143
2.4339	65.101
2.4327	65.052
2.4316	64.996
2.4305	64.933
2.4293	64.864
2.4282	64.791
2.4270	64.716
2.4259	64.642
2.4248	64.568
2.4236	64.495
2.4225	64.419
2.4214	64.339
2.4202	64.253
2.4191	64.164
2.4180	64.076
2.4169	63.988
2.4157	63.901
2.4146	63.810
2.4135	63.711
2.4124	63.600
2.4112	63.477
2.4101	63.347
2.4090	63.214
2.4079	63.082
2.4068	62.953
2.4056	62.827
2.4045	62.705
2.4034	62.585
2.4023	62.471
2.4012	62.367
2.4001	62.274
2.3990	62.194
2.3979	62.125
2.3967	62.066
2.3956	62.012
2.3945	61.962
2.3934	61.917
2.3923	61.882
2.3912	61.864
2.3901	61.870
2.3890	61.905
2.3879	61.969
2.3868	62.057
2.3857	62.161
2.3846	62.273
2.3835	62.386
2.3824	62.497
2.3813	62.609
2.3802	62.723
2.3791	62.842
2.3781	62.966
2.3770	63.091
2.3759	63.213
2.3748	63.329
2.3737	63.436
2.3726	63.532
2.3715	63.613
2.3704	63.679
2.3694	63.726
2.3683	63.753
2.3672	63.762
2.3661	63.758
2.3650	63.744
2.3640	63.727
2.3629	63.707
2.3618	63.684
2.3607	63.655
2.3597	63.617
2.3586	63.565
2.3575	63.497
2.3564	63.411
2.3554	63.308
2.3543	63.190
2.3532	63.060
2.3522	62.922
2.3511	62.780
2.3500	62.639
2.3490	62.501
2.3479	62.368
2.3468	62.239
2.3458	62.118
2.3447	62.003
2.3436	61.893
2.3426	61.782
2.3415	61.667
2.3405	61.545
2.3394	61.416
2.3384	61.284
2.3373	61.158
2.3363	61.043
2.3352	60.941
2.3342	60.853
2.3331	60.776
2.3321	60.706
2.3310	60.642
2.3300	60.585
2.3289	60.537
2.3279	60.499
2.3268	60.473
2.3258	60.459
2.3247	60.461
2.3237	60.476
2.3226	60.503
2.3216	60.534
2.3206	60.564
2.3195	60.589
2.3185	60.608
2.3175	60.625
2.3164	60.648
2.3154	60.685
2.3144	60.740
2.3133	60.812
2.3123	60.897
2.3113	60.991
2.3102	61.088
2.3092	61.186
2.3082	61.285
2.3071	61.382
2.3061	61.477
2.3051	61.569
2.3041	61.660
2.3030	61.749
2.3020	61.841
2.3010	61.941
2.3000	62.055
2.2990	62.189
2.2979	62.347
2.2969	62.531
2.2959	62.737
2.2949	62.957
2.2939	63.182
2.2929	63.405
2.2918	63.621
2.2908	63.828
2.2898	64.027
2.2888	64.218
2.2878	64.402
2.2868	64.577
2.2858	64.746
2.2848	64.908
2.2838	65.067
2.2828	65.225
2.2818	65.383
2.2808	65.539
2.2798	65.690
2.2787	65.831
2.2777	65.957
2.2767	66.067
2.2757	66.158
2.2747	66.233
2.2738	66.294
2.2728	66.343
2.2718	66.382
2.2708	66.415
2.2698	66.441
2.2688	66.460
2.2678	66.471
2.2668	66.473
2.2658	66.464
2.2648	66.444
2.2638	66.416
2.2628	66.384
2.2618	66.353
2.2609	66.326
2.2599	66.309
2.2589	66.300
2.2579	66.297
2.2569	66.294
2.2559	66.289
2.2550	66.283
2.2540	66.280
2.2530	66.287
2.2520	66.310
2.2510	66.352
2.2501	66.411
2.2491	66.481
2.2481	66.555
2.2471	66.628
2.2462	66.697
2.2452	66.760
2.2442	66.818
2.2433	66.873
2.2423	66.926
2.2413	66.976
2.2403	67.023
2.2394	67.071
2.2384	67.118
2.2374	67.164
2.2365	67.211
2.2355	67.255
2.2345	67.294
2.2336	67.326
2.2326	67.349
2.2317	67.361
2.2307	67.361
2.2297	67.352
2.2288	67.334
2.2278	67.312
2.2269	67.288
2.2259	67.266
2.2250	67.247
2.2240	67.232
2.2231	67.223
2.2221	67.221
2.2211	67.228
2.2202	67.244
2.2192	67.268
2.2183	67.296
2.2173	67.324
2.2164	67.346
2.2155	67.357
2.2145	67.357
2.2136	67.349
2.2126	67.338
2.2117	67.329
2.2107	67.325
2.2098	67.325
2.2088	67.326
2.2079	67.323
2.2070	67.311
2.2060	67.288
2.2051	67.257
2.2041	67.224
2.2032	67.194
2.2023	67.175
2.2013	67.172
2.2004	67.184
2.1995	67.208
2.1985	67.236
2.1976	67.259
2.1967	67.272
2.1957	67.272
2.1948	67.263
2.1939	67.249
2.1930	67.235
2.1920	67.224
2.1911	67.221
2.1902	67.224
2.1893	67.232
2.1883	67.247
2.1874	67.265
2.1865	67.283
2.1856	67.297
2.1846	67.300
2.1837	67.291
2.1828	67.268
2.1819	67.237
2.1810	67.206
2.1800	67.185
2.1791	67.184
2.1782	67.204
2.1773	67.246
2.1764	67.299
2.1755	67.350
2.1746	67.387
2.1736	67.400
2.1727	67.386
2.1718	67.352
2.1709	67.309
2.1700	67.269
2.1691	67.241
2.1682	67.223
2.1673	67.211
2.1664	67.197
2.1655	67.176
2.1646	67.150
2.1637	67.129
2.1628	67.119
2.1619	67.126
2.1610	67.147
2.1601	67.171
2.1592	67.188
2.1583	67.191
2.1574	67.182
2.1565	67.165
2.1556	67.148
2.1547	67.137
2.1538	67.133
2.1529	67.133
2.1520	67.133
2.1511	67.133
2.1502	67.134
2.1493	67.137
2.1484	67.142
2.1475	67.146
2.1466	67.144
2.1458	67.131
2.1449	67.108
2.1440	67.080
2.1431	67.055
2.1422	67.042
2.1413	67.041
2.1404	67.046
2.1396	67.045
2.1387	67.029
2.1378	66.997
2.1369	66.954
2.1360	66.914
2.1352	66.888
2.1343	66.882
2.1334	66.889
2.1325	66.901
2.1316	66.907
2.1308	66.905
2.1299	66.897
2.1290	66.891
2.1281	66.894
2.1273	66.906
2.1264	66.923
2.1255	66.935
2.1247	66.935
2.1238	66.922
2.1229	66.900
2.1220	66.878
2.1212	66.865
2.1203	66.867
2.1194	66.883
2.1186	66.911
2.1177	66.944
2.1168	66.974
2.1160	66.999
2.1151	67.018
2.1143	67.032
2.1134	67.042
2.1125	67.049
2.1117	67.054
2.1108	67.057
2.1100	67.054
2.1091	67.045
2.1082	67.025
2.1074	66.993
2.1065	66.949
2.1057	66.900
2.1048	66.858
2.1040	66.838
2.1031	66.848
2.1023	66.888
2.1014	66.949
2.1005	67.012
2.0997	67.060
2.0988	67.081
2.0980	67.076
2.0971	67.055
2.0963	67.033
2.0955	67.020
2.0946	67.019
2.0938	67.030
2.0929	67.044
2.0921	67.054
2.0912	67.055
2.0904	67.049
2.0895	67.042
2.0887	67.041
2.0879	67.049
2.0870	67.071
2.0862	67.096
2.0853	67.112
2.0845	67.125
2.0837	67.089
2.0828	67.058
2.0820	67.034
2.0812	66.890
2.0803	67.039
2.0795	66.955
2.0760	66.955
2.0720	66.955
2.0680	66.711
2.0640	66.711
2.0600	66.656
2.0560	66.900
2.0520	66.656
2.0480	66.775
2.0440	66.720
2.0400	66.571
2.0360	66.220
2.0320	65.951
2.0280	65.698
2.0240	65.844
2.0200	65.764
2.0160	65.617
2.0120	65.551
2.0080	65.631
2.0040	65.432
2.0000	65.101
1.9960	64.944
1.9920	64.997
1.9880	64.985
1.9840	64.985
1.9800	64.881
1.9760	64.449
1.9720	64.397
1.9680	64.346
1.9640	63.968
1.9600	63.937
1.9560	63.896
1.9520	63.753
1.9480	63.611
1.9440	63.519
1.9400	63.293
1.9360	63.311
1.9320	63.137
1.9280	63.025
1.9240	62.898
1.9200	62.991
1.9160	62.940
1.9120	62.661
1.9080	62.474
1.9040	62.395
1.9000	62.557
1.8960	62.611
1.8920	62.547
1.8880	62.680
1.8840	62.394
1.8800	62.498
1.8760	62.626
1.8720	62.672
1.8680	62.217
1.8640	61.975
1.8600	62.084
1.8560	61.862
1.8520	61.947
1.8480	62.004
1.8440	62.212
1.8400	62.338
1.8360	62.395
1.8320	62.472
1.8280	62.156
1.8240	61.768
1.8200	61.253
1.8160	61.206
1.8120	60.974
1.8080	60.927
1.8040	61.068
1.8000	60.799
1.7960	60.655
1.7920	60.659
1.7880	60.257
1.7840	60.168
1.7800	60.261
1.7760	60.168
1.7720	60.075
1.7680	60.020
1.7640	59.930
1.7600	59.672
1.7560	59.626
1.7520	58.954
1.7480	58.420
1.7440	58.554
1.7400	58.644
1.7360	59.051
1.7320	59.189
1.7280	59.190
1.7240	59.190
1.7200	59.008
1.7160	58.421
1.7120	58.466
1.7080	58.296
1.7040	58.421
1.7000	57.672
1.6960	57.447
1.6920	57.405
1.6880	57.403
1.6840	56.921
1.6800	57.170
1.6760	56.945
1.6720	56.686
1.6680	56.421
1.6640	56.375
1.6600	56.418
1.6560	56.064
1.6520	56.029
1.6480	55.979
1.6440	56.185
1.6400	55.655
1.6360	55.476
1.6320	55.334
1.6280	55.429
1.6240	55.345
1.6200	55.261
1.6160	54.292
1.6120	54.073
1.6080	54.141
1.6040	54.078
1.6000	54.119
1.5960	53.996
1.5920	53.670
1.5880	53.270
1.5840	53.221
1.5800	53.384
1.5760	53.051
1.5720	52.970
1.5680	52.541
1.5640	51.998
1.5600	51.804
1.5560	51.816
1.5520	51.882
1.5480	51.770
1.5440	51.376
1.5400	50.918
1.5360	50.816
1.5320	50.841
1.5280	50.700
1.5240	50.407
1.5200	50.167
1.5160	50.092
1.5120	50.205
1.5080	50.455
1.5040	50.233
1.5000	50.070
1.4960	49.326
1.4920	48.525
1.4880	48.380
1.4840	48.218
1.4800	47.897
1.4760	47.648
1.4720	47.524
1.4680	47.680
1.4640	47.643
1.4600	47.231
1.4560	47.106
1.4520	46.822
1.4480	46.629
1.4440	46.499
1.4400	46.231
1.4360	46.210
1.4320	46.098
1.4280	45.759
1.4240	45.567
1.4200	45.174
1.4160	44.905
1.4120	44.530
1.4080	44.300
1.4040	43.737
1.4000	43.198
1.3960	42.774
1.3920	42.556
1.3880	42.188
1.3840	41.886
1.3800	41.984
1.3760	42.232
1.3720	41.985
1.3680	41.860
1.3640	41.623
1.3600	41.627
1.3560	41.383
1.3520	41.202
1.3480	40.865
1.3440	40.807
1.3400	40.484
1.3360	40.276
1.3320	40.003
1.3280	39.703
1.3240	39.473
1.3200	39.492
1.3160	39.026
1.3120	38.731
1.3080	38.463
1.3040	38.141
1.3000	38.052
1.2960	37.695
1.2920	37.507
1.2880	37.202
1.2840	37.064
1.2800	36.887
1.2760	36.681
1.2720	36.408
1.2680	36.213
1.2640	35.816
1.2600	35.816
1.2560	35.583
1.2520	35.218
1.2480	35.193
1.2440	34.864
1.2400	34.510
1.2360	34.444
1.2320	34.377
1.2280	34.291
1.2240	33.833
1.2200	33.537
1.2160	33.311
1.2120	32.970
1.2080	32.699
1.2040	32.699
1.2000	32.609
1.1960	32.505
1.1920	32.169
1.1880	31.896
1.1840	31.695
1.1800	31.494
1.1760	31.341
1.1720	31.121
1.1680	30.853
1.1640	30.684
1.1600	30.466
1.1560	30.388
1.1520	30.026
1.1480	30.026
1.1440	29.774
1.1400	29.794
1.1360	29.562
1.1320	29.142
1.1280	29.071
1.1240	28.947
1.1200	28.593
1.1160	28.521
1.1120	28.450
1.1080	28.249
1.1040	28.176
1.1000	28.113
1.0960	28.231
1.0920	28.031
1.0880	27.903
1.0840	27.921
1.0800	27.452
1.0760	27.233
1.0720	27.082
1.0680	27.115
1.0640	26.962
1.0600	26.760
1.0560	26.626
1.0520	26.503
1.0480	26.156
1.0440	26.276
1.0400	26.178
1.0360	26.260
1.0320	26.170
1.0280	25.923
1.0240	25.774
1.0200	25.503
1.0160	25.519
1.0120	25.318
1.0080	25.290
1.0040	25.231
1.0000	25.063
0.99600	25.144
0.99200	24.824
0.98800	24.791
0.98400	24.738
0.98000	24.461
0.97600	24.423
0.97200	24.190
0.96800	23.986
0.96400	24.045
0.96000	23.896
0.95600	23.820
0.95200	23.506
0.94800	23.326
0.94400	23.326
0.94000	23.208
0.93600	23.091
0.93200	22.925
0.92800	22.843
0.92400	22.847
0.92000	22.664
0.91600	22.642
0.91200	22.450
0.90800	22.387
0.90400	22.360
0.90000	22.297
0.89600	22.284
0.89200	22.105
0.88800	22.118
0.88400	21.965
0.88000	21.956
0.87600	21.995
0.87200	21.996
0.86800	21.879
0.86400	21.918
0.86000	21.927
0.85600	21.711
0.85200	21.724
0.84800	21.824
0.84400	21.671
0.84000	21.671
0.83600	21.736
0.83200	21.633
0.82800	21.620
0.82400	21.672
0.82000	21.658
0.81600	21.553
0.81200	21.490
0.80800	21.515
0.80400	21.490
0.80000	21.542
0.79900	21.458
0.79800	21.458
0.79700	21.443
0.79600	21.474
0.79500	21.474
0.79400	21.359
0.79300	21.346
0.79200	21.361
0.79100	21.538
0.79000	21.569
0.78900	21.361
0.78800	21.234
0.78700	21.054
0.78600	21.010
0.78500	20.972
0.78400	21.067
0.78300	21.067
0.78200	20.899
0.78100	20.896
0.78000	20.969
0.77900	21.111
0.77800	20.984
0.77700	20.760
0.77600	20.623
0.77500	20.688
0.77400	20.688
0.77300	20.397
0.77200	20.573
0.77100	20.383
0.77000	20.344
0.76900	20.602
0.76800	20.573
0.76700	20.660
0.76600	20.660
0.76500	20.394
0.76400	20.693
0.76300	20.549
0.76200	20.329
0.76100	20.737
0.76000	20.409
0.75900	20.269
0.75800	19.980
0.75700	20.076
0.75600	20.035
0.75500	20.091
0.75400	20.295
0.75300	19.897
0.75200	20.007
0.75100	19.910
0.75000	19.883
0.74900	19.841
0.74800	19.744
0.74700	19.744
0.74600	19.814
0.74500	19.744
0.74400	19.724
0.74300	19.663
0.74200	20.001
0.74100	20.155
0.74000	19.766
0.73900	19.507
0.73800	19.410
0.73700	19.260
0.73600	19.504
0.73500	19.550
0.73400	19.507
0.73300	19.585
0.73200	19.708
0.73100	19.625
0.73000	19.394
0.72900	19.377
0.72800	19.418
0.72700	19.404
0.72600	19.543
0.72500	19.640
0.72400	19.391
0.72300	19.196
0.72200	19.251
0.72100	19.210
0.72000	19.281
0.71900	19.260
0.71800	19.273
0.71700	19.357
0.71600	19.302
0.71500	19.221
0.71400	19.221
0.71300	19.152
0.71200	19.259
0.71100	19.190
0.71000	19.245
0.70900	19.302
0.70800	19.133
0.70700	19.150
0.70600	19.177
0.70500	19.093
0.70400	18.937
0.70300	18.993
0.70200	18.895
0.70100	18.801
0.70000	18.766
0.69900	19.083
0.69800	19.048
0.69700	19.235
0.69600	19.080
0.69500	19.007
0.69400	19.007
0.69300	19.193
0.69200	18.953
0.69100	19.007
0.69000	18.993
0.68900	19.235
0.68800	19.107
0.68700	19.107
0.68600	19.107
0.68500	19.034
0.68400	19.007
0.68300	19.107
0.68200	18.993
0.68100	19.093
0.68000	19.235
0.67900	19.249
0.67800	19.135
0.67700	18.807
0.67600	19.007
0.67500	19.149
0.67400	19.149
0.67300	19.149
0.67200	18.993
0.67100	19.176
0.67000	19.264
0.66900	19.277
0.66800	19.062
0.66700	19.062
0.66600	19.149
0.66500	19.034
0.66400	19.093
0.66300	18.980
0.66200	19.103
0.66100	19.204
0.66000	19.176
0.65900	19.349
0.65800	19.349
0.65700	19.218
0.65600	19.249
0.65500	19.263
0.65400	19.235
0.65300	19.307
0.65200	19.307
0.65100	19.279
0.65000	19.152
0.64900	18.912
0.64800	19.011
0.64700	19.162
0.64600	19.349
0.64500	19.246
0.64400	19.146
0.64300	19.219
0.64200	19.049
0.64100	19.135
0.64000	19.435
0.63900	19.711
0.63800	19.364
0.63700	19.393
0.63600	19.252
0.63500	19.293
0.63400	19.107
0.63300	19.093
0.63200	19.180
0.63100	19.249
0.63000	19.307
0.62900	19.279
0.62800	19.266
0.62700	19.266
0.62600	19.379
0.62500	19.450
0.62400	19.637
0.62300	19.593
0.62200	19.565
0.62100	19.550
0.62000	19.465
0.61900	19.565
0.61800	19.842
0.61700	19.797
0.61600	19.753
0.61500	19.926
0.61400	19.967
0.61300	20.108
0.61200	19.926
0.61100	19.551
0.61000	19.435
0.60900	19.421
0.60800	19.508
0.60700	19.406
0.60600	19.534
0.60500	19.622
0.60400	19.622
0.60300	19.753
0.60200	19.797
0.60100	19.564
0.60000	19.548
0.59900	19.592
0.59800	19.460
0.59700	19.636
0.59600	19.784
0.59500	19.654
0.59400	19.489
0.59300	19.814
0.59200	19.891
0.59100	19.876
0.59000	19.769
0.58900	20.037
0.58800	20.098
0.58700	19.861
0.58600	20.098
0.58500	20.171
0.58400	19.871
0.58300	20.109
0.58200	20.004
0.58100	19.989
0.58000	20.140
0.57900	20.274
0.57800	20.259
0.57700	20.300
0.57600	20.197
0.57500	20.212
0.57400	20.284
0.57300	20.088
0.57200	20.259
0.57100	20.117
0.57000	20.259
0.56900	20.141
0.56800	20.243
0.56700	19.999
0.56600	20.117
0.56500	20.304
0.56400	20.274
0.56300	20.335
0.56200	20.320
0.56100	20.320
0.56000	20.691
0.55900	20.443
0.55800	19.456
0.55700	19.821
0.55600	19.695
0.55500	19.569
0.55400	19.695
0.55300	19.694
0.55200	19.737
0.55100	19.680
0.55000	19.524
0.54900	19.808
0.54800	19.822
0.54700	19.708
0.54600	19.779
0.54500	19.607
0.54400	19.452
0.54300	19.636
0.54200	19.650
0.54100	19.650
0.54000	19.952
0.53900	19.952
0.53800	19.765
0.53700	19.620
0.53600	19.721
0.53500	19.606
0.53400	19.735
0.53300	19.493
0.53200	19.396
0.53100	19.383
0.53000	19.410
0.52900	19.380
0.52800	19.362
0.52700	19.348
0.52600	19.247
0.52500	19.348
0.52400	19.375
0.52300	19.334
0.52200	19.549
0.52100	19.535
0.52000	19.416
0.51900	19.301
0.51800	19.362
0.51700	19.476
0.51600	19.462
0.51500	19.403
0.51400	19.160
0.51300	19.173
0.51200	18.993
0.51100	18.980
0.51000	18.832
0.50900	19.107
0.50800	19.173
0.50700	19.153
0.50600	19.139
0.50500	19.099
0.50400	19.125
0.50300	19.091
0.50200	18.836
0.50100	19.094
0.50000	18.902
0.49900	18.771
0.49800	18.494
0.49700	18.506
0.49600	18.556
0.49500	18.595
0.49400	18.469
0.49300	18.708
0.49200	18.773
0.49100	18.838
0.49000	18.672
0.48900	18.569
0.48800	18.478
0.48700	18.405
0.48600	18.327
0.48500	18.057
0.48400	18.364
0.48300	18.402
0.48200	18.340
0.48100	18.239
0.48000	18.141
0.47900	18.165
0.47800	17.996
0.47700	17.866
0.47600	17.811
0.47500	17.890
0.47400	17.756
0.47300	17.526
0.47200	17.503
0.47100	17.571
0.47000	17.470
0.46900	17.493
0.46800	17.560
0.46700	17.312
0.46600	17.323
0.46500	17.099
0.46400	17.366
0.46300	17.174
0.46200	17.207
0.46100	17.049
0.46000	16.692
0.45900	17.494
0.45800	17.458
0.45700	17.388
0.45600	17.410
0.45500	17.377
0.45400	17.261
0.45300	17.324
0.45200	17.158
0.45100	17.219
0.45000	17.169
0.44900	17.200
0.44800	16.755
0.44700	17.073
0.44600	17.132
0.44500	17.024
0.44400	16.718
0.44300	16.396
0.44200	16.533
0.44100	16.639
0.44000	16.424
0.43900	16.754
0.43800	16.897
0.43700	16.674
0.43600	16.783
0.43500	16.802
0.43400	16.797
0.43300	16.574
0.43200	16.479
0.43100	16.506
0.43000	16.524
0.42900	16.440
0.42800	16.203
0.42700	16.352
0.42600	16.186
0.42500	15.950
0.42400	15.861
0.42300	16.124
0.42200	15.812
0.42100	15.822
0.42000	15.778
0.41900	15.732
0.41800	15.701
0.41700	15.448
0.41600	15.232
0.41500	15.336
0.41400	15.364
0.41300	15.330
0.41200	15.142
0.41100	15.109
0.41000	14.999
0.40900	15.024
0.40800	15.043
0.40700	14.944
0.40600	14.632
0.40500	14.620
0.40400	14.850
0.40300	14.850
0.40200	14.856
0.40100	14.761
0.40000	14.875
