Name: Diorite Gneiss
Type:  Rocks
Class: Metamorphic 
Subclass: Gneiss 
Particle Size:  0-75 Micrometer
Sample No.:  gneiss7.doc
Owner:  JHU
Wavelength Range:  All
Origin:  Sample No. 464, The Hunt and Salisbury Collection at the U.S. 
Geological Survey, Denver, Co.
Description:  This is a coarse-grained sample composed of hornblende euhedra 
assocciated with biotite, with anhedra and subhedra of alkali feldspars (oligoclase 
and orthoclase)  which are slightly sericitized.  Zircon and pyrite crystals occur 
throughout the section.  There may be a trace of quartz present as well.  Some 
carbonate (?), or zircon masses (high relief, colorless, perhaps 3rd order B.R.) 
occur in this rock, often associated with the amphibole or opaques.
Measurement:  Directional (10 Degree) Hemispherical Reflectance
First Column:  X
Second Column:  Y  
X Units:  Wavelength (micrometers)
Y Units:  Reflectance (percent)
First X Value: 14.9831
Last X Value:  0.4
Number of X Values: 2868
Additional Information:  gneiss7a.txt

14.983	1.0226
14.940	1.0960
14.897	1.2269
14.854	1.3617
14.812	1.4659
14.770	1.5256
14.728	1.5457
14.686	1.5440
14.645	1.5407
14.603	1.5478
14.562	1.5680
14.521	1.5947
14.481	1.6184
14.441	1.6312
14.400	1.6343
14.361	1.6343
14.321	1.6409
14.281	1.6615
14.242	1.6970
14.203	1.7418
14.164	1.7875
14.126	1.8254
14.087	1.8512
14.049	1.8642
14.011	1.8678
13.973	1.8668
13.936	1.8656
13.899	1.8661
13.861	1.8690
13.824	1.8739
13.788	1.8796
13.751	1.8858
13.715	1.8914
13.679	1.8964
13.643	1.9004
13.607	1.9026
13.571	1.9019
13.536	1.8981
13.500	1.8910
13.465	1.8810
13.430	1.8687
13.396	1.8552
13.361	1.8417
13.327	1.8296
13.293	1.8204
13.259	1.8166
13.225	1.8199
13.191	1.8313
13.158	1.8502
13.124	1.8753
13.091	1.9035
13.058	1.9327
13.026	1.9618
12.993	1.9904
12.960	2.0205
12.928	2.0532
12.896	2.0901
12.864	2.1309
12.832	2.1747
12.800	2.2206
12.769	2.2685
12.737	2.3184
12.706	2.3727
12.675	2.4338
12.644	2.5041
12.614	2.5851
12.583	2.6774
12.552	2.7807
12.522	2.8946
12.492	3.0185
12.462	3.1532
12.432	3.2993
12.402	3.4575
12.373	3.6271
12.343	3.8059
12.314	3.9892
12.285	4.1706
12.256	4.3434
12.227	4.5007
12.198	4.6366
12.169	4.7474
12.141	4.8310
12.113	4.8876
12.084	4.9191
12.056	4.9288
12.028	4.9203
12.000	4.8976
11.973	4.8640
11.945	4.8216
11.918	4.7723
11.890	4.7167
11.863	4.6551
11.836	4.5883
11.809	4.5177
11.782	4.4455
11.755	4.3747
11.729	4.3089
11.702	4.2511
11.676	4.2037
11.650	4.1680
11.624	4.1431
11.598	4.1268
11.572	4.1156
11.546	4.1059
11.520	4.0948
11.495	4.0799
11.469	4.0607
11.444	4.0375
11.419	4.0105
11.394	3.9802
11.369	3.9461
11.344	3.9082
11.319	3.8660
11.294	3.8196
11.270	3.7696
11.245	3.7173
11.221	3.6635
11.197	3.6100
11.173	3.5579
11.149	3.5077
11.125	3.4606
11.101	3.4161
11.077	3.3744
11.054	3.3353
11.030	3.2998
11.007	3.2685
10.983	3.2430
10.960	3.2238
10.937	3.2115
10.914	3.2055
10.891	3.2055
10.868	3.2103
10.846	3.2186
10.823	3.2299
10.800	3.2439
10.778	3.2605
10.755	3.2790
10.733	3.2993
10.711	3.3209
10.689	3.3436
10.667	3.3670
10.645	3.3912
10.623	3.4156
10.602	3.4395
10.580	3.4622
10.558	3.4833
10.537	3.5027
10.516	3.5198
10.494	3.5352
10.473	3.5487
10.452	3.5605
10.431	3.5712
10.410	3.5814
10.389	3.5913
10.368	3.6022
10.348	3.6143
10.327	3.6273
10.306	3.6410
10.286	3.6545
10.266	3.6676
10.245	3.6801
10.225	3.6922
10.205	3.7045
10.185	3.7173
10.165	3.7306
10.145	3.7433
10.125	3.7545
10.106	3.7628
10.086	3.7666
10.066	3.7656
10.047	3.7597
10.027	3.7500
10.008	3.7372
9.9887	3.7225
9.9695	3.7064
9.9504	3.6886
9.9313	3.6680
9.9123	3.6441
9.8934	3.6157
9.8746	3.5825
9.8558	3.5458
9.8371	3.5068
9.8185	3.4672
9.7999	3.4296
9.7814	3.3950
9.7630	3.3644
9.7447	3.3384
9.7264	3.3168
9.7082	3.2993
9.6900	3.2849
9.6719	3.2730
9.6539	3.2628
9.6360	3.2529
9.6181	3.2413
9.6003	3.2266
9.5825	3.2062
9.5649	3.1783
9.5472	3.1418
9.5297	3.0978
9.5122	3.0471
9.4948	2.9931
9.4774	2.9379
9.4601	2.8842
9.4429	2.8323
9.4257	2.7831
9.4086	2.7357
9.3916	2.6895
9.3746	2.6440
9.3577	2.5991
9.3408	2.5552
9.3240	2.5133
9.3073	2.4743
9.2906	2.4392
9.2740	2.4089
9.2574	2.3828
9.2409	2.3608
9.2245	2.3414
9.2081	2.3241
9.1918	2.3085
9.1755	2.2947
9.1593	2.2836
9.1431	2.2756
9.1270	2.2699
9.1110	2.2659
9.0950	2.2623
9.0791	2.2578
9.0632	2.2521
9.0474	2.2462
9.0316	2.2405
9.0159	2.2363
9.0003	2.2346
8.9847	2.2358
8.9691	2.2403
8.9536	2.2486
8.9382	2.2614
8.9228	2.2796
8.9075	2.3045
8.8922	2.3357
8.8770	2.3724
8.8618	2.4127
8.8467	2.4544
8.8316	2.4953
8.8166	2.5346
8.8016	2.5721
8.7867	2.6090
8.7718	2.6459
8.7570	2.6831
8.7422	2.7194
8.7275	2.7525
8.7129	2.7795
8.6982	2.7975
8.6837	2.8041
8.6692	2.7994
8.6547	2.7847
8.6403	2.7632
8.6259	2.7390
8.6116	2.7170
8.5973	2.7011
8.5830	2.6935
8.5688	2.6952
8.5547	2.7047
8.5406	2.7201
8.5266	2.7392
8.5126	2.7613
8.4986	2.7850
8.4847	2.8115
8.4708	2.8416
8.4570	2.8759
8.4432	2.9154
8.4295	2.9595
8.4158	3.0076
8.4022	3.0585
8.3886	3.1106
8.3750	3.1620
8.3615	3.2103
8.3481	3.2531
8.3347	3.2880
8.3213	3.3119
8.3079	3.3230
8.2946	3.3199
8.2814	3.3024
8.2682	3.2711
8.2550	3.2278
8.2419	3.1748
8.2288	3.1146
8.2158	3.0507
8.2028	2.9867
8.1898	2.9266
8.1769	2.8733
8.1640	2.8295
8.1512	2.7958
8.1384	2.7719
8.1256	2.7570
8.1129	2.7497
8.1002	2.7494
8.0876	2.7556
8.0750	2.7686
8.0624	2.7885
8.0499	2.8150
8.0374	2.8479
8.0250	2.8865
8.0126	2.9313
8.0002	2.9817
7.9879	3.0386
7.9756	3.1021
7.9634	3.1710
7.9512	3.2446
7.9390	3.3213
7.9268	3.3997
7.9147	3.4795
7.9027	3.5605
7.8906	3.6436
7.8786	3.7294
7.8667	3.8182
7.8548	3.9105
7.8429	4.0060
7.8310	4.1047
7.8192	4.2066
7.8075	4.3112
7.7957	4.4178
7.7840	4.5251
7.7723	4.6324
7.7607	4.7389
7.7491	4.8448
7.7375	4.9509
7.7260	5.0589
7.7145	5.1697
7.7031	5.2841
7.6916	5.4013
7.6802	5.5197
7.6689	5.6372
7.6575	5.7520
7.6462	5.8633
7.6350	5.9713
7.6238	6.0774
7.6126	6.1835
7.6014	6.2908
7.5903	6.4002
7.5792	6.5117
7.5681	6.6244
7.5571	6.7379
7.5461	6.8511
7.5351	6.9636
7.5242	7.0756
7.5133	7.1869
7.5024	7.2977
7.4916	7.4076
7.4807	7.5170
7.4700	7.6267
7.4592	7.7368
7.4485	7.8478
7.4378	7.9603
7.4272	8.0735
7.4165	8.1870
7.4059	8.2999
7.3954	8.4117
7.3848	8.5216
7.3743	8.6293
7.3639	8.7352
7.3534	8.8387
7.3430	8.9398
7.3326	9.0390
7.3222	9.1364
7.3119	9.2327
7.3016	9.3282
7.2914	9.4234
7.2811	9.5176
7.2709	9.6107
7.2607	9.7007
7.2506	9.7866
7.2404	9.8674
7.2303	9.9432
7.2203	10.014
7.2102	10.082
7.2002	10.147
7.1902	10.211
7.1803	10.276
7.1703	10.343
7.1604	10.415
7.1506	10.493
7.1407	10.579
7.1309	10.672
7.1211	10.767
7.1113	10.862
7.1016	10.949
7.0919	11.027
7.0822	11.093
7.0725	11.151
7.0629	11.202
7.0533	11.254
7.0437	11.309
7.0341	11.369
7.0246	11.431
7.0151	11.494
7.0056	11.552
6.9962	11.606
6.9867	11.656
6.9773	11.706
6.9679	11.760
6.9586	11.822
6.9493	11.891
6.9400	11.966
6.9307	12.043
6.9214	12.118
6.9122	12.188
6.9030	12.251
6.8938	12.311
6.8847	12.370
6.8755	12.435
6.8664	12.509
6.8573	12.595
6.8483	12.691
6.8393	12.792
6.8302	12.893
6.8213	12.989
6.8123	13.078
6.8034	13.162
6.7944	13.245
6.7855	13.330
6.7767	13.421
6.7678	13.517
6.7590	13.616
6.7502	13.711
6.7414	13.801
6.7327	13.884
6.7239	13.962
6.7152	14.038
6.7065	14.115
6.6979	14.193
6.6892	14.272
6.6806	14.349
6.6720	14.420
6.6634	14.487
6.6549	14.552
6.6464	14.620
6.6378	14.694
6.6294	14.777
6.6209	14.865
6.6124	14.954
6.6040	15.038
6.5956	15.114
6.5872	15.183
6.5789	15.249
6.5705	15.318
6.5622	15.390
6.5539	15.464
6.5456	15.532
6.5374	15.586
6.5292	15.619
6.5209	15.631
6.5128	15.630
6.5046	15.626
6.4964	15.634
6.4883	15.661
6.4802	15.707
6.4721	15.762
6.4640	15.811
6.4560	15.838
6.4480	15.834
6.4399	15.801
6.4320	15.749
6.4240	15.693
6.4160	15.649
6.4081	15.624
6.4002	15.615
6.3923	15.612
6.3844	15.601
6.3766	15.573
6.3687	15.525
6.3609	15.462
6.3531	15.392
6.3454	15.326
6.3376	15.271
6.3299	15.227
6.3221	15.192
6.3144	15.161
6.3068	15.127
6.2991	15.089
6.2914	15.044
6.2838	14.997
6.2762	14.948
6.2686	14.900
6.2611	14.854
6.2535	14.809
6.2460	14.763
6.2385	14.714
6.2310	14.659
6.2235	14.599
6.2160	14.535
6.2086	14.471
6.2011	14.413
6.1937	14.368
6.1863	14.339
6.1790	14.329
6.1716	14.336
6.1643	14.355
6.1570	14.379
6.1496	14.403
6.1424	14.424
6.1351	14.442
6.1278	14.462
6.1206	14.488
6.1134	14.524
6.1062	14.570
6.0990	14.621
6.0918	14.672
6.0847	14.716
6.0776	14.752
6.0704	14.784
6.0633	14.820
6.0563	14.870
6.0492	14.940
6.0421	15.031
6.0351	15.137
6.0281	15.248
6.0211	15.353
6.0141	15.446
6.0071	15.524
6.0002	15.592
5.9932	15.655
5.9863	15.717
5.9794	15.783
5.9725	15.849
5.9657	15.914
5.9588	15.976
5.9520	16.038
5.9451	16.103
5.9383	16.171
5.9315	16.244
5.9247	16.317
5.9180	16.385
5.9112	16.443
5.9045	16.491
5.8978	16.536
5.8911	16.587
5.8844	16.654
5.8777	16.738
5.8711	16.837
5.8644	16.941
5.8578	17.038
5.8512	17.121
5.8446	17.188
5.8380	17.244
5.8314	17.300
5.8249	17.364
5.8184	17.438
5.8118	17.521
5.8053	17.605
5.7988	17.678
5.7923	17.735
5.7859	17.776
5.7794	17.805
5.7730	17.831
5.7666	17.865
5.7602	17.912
5.7538	17.971
5.7474	18.039
5.7410	18.110
5.7347	18.177
5.7283	18.242
5.7220	18.303
5.7157	18.364
5.7094	18.429
5.7031	18.500
5.6969	18.578
5.6906	18.661
5.6844	18.747
5.6782	18.835
5.6719	18.923
5.6657	19.012
5.6596	19.103
5.6534	19.199
5.6472	19.304
5.6411	19.420
5.6349	19.547
5.6288	19.681
5.6227	19.816
5.6166	19.943
5.6106	20.054
5.6045	20.144
5.5984	20.213
5.5924	20.268
5.5864	20.320
5.5804	20.382
5.5744	20.466
5.5684	20.580
5.5624	20.728
5.5564	20.904
5.5505	21.100
5.5445	21.305
5.5386	21.508
5.5327	21.700
5.5268	21.878
5.5209	22.040
5.5151	22.190
5.5092	22.329
5.5033	22.461
5.4975	22.585
5.4917	22.705
5.4859	22.819
5.4801	22.931
5.4743	23.044
5.4685	23.159
5.4628	23.276
5.4570	23.395
5.4513	23.512
5.4455	23.622
5.4398	23.723
5.4341	23.817
5.4284	23.906
5.4228	23.993
5.4171	24.082
5.4114	24.175
5.4058	24.269
5.4002	24.362
5.3945	24.452
5.3889	24.537
5.3833	24.616
5.3778	24.691
5.3722	24.766
5.3666	24.843
5.3611	24.927
5.3555	25.017
5.3500	25.117
5.3445	25.226
5.3390	25.343
5.3335	25.464
5.3280	25.587
5.3225	25.708
5.3171	25.826
5.3116	25.940
5.3062	26.049
5.3008	26.157
5.2954	26.265
5.2900	26.376
5.2846	26.492
5.2792	26.612
5.2738	26.734
5.2684	26.858
5.2631	26.983
5.2578	27.106
5.2524	27.228
5.2471	27.351
5.2418	27.474
5.2365	27.597
5.2312	27.721
5.2260	27.846
5.2207	27.972
5.2154	28.101
5.2102	28.232
5.2050	28.365
5.1998	28.501
5.1945	28.637
5.1893	28.772
5.1842	28.903
5.1790	29.030
5.1738	29.153
5.1686	29.272
5.1635	29.390
5.1584	29.508
5.1532	29.628
5.1481	29.753
5.1430	29.883
5.1379	30.017
5.1328	30.155
5.1277	30.296
5.1227	30.438
5.1176	30.580
5.1126	30.721
5.1075	30.861
5.1025	30.999
5.0975	31.135
5.0925	31.272
5.0875	31.411
5.0825	31.553
5.0775	31.699
5.0726	31.848
5.0676	31.999
5.0627	32.147
5.0577	32.290
5.0528	32.424
5.0479	32.550
5.0430	32.667
5.0380	32.779
5.0332	32.889
5.0283	33.001
5.0234	33.119
5.0185	33.244
5.0137	33.376
5.0088	33.512
5.0040	33.648
4.9992	33.782
4.9944	33.913
4.9896	34.041
4.9848	34.167
4.9800	34.295
4.9752	34.425
4.9704	34.560
4.9657	34.697
4.9609	34.837
4.9562	34.978
4.9514	35.117
4.9467	35.256
4.9420	35.393
4.9373	35.530
4.9326	35.668
4.9279	35.806
4.9232	35.945
4.9186	36.083
4.9139	36.219
4.9092	36.353
4.9046	36.484
4.9000	36.613
4.8953	36.740
4.8907	36.866
4.8861	36.993
4.8815	37.124
4.8769	37.257
4.8723	37.396
4.8678	37.538
4.8632	37.683
4.8586	37.828
4.8541	37.972
4.8495	38.112
4.8450	38.247
4.8405	38.377
4.8360	38.505
4.8315	38.630
4.8270	38.755
4.8225	38.881
4.8180	39.007
4.8135	39.135
4.8090	39.263
4.8046	39.392
4.8001	39.522
4.7957	39.654
4.7913	39.788
4.7868	39.924
4.7824	40.063
4.7780	40.205
4.7736	40.348
4.7692	40.494
4.7648	40.641
4.7605	40.791
4.7561	40.941
4.7517	41.092
4.7474	41.244
4.7431	41.395
4.7387	41.546
4.7344	41.695
4.7301	41.842
4.7258	41.986
4.7215	42.126
4.7172	42.263
4.7129	42.398
4.7086	42.533
4.7043	42.669
4.7000	42.809
4.6958	42.953
4.6915	43.101
4.6873	43.254
4.6831	43.408
4.6788	43.564
4.6746	43.720
4.6704	43.876
4.6662	44.034
4.6620	44.194
4.6578	44.358
4.6536	44.525
4.6495	44.694
4.6453	44.864
4.6411	45.035
4.6370	45.205
4.6328	45.373
4.6287	45.540
4.6246	45.705
4.6205	45.871
4.6163	46.035
4.6122	46.199
4.6081	46.361
4.6040	46.521
4.6000	46.678
4.5959	46.833
4.5918	46.985
4.5877	47.137
4.5837	47.289
4.5796	47.441
4.5756	47.593
4.5716	47.743
4.5675	47.890
4.5635	48.034
4.5595	48.173
4.5555	48.308
4.5515	48.440
4.5475	48.569
4.5435	48.695
4.5395	48.818
4.5356	48.936
4.5316	49.048
4.5276	49.153
4.5237	49.252
4.5197	49.347
4.5158	49.437
4.5119	49.527
4.5080	49.616
4.5040	49.704
4.5001	49.790
4.4962	49.874
4.4923	49.956
4.4884	50.035
4.4846	50.115
4.4807	50.196
4.4768	50.281
4.4730	50.372
4.4691	50.468
4.4652	50.569
4.4614	50.675
4.4576	50.784
4.4537	50.896
4.4499	51.011
4.4461	51.128
4.4423	51.246
4.4385	51.367
4.4347	51.488
4.4309	51.611
4.4271	51.735
4.4233	51.858
4.4196	51.982
4.4158	52.104
4.4120	52.226
4.4083	52.345
4.4045	52.463
4.4008	52.578
4.3971	52.691
4.3934	52.801
4.3896	52.910
4.3859	53.016
4.3822	53.118
4.3785	53.217
4.3748	53.312
4.3711	53.404
4.3674	53.492
4.3638	53.578
4.3601	53.663
4.3564	53.748
4.3528	53.833
4.3491	53.917
4.3455	53.999
4.3418	54.079
4.3382	54.157
4.3346	54.230
4.3310	54.301
4.3273	54.371
4.3237	54.439
4.3201	54.510
4.3165	54.582
4.3129	54.656
4.3094	54.731
4.3058	54.806
4.3022	54.880
4.2986	54.950
4.2951	55.017
4.2915	55.080
4.2880	55.140
4.2844	55.199
4.2809	55.255
4.2774	55.309
4.2738	55.360
4.2703	55.410
4.2668	55.459
4.2633	55.508
4.2598	55.561
4.2563	55.618
4.2528	55.679
4.2493	55.742
4.2458	55.806
4.2424	55.868
4.2389	55.926
4.2354	55.979
4.2320	56.027
4.2285	56.073
4.2251	56.116
4.2216	56.159
4.2182	56.201
4.2148	56.242
4.2113	56.283
4.2079	56.323
4.2045	56.361
4.2011	56.399
4.1977	56.436
4.1943	56.474
4.1909	56.514
4.1875	56.555
4.1841	56.596
4.1808	56.639
4.1774	56.681
4.1740	56.722
4.1707	56.761
4.1673	56.797
4.1640	56.831
4.1606	56.861
4.1573	56.889
4.1540	56.916
4.1506	56.943
4.1473	56.970
4.1440	57.000
4.1407	57.030
4.1374	57.062
4.1341	57.095
4.1308	57.127
4.1275	57.158
4.1242	57.187
4.1209	57.215
4.1177	57.240
4.1144	57.265
4.1111	57.288
4.1079	57.310
4.1046	57.331
4.1014	57.352
4.0981	57.372
4.0949	57.392
4.0917	57.411
4.0884	57.428
4.0852	57.444
4.0820	57.457
4.0788	57.469
4.0756	57.478
4.0724	57.486
4.0692	57.493
4.0660	57.500
4.0628	57.505
4.0596	57.509
4.0565	57.510
4.0533	57.506
4.0501	57.495
4.0470	57.476
4.0438	57.447
4.0406	57.408
4.0375	57.362
4.0344	57.310
4.0312	57.255
4.0281	57.198
4.0250	57.140
4.0218	57.078
4.0187	57.009
4.0156	56.928
4.0125	56.831
4.0094	56.714
4.0063	56.576
4.0032	56.421
4.0001	56.254
3.9970	56.082
3.9940	55.915
3.9909	55.764
3.9878	55.638
3.9847	55.541
3.9817	55.479
3.9786	55.453
3.9756	55.459
3.9725	55.495
3.9695	55.559
3.9665	55.646
3.9634	55.756
3.9604	55.887
3.9574	56.036
3.9544	56.199
3.9513	56.373
3.9483	56.549
3.9453	56.720
3.9423	56.876
3.9393	57.013
3.9363	57.125
3.9333	57.214
3.9304	57.280
3.9274	57.332
3.9244	57.373
3.9214	57.410
3.9185	57.446
3.9155	57.482
3.9126	57.518
3.9096	57.553
3.9067	57.587
3.9037	57.618
3.9008	57.647
3.8979	57.674
3.8949	57.697
3.8920	57.717
3.8891	57.734
3.8862	57.747
3.8833	57.757
3.8804	57.767
3.8775	57.777
3.8746	57.789
3.8717	57.804
3.8688	57.822
3.8659	57.842
3.8630	57.864
3.8601	57.887
3.8573	57.909
3.8544	57.930
3.8515	57.951
3.8487	57.970
3.8458	57.991
3.8430	58.015
3.8401	58.042
3.8373	58.075
3.8344	58.113
3.8316	58.155
3.8288	58.199
3.8259	58.242
3.8231	58.282
3.8203	58.320
3.8175	58.354
3.8147	58.386
3.8119	58.416
3.8091	58.446
3.8063	58.476
3.8035	58.507
3.8007	58.539
3.7979	58.571
3.7951	58.601
3.7924	58.629
3.7896	58.652
3.7868	58.668
3.7841	58.679
3.7813	58.685
3.7785	58.687
3.7758	58.686
3.7730	58.684
3.7703	58.682
3.7676	58.679
3.7648	58.675
3.7621	58.669
3.7594	58.663
3.7566	58.655
3.7539	58.646
3.7512	58.637
3.7485	58.627
3.7458	58.616
3.7431	58.603
3.7404	58.590
3.7377	58.576
3.7350	58.563
3.7323	58.550
3.7296	58.538
3.7269	58.526
3.7242	58.512
3.7216	58.495
3.7189	58.475
3.7162	58.451
3.7136	58.425
3.7109	58.398
3.7083	58.373
3.7056	58.353
3.7030	58.337
3.7003	58.325
3.6977	58.315
3.6950	58.304
3.6924	58.291
3.6898	58.273
3.6872	58.250
3.6845	58.223
3.6819	58.195
3.6793	58.168
3.6767	58.144
3.6741	58.124
3.6715	58.105
3.6689	58.087
3.6663	58.068
3.6637	58.045
3.6611	58.021
3.6585	57.995
3.6560	57.969
3.6534	57.943
3.6508	57.918
3.6482	57.893
3.6457	57.867
3.6431	57.839
3.6406	57.809
3.6380	57.776
3.6355	57.743
3.6329	57.709
3.6304	57.675
3.6278	57.642
3.6253	57.609
3.6227	57.576
3.6202	57.542
3.6177	57.507
3.6152	57.473
3.6127	57.438
3.6101	57.402
3.6076	57.366
3.6051	57.328
3.6026	57.289
3.6001	57.248
3.5976	57.204
3.5951	57.160
3.5926	57.116
3.5901	57.070
3.5876	57.026
3.5852	56.980
3.5827	56.935
3.5802	56.889
3.5777	56.842
3.5753	56.794
3.5728	56.745
3.5704	56.695
3.5679	56.645
3.5654	56.595
3.5630	56.546
3.5605	56.496
3.5581	56.447
3.5557	56.395
3.5532	56.340
3.5508	56.281
3.5484	56.219
3.5459	56.153
3.5435	56.086
3.5411	56.018
3.5387	55.948
3.5363	55.874
3.5338	55.793
3.5314	55.703
3.5290	55.600
3.5266	55.486
3.5242	55.362
3.5218	55.232
3.5195	55.098
3.5171	54.964
3.5147	54.830
3.5123	54.697
3.5099	54.567
3.5075	54.440
3.5052	54.319
3.5028	54.205
3.5004	54.101
3.4981	54.007
3.4957	53.923
3.4934	53.846
3.4910	53.773
3.4887	53.701
3.4863	53.631
3.4840	53.563
3.4816	53.503
3.4793	53.453
3.4770	53.418
3.4746	53.399
3.4723	53.394
3.4700	53.399
3.4677	53.407
3.4653	53.410
3.4630	53.403
3.4607	53.382
3.4584	53.343
3.4561	53.287
3.4538	53.217
3.4515	53.138
3.4492	53.054
3.4469	52.972
3.4446	52.896
3.4423	52.830
3.4400	52.772
3.4378	52.720
3.4355	52.669
3.4332	52.611
3.4309	52.542
3.4287	52.460
3.4264	52.366
3.4241	52.265
3.4219	52.164
3.4196	52.069
3.4174	51.984
3.4151	51.912
3.4129	51.850
3.4106	51.797
3.4084	51.748
3.4061	51.700
3.4039	51.651
3.4017	51.600
3.3994	51.544
3.3972	51.484
3.3950	51.417
3.3928	51.345
3.3906	51.268
3.3883	51.190
3.3861	51.112
3.3839	51.036
3.3817	50.963
3.3795	50.892
3.3773	50.823
3.3751	50.755
3.3729	50.686
3.3707	50.617
3.3685	50.545
3.3663	50.470
3.3641	50.389
3.3620	50.303
3.3598	50.213
3.3576	50.121
3.3554	50.034
3.3533	49.958
3.3511	49.898
3.3489	49.857
3.3468	49.835
3.3446	49.829
3.3425	49.831
3.3403	49.835
3.3382	49.832
3.3360	49.819
3.3339	49.794
3.3317	49.757
3.3296	49.712
3.3274	49.660
3.3253	49.604
3.3232	49.545
3.3210	49.483
3.3189	49.418
3.3168	49.348
3.3147	49.274
3.3126	49.196
3.3104	49.115
3.3083	49.032
3.3062	48.947
3.3041	48.863
3.3020	48.779
3.2999	48.696
3.2978	48.613
3.2957	48.528
3.2936	48.442
3.2915	48.352
3.2894	48.259
3.2874	48.164
3.2853	48.066
3.2832	47.967
3.2811	47.869
3.2790	47.770
3.2770	47.672
3.2749	47.575
3.2728	47.478
3.2708	47.380
3.2687	47.281
3.2666	47.181
3.2646	47.078
3.2625	46.973
3.2605	46.866
3.2584	46.757
3.2564	46.647
3.2543	46.536
3.2523	46.426
3.2503	46.317
3.2482	46.208
3.2462	46.100
3.2442	45.993
3.2421	45.886
3.2401	45.779
3.2381	45.671
3.2361	45.563
3.2340	45.453
3.2320	45.343
3.2300	45.232
3.2280	45.121
3.2260	45.012
3.2240	44.904
3.2220	44.800
3.2200	44.697
3.2180	44.592
3.2160	44.485
3.2140	44.374
3.2120	44.257
3.2100	44.137
3.2080	44.016
3.2060	43.896
3.2040	43.780
3.2021	43.669
3.2001	43.560
3.1981	43.452
3.1961	43.342
3.1942	43.231
3.1922	43.118
3.1902	43.005
3.1883	42.895
3.1863	42.788
3.1844	42.684
3.1824	42.582
3.1805	42.479
3.1785	42.374
3.1766	42.267
3.1746	42.158
3.1727	42.049
3.1707	41.941
3.1688	41.833
3.1669	41.726
3.1649	41.616
3.1630	41.501
3.1611	41.380
3.1591	41.253
3.1572	41.123
3.1553	40.991
3.1534	40.861
3.1515	40.734
3.1495	40.611
3.1476	40.493
3.1457	40.376
3.1438	40.260
3.1419	40.144
3.1400	40.025
3.1381	39.904
3.1362	39.781
3.1343	39.658
3.1324	39.535
3.1305	39.414
3.1286	39.295
3.1268	39.177
3.1249	39.059
3.1230	38.942
3.1211	38.824
3.1192	38.705
3.1174	38.586
3.1155	38.468
3.1136	38.351
3.1117	38.236
3.1099	38.125
3.1080	38.018
3.1061	37.915
3.1043	37.815
3.1024	37.716
3.1006	37.615
3.0987	37.512
3.0969	37.406
3.0950	37.297
3.0932	37.188
3.0913	37.080
3.0895	36.977
3.0876	36.879
3.0858	36.789
3.0840	36.705
3.0821	36.626
3.0803	36.550
3.0785	36.475
3.0766	36.398
3.0748	36.317
3.0730	36.232
3.0712	36.143
3.0694	36.052
3.0675	35.962
3.0657	35.874
3.0639	35.790
3.0621	35.709
3.0603	35.632
3.0585	35.555
3.0567	35.478
3.0549	35.399
3.0531	35.316
3.0513	35.229
3.0495	35.138
3.0477	35.044
3.0459	34.948
3.0441	34.853
3.0423	34.760
3.0406	34.671
3.0388	34.585
3.0370	34.500
3.0352	34.411
3.0334	34.315
3.0317	34.210
3.0299	34.096
3.0281	33.975
3.0264	33.852
3.0246	33.729
3.0228	33.610
3.0211	33.494
3.0193	33.379
3.0176	33.265
3.0158	33.151
3.0140	33.037
3.0123	32.923
3.0105	32.810
3.0088	32.696
3.0070	32.578
3.0053	32.455
3.0036	32.326
3.0018	32.193
3.0001	32.060
2.9984	31.931
2.9966	31.808
2.9949	31.693
2.9932	31.582
2.9914	31.471
2.9897	31.358
2.9880	31.242
2.9863	31.123
2.9845	31.005
2.9828	30.892
2.9811	30.786
2.9794	30.687
2.9777	30.593
2.9760	30.504
2.9743	30.416
2.9726	30.329
2.9709	30.244
2.9692	30.161
2.9675	30.083
2.9658	30.010
2.9641	29.943
2.9624	29.882
2.9607	29.825
2.9590	29.770
2.9573	29.715
2.9556	29.658
2.9539	29.599
2.9523	29.538
2.9506	29.478
2.9489	29.421
2.9472	29.370
2.9455	29.327
2.9439	29.291
2.9422	29.261
2.9405	29.236
2.9389	29.215
2.9372	29.196
2.9355	29.180
2.9339	29.167
2.9322	29.154
2.9306	29.143
2.9289	29.132
2.9272	29.121
2.9256	29.112
2.9239	29.105
2.9223	29.101
2.9207	29.100
2.9190	29.102
2.9174	29.104
2.9157	29.106
2.9141	29.107
2.9124	29.105
2.9108	29.102
2.9092	29.095
2.9075	29.084
2.9059	29.069
2.9043	29.050
2.9027	29.028
2.9010	29.006
2.8994	28.982
2.8978	28.957
2.8962	28.929
2.8946	28.897
2.8929	28.858
2.8913	28.811
2.8897	28.757
2.8881	28.695
2.8865	28.626
2.8849	28.551
2.8833	28.468
2.8817	28.381
2.8801	28.293
2.8785	28.206
2.8769	28.125
2.8753	28.053
2.8737	27.993
2.8721	27.944
2.8705	27.908
2.8689	27.882
2.8673	27.866
2.8658	27.862
2.8642	27.870
2.8626	27.890
2.8610	27.922
2.8594	27.964
2.8579	28.011
2.8563	28.057
2.8547	28.097
2.8531	28.127
2.8516	28.145
2.8500	28.149
2.8484	28.142
2.8469	28.124
2.8453	28.097
2.8437	28.061
2.8422	28.016
2.8406	27.962
2.8391	27.901
2.8375	27.833
2.8360	27.759
2.8344	27.681
2.8329	27.597
2.8313	27.508
2.8298	27.415
2.8282	27.319
2.8267	27.221
2.8252	27.123
2.8236	27.029
2.8221	26.941
2.8205	26.861
2.8190	26.789
2.8175	26.725
2.8159	26.668
2.8144	26.614
2.8129	26.560
2.8114	26.503
2.8098	26.444
2.8083	26.382
2.8068	26.321
2.8053	26.262
2.8038	26.208
2.8022	26.158
2.8007	26.108
2.7992	26.053
2.7977	25.987
2.7962	25.904
2.7947	25.799
2.7932	25.664
2.7917	25.488
2.7902	25.253
2.7887	24.938
2.7872	24.521
2.7857	23.991
2.7842	23.355
2.7827	22.644
2.7812	21.910
2.7797	21.213
2.7782	20.604
2.7767	20.109
2.7752	19.717
2.7738	19.386
2.7723	19.061
2.7708	18.695
2.7693	18.266
2.7678	17.789
2.7664	17.309
2.7649	16.880
2.7634	16.552
2.7619	16.351
2.7605	16.273
2.7590	16.299
2.7575	16.399
2.7561	16.546
2.7546	16.724
2.7531	16.925
2.7517	17.143
2.7502	17.375
2.7488	17.612
2.7473	17.846
2.7458	18.074
2.7444	18.294
2.7429	18.511
2.7415	18.734
2.7400	18.972
2.7386	19.239
2.7371	19.545
2.7357	19.898
2.7343	20.294
2.7328	20.717
2.7314	21.141
2.7299	21.533
2.7285	21.872
2.7271	22.153
2.7256	22.396
2.7242	22.637
2.7228	22.914
2.7213	23.251
2.7199	23.650
2.7185	24.086
2.7171	24.522
2.7156	24.925
2.7142	25.280
2.7128	25.593
2.7114	25.896
2.7100	26.230
2.7085	26.639
2.7071	27.157
2.7057	27.799
2.7043	28.568
2.7029	29.451
2.7015	30.434
2.7001	31.503
2.6987	32.657
2.6973	33.903
2.6959	35.260
2.6945	36.744
2.6931	38.364
2.6917	40.112
2.6903	41.961
2.6889	43.866
2.6875	45.769
2.6861	47.611
2.6847	49.338
2.6833	50.908
2.6819	52.293
2.6805	53.479
2.6791	54.465
2.6778	55.255
2.6764	55.860
2.6750	56.295
2.6736	56.584
2.6722	56.758
2.6709	56.858
2.6695	56.927
2.6681	57.008
2.6667	57.129
2.6654	57.301
2.6640	57.514
2.6626	57.744
2.6613	57.965
2.6599	58.153
2.6585	58.297
2.6572	58.401
2.6558	58.479
2.6545	58.548
2.6531	58.622
2.6517	58.706
2.6504	58.798
2.6490	58.894
2.6477	58.988
2.6463	59.077
2.6450	59.162
2.6436	59.245
2.6423	59.325
2.6409	59.398
2.6396	59.455
2.6382	59.485
2.6369	59.482
2.6356	59.444
2.6342	59.381
2.6329	59.312
2.6315	59.257
2.6302	59.234
2.6289	59.249
2.6275	59.295
2.6262	59.352
2.6249	59.397
2.6236	59.413
2.6222	59.397
2.6209	59.361
2.6196	59.327
2.6183	59.320
2.6169	59.352
2.6156	59.418
2.6143	59.500
2.6130	59.567
2.6117	59.598
2.6103	59.586
2.6090	59.543
2.6077	59.498
2.6064	59.481
2.6051	59.508
2.6038	59.573
2.6025	59.648
2.6012	59.697
2.5999	59.693
2.5986	59.632
2.5973	59.538
2.5960	59.455
2.5947	59.422
2.5934	59.456
2.5921	59.549
2.5908	59.668
2.5895	59.775
2.5882	59.842
2.5869	59.864
2.5856	59.856
2.5843	59.842
2.5830	59.842
2.5817	59.862
2.5805	59.895
2.5792	59.927
2.5779	59.946
2.5766	59.948
2.5753	59.939
2.5741	59.931
2.5728	59.931
2.5715	59.941
2.5702	59.954
2.5690	59.957
2.5677	59.941
2.5664	59.904
2.5651	59.857
2.5639	59.816
2.5626	59.801
2.5613	59.820
2.5601	59.874
2.5588	59.947
2.5575	60.022
2.5563	60.078
2.5550	60.107
2.5538	60.110
2.5525	60.094
2.5513	60.073
2.5500	60.058
2.5487	60.053
2.5475	60.059
2.5462	60.071
2.5450	60.086
2.5437	60.100
2.5425	60.111
2.5413	60.119
2.5400	60.124
2.5388	60.125
2.5375	60.124
2.5363	60.121
2.5350	60.118
2.5338	60.116
2.5326	60.115
2.5313	60.114
2.5301	60.111
2.5289	60.106
2.5276	60.100
2.5264	60.093
2.5252	60.089
2.5239	60.088
2.5227	60.091
2.5215	60.096
2.5202	60.100
2.5190	60.100
2.5178	60.097
2.5166	60.091
2.5154	60.085
2.5141	60.083
2.5129	60.088
2.5117	60.097
2.5105	60.109
2.5093	60.120
2.5081	60.127
2.5068	60.126
2.5056	60.118
2.5044	60.104
2.5032	60.090
2.5020	60.079
2.5008	60.076
2.4996	60.080
2.4984	60.091
2.4972	60.105
2.4960	60.117
2.4948	60.125
2.4936	60.128
2.4924	60.127
2.4912	60.124
2.4900	60.121
2.4888	60.123
2.4876	60.127
2.4864	60.136
2.4852	60.145
2.4840	60.154
2.4828	60.161
2.4816	60.166
2.4805	60.169
2.4793	60.171
2.4781	60.174
2.4769	60.177
2.4757	60.182
2.4745	60.190
2.4734	60.202
2.4722	60.217
2.4710	60.236
2.4698	60.256
2.4686	60.277
2.4675	60.295
2.4663	60.311
2.4651	60.321
2.4640	60.328
2.4628	60.331
2.4616	60.332
2.4604	60.331
2.4593	60.330
2.4581	60.330
2.4569	60.331
2.4558	60.335
2.4546	60.341
2.4535	60.350
2.4523	60.361
2.4511	60.375
2.4500	60.389
2.4488	60.400
2.4477	60.405
2.4465	60.400
2.4454	60.383
2.4442	60.355
2.4431	60.319
2.4419	60.282
2.4408	60.248
2.4396	60.221
2.4385	60.202
2.4373	60.189
2.4362	60.178
2.4350	60.163
2.4339	60.142
2.4327	60.114
2.4316	60.079
2.4305	60.038
2.4293	59.992
2.4282	59.941
2.4270	59.888
2.4259	59.832
2.4248	59.775
2.4236	59.718
2.4225	59.661
2.4214	59.602
2.4202	59.539
2.4191	59.470
2.4180	59.394
2.4169	59.310
2.4157	59.221
2.4146	59.129
2.4135	59.039
2.4124	58.953
2.4112	58.871
2.4101	58.794
2.4090	58.717
2.4079	58.640
2.4068	58.559
2.4056	58.477
2.4045	58.396
2.4034	58.320
2.4023	58.251
2.4012	58.191
2.4001	58.139
2.3990	58.095
2.3979	58.057
2.3967	58.026
2.3956	58.004
2.3945	57.992
2.3934	57.991
2.3923	57.999
2.3912	58.016
2.3901	58.038
2.3890	58.064
2.3879	58.095
2.3868	58.131
2.3857	58.175
2.3846	58.228
2.3835	58.288
2.3824	58.355
2.3813	58.425
2.3802	58.493
2.3791	58.557
2.3781	58.615
2.3770	58.668
2.3759	58.718
2.3748	58.767
2.3737	58.817
2.3726	58.865
2.3715	58.908
2.3704	58.941
2.3694	58.960
2.3683	58.961
2.3672	58.943
2.3661	58.907
2.3650	58.855
2.3640	58.793
2.3629	58.724
2.3618	58.653
2.3607	58.581
2.3597	58.507
2.3586	58.426
2.3575	58.335
2.3564	58.232
2.3554	58.119
2.3543	57.997
2.3532	57.874
2.3522	57.753
2.3511	57.638
2.3500	57.528
2.3490	57.421
2.3479	57.318
2.3468	57.217
2.3458	57.122
2.3447	57.035
2.3436	56.959
2.3426	56.893
2.3415	56.838
2.3405	56.792
2.3394	56.753
2.3384	56.720
2.3373	56.694
2.3363	56.674
2.3352	56.660
2.3342	56.651
2.3331	56.647
2.3321	56.644
2.3310	56.643
2.3300	56.643
2.3289	56.644
2.3279	56.647
2.3268	56.653
2.3258	56.663
2.3247	56.674
2.3237	56.688
2.3226	56.701
2.3216	56.715
2.3206	56.732
2.3195	56.756
2.3185	56.788
2.3175	56.830
2.3164	56.880
2.3154	56.936
2.3144	56.995
2.3133	57.052
2.3123	57.107
2.3113	57.161
2.3102	57.216
2.3092	57.274
2.3082	57.336
2.3071	57.402
2.3061	57.471
2.3051	57.542
2.3041	57.612
2.3030	57.686
2.3020	57.763
2.3010	57.849
2.3000	57.947
2.2990	58.062
2.2979	58.194
2.2969	58.344
2.2959	58.510
2.2949	58.687
2.2939	58.872
2.2929	59.063
2.2918	59.255
2.2908	59.447
2.2898	59.639
2.2888	59.828
2.2878	60.017
2.2868	60.204
2.2858	60.388
2.2848	60.564
2.2838	60.728
2.2828	60.876
2.2818	61.003
2.2808	61.110
2.2798	61.201
2.2787	61.280
2.2777	61.352
2.2767	61.421
2.2757	61.485
2.2747	61.542
2.2738	61.588
2.2728	61.620
2.2718	61.640
2.2708	61.650
2.2698	61.654
2.2688	61.654
2.2678	61.654
2.2668	61.650
2.2658	61.639
2.2648	61.618
2.2638	61.586
2.2628	61.544
2.2618	61.497
2.2609	61.452
2.2599	61.416
2.2589	61.392
2.2579	61.380
2.2569	61.377
2.2559	61.379
2.2550	61.380
2.2540	61.381
2.2530	61.384
2.2520	61.395
2.2510	61.418
2.2501	61.454
2.2491	61.502
2.2481	61.557
2.2471	61.614
2.2462	61.669
2.2452	61.721
2.2442	61.772
2.2433	61.824
2.2423	61.877
2.2413	61.929
2.2403	61.977
2.2394	62.016
2.2384	62.044
2.2374	62.061
2.2365	62.071
2.2355	62.076
2.2345	62.084
2.2336	62.094
2.2326	62.107
2.2317	62.123
2.2307	62.140
2.2297	62.157
2.2288	62.173
2.2278	62.185
2.2269	62.192
2.2259	62.193
2.2250	62.187
2.2240	62.176
2.2231	62.165
2.2221	62.156
2.2211	62.153
2.2202	62.156
2.2192	62.164
2.2183	62.172
2.2173	62.175
2.2164	62.170
2.2155	62.155
2.2145	62.131
2.2136	62.099
2.2126	62.064
2.2117	62.028
2.2107	61.997
2.2098	61.973
2.2088	61.959
2.2079	61.955
2.2070	61.959
2.2060	61.967
2.2051	61.977
2.2041	61.986
2.2032	61.991
2.2023	61.995
2.2013	61.997
2.2004	62.000
2.1995	62.006
2.1985	62.019
2.1976	62.040
2.1967	62.071
2.1957	62.109
2.1948	62.150
2.1939	62.189
2.1930	62.217
2.1920	62.228
2.1911	62.220
2.1902	62.193
2.1893	62.155
2.1883	62.117
2.1874	62.091
2.1865	62.083
2.1856	62.098
2.1846	62.132
2.1837	62.176
2.1828	62.222
2.1819	62.261
2.1810	62.288
2.1800	62.302
2.1791	62.308
2.1782	62.311
2.1773	62.315
2.1764	62.324
2.1755	62.335
2.1746	62.346
2.1736	62.354
2.1727	62.354
2.1718	62.347
2.1709	62.333
2.1700	62.316
2.1691	62.302
2.1682	62.297
2.1673	62.305
2.1664	62.325
2.1655	62.354
2.1646	62.386
2.1637	62.411
2.1628	62.421
2.1619	62.411
2.1610	62.382
2.1601	62.341
2.1592	62.300
2.1583	62.268
2.1574	62.255
2.1565	62.263
2.1556	62.286
2.1547	62.317
2.1538	62.343
2.1529	62.358
2.1520	62.355
2.1511	62.339
2.1502	62.314
2.1493	62.286
2.1484	62.261
2.1475	62.241
2.1466	62.228
2.1458	62.219
2.1449	62.215
2.1440	62.213
2.1431	62.214
2.1422	62.218
2.1413	62.221
2.1404	62.223
2.1396	62.220
2.1387	62.212
2.1378	62.200
2.1369	62.186
2.1360	62.174
2.1352	62.165
2.1343	62.159
2.1334	62.153
2.1325	62.146
2.1316	62.137
2.1308	62.127
2.1299	62.120
2.1290	62.119
2.1281	62.125
2.1273	62.136
2.1264	62.147
2.1255	62.155
2.1247	62.158
2.1238	62.156
2.1229	62.153
2.1220	62.155
2.1212	62.164
2.1203	62.180
2.1194	62.199
2.1186	62.216
2.1177	62.225
2.1168	62.224
2.1160	62.211
2.1151	62.191
2.1143	62.166
2.1134	62.140
2.1125	62.117
2.1117	62.098
2.1108	62.088
2.1100	62.085
2.1091	62.090
2.1082	62.102
2.1074	62.116
2.1065	62.129
2.1057	62.134
2.1048	62.130
2.1040	62.117
2.1031	62.098
2.1023	62.078
2.1014	62.062
2.1005	62.054
2.0997	62.054
2.0988	62.063
2.0980	62.079
2.0971	62.099
2.0963	62.121
2.0955	62.142
2.0946	62.160
2.0938	62.173
2.0929	62.181
2.0921	62.184
2.0912	62.181
2.0904	62.170
2.0895	62.151
2.0887	62.120
2.0879	62.082
2.0870	62.040
2.0862	62.005
2.0853	61.996
2.0845	62.000
2.0837	62.054
2.0828	62.142
2.0820	62.168
2.0812	62.351
2.0803	62.326
2.0795	62.189
2.0760	62.189
2.0720	61.809
2.0680	61.562
2.0640	61.372
2.0600	61.126
2.0560	61.183
2.0520	61.410
2.0480	61.332
2.0440	60.898
2.0400	60.747
2.0360	60.484
2.0320	60.204
2.0280	59.944
2.0240	59.626
2.0200	59.643
2.0160	59.494
2.0120	59.050
2.0080	58.941
2.0040	58.183
2.0000	57.758
1.9960	57.599
1.9920	57.652
1.9880	57.361
1.9840	57.361
1.9800	57.072
1.9760	56.639
1.9720	56.495
1.9680	55.984
1.9640	55.607
1.9600	55.667
1.9560	55.718
1.9520	55.575
1.9480	55.617
1.9440	55.433
1.9400	55.115
1.9360	54.763
1.9320	54.495
1.9280	54.288
1.9240	54.345
1.9200	54.439
1.9160	53.922
1.9120	54.015
1.9080	53.829
1.9040	53.568
1.9000	53.459
1.8960	53.704
1.8920	54.097
1.8880	54.503
1.8840	54.398
1.8800	54.502
1.8760	54.357
1.8720	54.401
1.8680	54.501
1.8640	55.091
1.8600	55.556
1.8560	55.047
1.8520	54.767
1.8480	54.371
1.8440	54.217
1.8400	54.528
1.8360	54.586
1.8320	54.571
1.8280	54.435
1.8240	54.406
1.8200	53.886
1.8160	54.018
1.8120	53.874
1.8080	53.647
1.8040	53.521
1.8000	53.252
1.7960	53.015
1.7920	52.841
1.7880	52.888
1.7840	52.978
1.7800	52.982
1.7760	52.888
1.7720	52.615
1.7680	52.559
1.7640	52.470
1.7600	52.300
1.7560	52.076
1.7520	52.115
1.7480	51.756
1.7440	51.270
1.7400	51.272
1.7360	51.685
1.7320	51.644
1.7280	51.646
1.7240	51.375
1.7200	51.373
1.7160	51.323
1.7120	51.459
1.7080	51.107
1.7040	50.961
1.7000	50.389
1.6960	50.433
1.6920	50.210
1.6880	50.210
1.6840	49.634
1.6800	49.888
1.6760	49.932
1.6720	49.763
1.6680	49.317
1.6640	49.182
1.6600	49.047
1.6560	48.960
1.6520	48.655
1.6480	48.428
1.6440	48.638
1.6400	48.286
1.6360	48.107
1.6320	48.236
1.6280	47.970
1.6240	47.616
1.6200	47.532
1.6160	47.541
1.6120	47.232
1.6080	47.306
1.6040	47.248
1.6000	47.021
1.5960	46.537
1.5920	46.662
1.5880	46.620
1.5840	46.662
1.5800	46.740
1.5760	46.404
1.5720	46.141
1.5680	45.977
1.5640	45.514
1.5600	45.047
1.5560	44.791
1.5520	44.772
1.5480	44.753
1.5440	44.624
1.5400	44.073
1.5360	44.247
1.5320	44.008
1.5280	43.868
1.5240	43.661
1.5200	43.328
1.5160	43.162
1.5120	43.188
1.5080	43.447
1.5040	43.321
1.5000	43.077
1.4960	42.881
1.4920	42.057
1.4880	41.906
1.4840	41.832
1.4800	41.594
1.4760	41.253
1.4720	41.038
1.4680	41.301
1.4640	41.179
1.4600	41.031
1.4560	40.905
1.4520	40.437
1.4480	39.882
1.4440	39.667
1.4400	39.405
1.4360	39.205
1.4320	39.185
1.4280	38.935
1.4240	38.740
1.4200	38.525
1.4160	37.987
1.4120	37.527
1.4080	37.394
1.4040	37.200
1.4000	36.844
1.3960	36.604
1.3920	36.379
1.3880	36.091
1.3840	36.329
1.3800	36.363
1.3760	36.255
1.3720	36.157
1.3680	36.020
1.3640	35.706
1.3600	35.641
1.3560	35.485
1.3520	35.365
1.3480	34.917
1.3440	34.854
1.3400	34.346
1.3360	34.141
1.3320	33.967
1.3280	33.849
1.3240	33.532
1.3200	33.373
1.3160	32.996
1.3120	32.877
1.3080	32.520
1.3040	32.194
1.3000	31.927
1.2960	31.749
1.2920	31.566
1.2880	31.354
1.2840	31.135
1.2800	30.971
1.2760	30.686
1.2720	30.413
1.2680	30.223
1.2640	30.104
1.2600	30.012
1.2560	29.593
1.2520	29.502
1.2480	29.384
1.2440	28.862
1.2400	28.598
1.2360	28.262
1.2320	28.106
1.2280	28.026
1.2240	27.743
1.2200	27.446
1.2160	27.405
1.2120	27.240
1.2080	26.960
1.2040	26.599
1.2000	26.509
1.1960	26.223
1.1920	26.062
1.1880	25.697
1.1840	25.585
1.1800	25.382
1.1760	25.135
1.1720	25.001
1.1680	24.733
1.1640	24.474
1.1600	24.351
1.1560	24.281
1.1520	23.926
1.1480	23.935
1.1440	23.866
1.1400	23.706
1.1360	23.378
1.1320	23.225
1.1280	22.884
1.1240	22.946
1.1200	22.864
1.1160	22.703
1.1120	22.644
1.1080	22.533
1.1040	22.360
1.1000	22.110
1.0960	22.148
1.0920	21.847
1.0880	21.906
1.0840	21.935
1.0800	21.627
1.0760	21.504
1.0720	21.254
1.0680	21.003
1.0640	20.672
1.0600	20.747
1.0560	20.419
1.0520	20.472
1.0480	20.313
1.0440	20.260
1.0400	20.261
1.0360	20.262
1.0320	20.171
1.0280	20.098
1.0240	19.953
1.0200	19.772
1.0160	19.790
1.0120	19.305
1.0080	19.375
1.0040	19.319
1.0000	19.232
0.99600	19.133
0.99200	18.615
0.98800	18.500
0.98400	18.631
0.98000	18.463
0.97600	18.321
0.97200	18.092
0.96800	18.067
0.96400	17.952
0.96000	17.796
0.95600	17.632
0.95200	17.403
0.94800	17.223
0.94400	17.223
0.94000	17.102
0.93600	16.981
0.93200	16.816
0.92800	16.635
0.92400	16.641
0.92000	16.457
0.91600	16.343
0.91200	16.149
0.90800	16.268
0.90400	16.149
0.90000	16.179
0.89600	16.075
0.89200	15.985
0.88800	16.000
0.88400	15.850
0.88000	15.841
0.87600	15.885
0.87200	15.897
0.86800	15.868
0.86400	15.822
0.86000	16.015
0.85600	15.895
0.85200	15.910
0.84800	15.833
0.84400	15.772
0.84000	15.772
0.83600	15.846
0.83200	15.638
0.82800	15.623
0.82400	15.579
0.82000	15.758
0.81600	15.545
0.81200	15.293
0.80800	15.141
0.80400	15.203
0.80000	15.341
0.79900	15.341
0.79800	15.341
0.79700	15.224
0.79600	15.167
0.79500	15.069
0.79400	15.047
0.79300	15.030
0.79200	14.952
0.79100	15.027
0.79000	15.067
0.78900	14.952
0.78800	14.719
0.78700	14.641
0.78600	14.583
0.78500	14.660
0.78400	14.755
0.78300	14.658
0.78200	14.371
0.78100	14.464
0.78000	14.560
0.77900	14.423
0.77800	14.580
0.77700	14.347
0.77600	14.196
0.77500	14.155
0.77400	14.155
0.77300	14.058
0.77200	14.133
0.77100	13.943
0.77000	13.891
0.76900	13.851
0.76800	14.036
0.76700	14.149
0.76600	13.858
0.76500	13.765
0.76400	14.165
0.76300	13.839
0.76200	13.611
0.76100	13.931
0.76000	13.687
0.75900	13.535
0.75800	13.535
0.75700	13.438
0.75600	13.511
0.75500	13.585
0.75400	13.793
0.75300	13.263
0.75200	13.475
0.75100	13.184
0.75000	13.245
0.74900	13.511
0.74800	13.220
0.74700	13.220
0.74600	13.088
0.74500	13.026
0.74400	13.099
0.74300	12.824
0.74200	13.081
0.74100	13.377
0.74000	13.086
0.73900	13.001
0.73800	12.806
0.73700	12.639
0.73600	12.870
0.73500	12.639
0.73400	12.806
0.73300	12.880
0.73200	13.011
0.73100	12.709
0.73000	12.659
0.72900	12.668
0.72800	12.721
0.72700	12.704
0.72600	12.855
0.72500	12.757
0.72400	12.491
0.72300	12.394
0.72200	12.533
0.72100	12.412
0.72000	12.308
0.71900	12.901
0.71800	12.722
0.71700	12.801
0.71600	12.631
0.71500	12.524
0.71400	12.329
0.71300	12.171
0.71200	12.380
0.71100	12.417
0.71000	12.586
0.70900	12.435
0.70800	12.372
0.70700	12.364
0.70600	12.302
0.70500	12.319
0.70400	12.372
0.70300	12.415
0.70200	12.415
0.70100	12.223
0.70000	12.407
0.69900	12.667
0.69800	11.884
0.69700	12.067
0.69600	11.896
0.69500	11.831
0.69400	11.731
0.69300	11.814
0.69200	11.861
0.69100	11.931
0.69000	12.114
0.68900	12.167
0.68800	12.032
0.68700	11.931
0.68600	11.931
0.68500	11.967
0.68400	11.831
0.68300	11.831
0.68200	11.814
0.68100	11.914
0.68000	11.967
0.67900	11.985
0.67800	11.967
0.67700	11.731
0.67600	11.831
0.67500	11.985
0.67400	11.985
0.67300	12.085
0.67200	11.914
0.67100	12.020
0.67000	12.103
0.66900	12.121
0.66800	11.901
0.66700	11.901
0.66600	11.985
0.66500	11.866
0.66400	11.714
0.66300	11.696
0.66200	11.853
0.66100	11.853
0.66000	11.920
0.65900	12.010
0.65800	12.111
0.65700	12.074
0.65600	11.985
0.65500	11.902
0.65400	11.867
0.65300	11.932
0.65200	11.731
0.65100	11.796
0.65000	11.761
0.64900	11.610
0.64800	11.709
0.64700	11.901
0.64600	12.212
0.64500	12.110
0.64400	12.212
0.64300	12.176
0.64200	12.085
0.64100	11.967
0.64000	12.194
0.63900	12.361
0.63800	12.103
0.63700	11.914
0.63600	11.761
0.63500	11.814
0.63400	11.931
0.63300	11.914
0.63200	11.996
0.63100	12.185
0.63000	12.232
0.62900	12.096
0.62800	11.879
0.62700	11.978
0.62600	11.996
0.62500	12.085
0.62400	12.067
0.62300	12.014
0.62200	11.978
0.62100	12.159
0.62000	12.204
0.61900	12.331
0.61800	12.424
0.61700	12.368
0.61600	12.313
0.61500	12.277
0.61400	12.204
0.61300	12.132
0.61200	12.277
0.61100	12.313
0.61000	12.295
0.60900	12.377
0.60800	12.359
0.60700	12.257
0.60600	12.192
0.60500	12.276
0.60400	12.276
0.60300	12.313
0.60200	12.368
0.60100	12.357
0.60000	12.365
0.59900	12.421
0.59800	12.486
0.59700	12.580
0.59600	12.637
0.59500	12.470
0.59400	12.421
0.59300	12.571
0.59200	12.744
0.59100	12.621
0.59000	12.721
0.58900	12.668
0.58800	12.744
0.58700	12.706
0.58600	12.744
0.58500	12.836
0.58400	12.589
0.58300	12.732
0.58200	12.832
0.58100	12.608
0.58000	12.771
0.57900	12.809
0.57800	12.996
0.57700	12.919
0.57600	12.919
0.57500	13.041
0.57400	13.105
0.57300	12.987
0.57200	13.122
0.57100	12.996
0.57000	12.920
0.56900	12.799
0.56800	13.103
0.56700	12.874
0.56600	12.996
0.56500	12.977
0.56400	12.939
0.56300	12.913
0.56200	12.894
0.56100	12.894
0.56000	13.178
0.55900	12.945
0.55800	12.337
0.55700	12.694
0.55600	12.561
0.55500	12.624
0.55400	12.659
0.55300	12.757
0.55200	12.614
0.55100	12.668
0.55000	12.525
0.54900	12.732
0.54800	12.623
0.54700	12.605
0.54600	12.696
0.54500	12.632
0.54400	12.659
0.54300	12.769
0.54200	12.888
0.54100	12.687
0.54000	12.787
0.53900	12.815
0.53800	12.936
0.53700	12.879
0.53600	12.879
0.53500	12.861
0.53400	12.898
0.53300	12.714
0.53200	12.587
0.53100	12.470
0.53000	12.506
0.52900	12.396
0.52800	12.503
0.52700	12.284
0.52600	12.183
0.52500	12.184
0.52400	12.320
0.52300	12.266
0.52200	12.687
0.52100	12.668
0.52000	12.272
0.51900	12.153
0.51800	12.201
0.51700	12.219
0.51600	12.302
0.51500	12.355
0.51400	12.100
0.51300	12.118
0.51200	12.014
0.51100	11.997
0.51000	12.066
0.50900	12.031
0.50800	12.017
0.50700	12.122
0.50600	12.002
0.50500	11.950
0.50400	11.985
0.50300	12.071
0.50200	12.003
0.50100	11.973
0.50000	12.090
0.49900	11.715
0.49800	11.648
0.49700	11.665
0.49600	11.497
0.49500	11.547
0.49400	11.614
0.49300	11.564
0.49200	11.547
0.49100	11.632
0.49000	11.547
0.48900	11.444
0.48800	11.358
0.48700	11.361
0.48600	11.292
0.48500	11.034
0.48400	11.341
0.48300	11.391
0.48200	11.207
0.48100	11.207
0.48000	11.044
0.47900	11.076
0.47800	11.125
0.47700	10.948
0.47600	11.012
0.47500	10.777
0.47400	10.872
0.47300	10.736
0.47200	10.704
0.47100	10.658
0.47000	10.556
0.46900	10.449
0.46800	10.439
0.46700	10.276
0.46600	10.291
0.46500	10.261
0.46400	10.351
0.46300	10.265
0.46200	10.310
0.46100	10.132
0.46000	9.6522
0.45900	9.6753
0.45800	9.8649
0.45700	9.9081
0.45600	9.8340
0.45500	9.7909
0.45400	9.6713
0.45300	9.6175
0.45200	9.5686
0.45100	9.6152
0.45000	9.7881
0.44900	9.7277
0.44800	9.4770
0.44700	9.3879
0.44600	9.2599
0.44500	9.1528
0.44400	9.2599
0.44300	8.9386
0.44200	8.8822
0.44100	9.1928
0.44000	8.6658
0.43900	8.7950
0.43800	8.8462
0.43700	8.7245
0.43600	8.8333
0.43500	9.0681
0.43400	8.7496
0.43300	8.6279
0.43200	8.6403
0.43100	8.5727
0.43000	8.7025
0.42900	8.5234
0.42800	8.4869
0.42700	8.4023
0.42600	8.3578
0.42500	8.1147
0.42400	8.0328
0.42300	8.1017
0.42200	7.7963
0.42100	7.6008
0.42000	7.8979
0.41900	7.7287
0.41800	7.6846
0.41700	7.5246
0.41600	7.4139
0.41500	7.5141
0.41400	7.4509
0.41300	7.2985
0.41200	7.1264
0.41100	7.0775
0.41000	6.8619
0.40900	7.0014
0.40800	7.0305
0.40700	7.0402
0.40600	7.0532
0.40500	6.9281
0.40400	6.9566
0.40300	6.8504
0.40200	6.8598
0.40100	6.7744
0.40000	6.8882
