Name: Granodiorite
Type: Rocks
Class: Igneous
Subclass: Intermediate
Particle Size: 0-75 micrometers
Sample No.: Granodior.H1
Owner: JHU
Wavelength range: All
Origin: St. Cloud, Stearns County, Minnesota, via Ward's Scientific (Cat. 
No. W-7)
Description: Powder derived from a dark gray medium-grained rock 
consisting of gray plagioclase, pinkish potash feldspar, quartz, biotite, 
scattered sulfides, and a black mafic phase.



Measurement: Directional (10 degree) hemispherical reflectance
First Column: X
Second Column: Y
X Units: Wavelength (micrometers)
Y Units: Reflectance (percent)
First X Value: 14.0112
Last X Value: 0.4000
Number of X Values: 2844
Additional information: gradio1a.txt

14.011	2.2500
13.973	1.2975
13.936	0.6675
13.899	2.2987
13.861	0.3169
13.824	0.4950
13.788	0.0000
13.751	0.0000
13.715	1.7025
13.679	1.9519
13.643	1.6088
13.607	1.7756
13.571	1.4138
13.536	1.7400
13.500	1.6284
13.465	1.6050
13.430	1.3912
13.396	1.3247
13.361	1.2872
13.327	1.2010
13.293	1.5413
13.259	1.5000
13.225	1.3284
13.191	1.3210
13.158	1.2206
13.124	1.3706
13.091	1.2103
13.058	1.2660
13.026	1.4400
12.993	1.2637
12.960	1.1499
12.928	1.1700
12.896	1.2979
12.864	1.6379
12.832	1.6528
12.800	1.4100
12.769	1.4147
12.737	1.4625
12.706	1.2647
12.675	1.1358
12.644	1.2450
12.614	1.3735
12.583	1.4109
12.552	1.4555
12.522	1.7901
12.492	1.9735
12.462	2.1059
12.432	2.2659
12.402	2.3140
12.373	2.2650
12.343	2.2971
12.314	2.5193
12.285	2.7225
12.256	2.9629
12.227	3.2740
12.198	3.4735
12.169	3.7294
12.141	4.0950
12.113	4.1667
12.084	4.2780
12.056	4.5304
12.028	4.5574
12.000	4.5703
11.973	4.6099
11.945	4.7203
11.918	4.7737
11.890	4.7439
11.863	4.7749
11.836	4.6683
11.809	4.6636
11.782	4.6673
11.755	4.5689
11.729	4.5155
11.702	4.5576
11.676	4.5774
11.650	4.5228
11.624	4.4857
11.598	4.4076
11.572	4.4896
11.546	4.6120
11.520	4.4545
11.495	4.3475
11.469	4.3915
11.444	4.4548
11.419	4.3982
11.394	4.3406
11.369	4.2996
11.344	4.3277
11.319	4.3547
11.294	4.2811
11.270	4.1592
11.245	4.1203
11.221	4.0603
11.197	3.9732
11.173	3.8639
11.149	3.7982
11.125	3.6572
11.101	3.6080
11.077	3.5330
11.054	3.4575
11.030	3.4210
11.007	3.3049
10.983	3.2200
10.960	3.2330
10.937	3.2597
10.914	3.2433
10.891	3.1725
10.868	3.0797
10.846	2.9616
10.823	2.9686
10.800	2.9696
10.778	2.9025
10.755	2.8575
10.733	2.8860
10.711	2.8533
10.689	2.7862
10.667	2.7867
10.645	2.7891
10.623	2.8355
10.602	2.8205
10.580	2.7539
10.558	2.7490
10.537	2.7436
10.516	2.7371
10.494	2.7307
10.473	2.6914
10.452	2.6649
10.431	2.6958
10.410	2.7108
10.389	2.7070
10.368	2.6592
10.348	2.6475
10.327	2.6667
10.306	2.7028
10.286	2.7098
10.266	2.6559
10.245	2.6356
10.225	2.6981
10.205	2.7178
10.185	2.7379
10.165	2.7750
10.145	2.7902
10.125	2.8210
10.106	2.8491
10.086	2.8697
10.066	2.8974
10.047	2.8818
10.027	2.8865
10.008	2.9121
9.9887	2.9667
9.9695	3.0211
9.9504	3.1026
9.9313	3.1500
9.9123	3.1374
9.8934	3.0872
9.8746	3.0896
9.8558	3.1280
9.8371	3.1374
9.8185	3.0829
9.7999	3.0966
9.7814	3.1218
9.7630	3.0249
9.7447	3.0028
9.7264	3.0206
9.7082	3.0237
9.6900	3.0296
9.6719	3.0300
9.6539	3.0220
9.6360	3.0103
9.6181	3.0108
9.6003	2.9852
9.5825	3.0314
9.5649	3.0618
9.5472	3.0080
9.5297	2.9341
9.5122	2.9578
9.4948	3.0174
9.4774	3.0249
9.4601	3.0216
9.4429	2.9888
9.4257	2.9616
9.4086	3.0132
9.3916	3.1294
9.3746	3.2836
9.3577	3.4193
9.3408	3.4650
9.3240	3.5161
9.3073	3.5792
9.2906	3.5719
9.2740	3.5817
9.2574	3.6159
9.2409	3.6054
9.2245	3.5503
9.2081	3.5067
9.1918	3.5119
9.1755	3.4514
9.1593	3.3689
9.1431	3.3670
9.1270	3.3928
9.1110	3.4120
9.0950	3.3504
9.0791	3.3073
9.0632	3.2885
9.0474	3.2864
9.0316	3.2367
9.0159	3.1948
9.0003	3.2644
8.9847	3.3249
8.9691	3.2672
8.9536	3.2220
8.9382	3.2221
8.9228	3.2226
8.9075	3.2532
8.8922	3.2423
8.8770	3.1985
8.8618	3.1889
8.8467	3.2128
8.8316	3.2395
8.8166	3.2644
8.8016	3.2364
8.7867	3.2576
8.7718	3.3249
8.7570	3.3298
8.7422	3.3244
8.7275	3.2888
8.7129	3.2709
8.6982	3.2890
8.6837	3.2171
8.6692	3.1481
8.6547	3.0878
8.6403	2.9756
8.6259	2.9779
8.6116	3.0652
8.5973	3.2175
8.5830	3.3797
8.5688	3.4678
8.5547	3.4891
8.5406	3.5156
8.5266	3.5454
8.5126	3.5855
8.4986	3.6421
8.4847	3.6680
8.4708	3.6792
8.4570	3.7345
8.4432	3.7790
8.4295	3.7865
8.4158	3.7650
8.4022	3.7594
8.3886	3.8320
8.3750	3.8836
8.3615	3.8883
8.3481	3.9563
8.3347	4.0226
8.3213	4.0420
8.3079	4.0500
8.2946	4.0549
8.2814	4.0641
8.2682	4.0896
8.2550	4.0924
8.2419	4.1100
8.2288	4.1582
8.2158	4.1437
8.2028	4.0982
8.1898	4.0737
8.1769	4.0109
8.1640	3.9110
8.1512	3.7467
8.1384	3.5943
8.1256	3.4706
8.1129	3.3021
8.1002	3.1432
8.0876	3.0140
8.0750	2.8959
8.0624	2.7715
8.0499	2.6367
8.0374	2.5730
8.0250	2.4945
8.0126	2.3897
8.0002	2.2676
7.9879	2.1347
7.9756	2.1063
7.9634	2.0660
7.9512	1.9860
7.9390	1.9270
7.9268	1.8761
7.9147	1.7998
7.9027	1.7194
7.8906	1.7096
7.8786	1.7112
7.8667	1.6566
7.8548	1.5984
7.8429	1.5930
7.8310	1.5753
7.8192	1.6190
7.8075	1.6221
7.7957	1.6026
7.7840	1.6439
7.7723	1.6758
7.7607	1.6795
7.7491	1.7028
7.7375	1.7299
7.7260	1.7484
7.7145	1.7702
7.7031	1.8033
7.6916	1.8436
7.6802	1.8612
7.6689	1.8485
7.6575	1.8766
7.6462	1.9146
7.6350	1.9402
7.6238	1.9680
7.6126	2.0221
7.6014	2.0742
7.5903	2.0897
7.5792	2.1403
7.5681	2.2130
7.5571	2.2496
7.5461	2.3072
7.5351	2.3779
7.5242	2.4330
7.5133	2.4564
7.5024	2.4876
7.4916	2.5478
7.4807	2.6046
7.4700	2.6306
7.4592	2.6824
7.4485	2.7785
7.4378	2.8509
7.4272	2.8940
7.4165	2.9397
7.4059	2.9761
7.3954	3.0703
7.3848	3.1404
7.3743	3.1722
7.3639	3.2301
7.3534	3.3354
7.3430	3.4045
7.3326	3.4282
7.3223	3.4774
7.3119	3.5876
7.3016	3.6766
7.2914	3.7404
7.2811	3.8348
7.2709	3.9581
7.2607	4.0282
7.2506	4.1004
7.2404	4.2206
7.2303	4.3174
7.2203	4.3774
7.2102	4.4817
7.2002	4.5724
7.1902	4.6514
7.1803	4.7171
7.1703	4.8000
7.1604	4.8825
7.1506	4.9927
7.1407	5.0636
7.1309	5.1610
7.1211	5.3004
7.1113	5.4047
7.1016	5.4860
7.0919	5.5784
7.0822	5.6264
7.0725	5.6798
7.0629	5.7813
7.0533	5.8451
7.0437	5.8917
7.0341	5.9709
7.0246	6.0215
7.0151	6.1052
7.0056	6.1741
6.9962	6.2098
6.9867	6.2506
6.9773	6.3239
6.9679	6.3961
6.9586	6.4877
6.9493	6.5283
6.9400	6.5431
6.9307	6.6286
6.9214	6.7260
6.9122	6.7720
6.9030	6.8046
6.8938	6.8615
6.8847	6.9192
6.8755	6.9436
6.8664	7.0106
6.8573	7.0553
6.8483	7.0460
6.8393	7.0574
6.8302	7.1083
6.8213	7.1651
6.8123	7.1766
6.8034	7.1566
6.7944	7.2000
6.7855	7.2213
6.7767	7.1774
6.7678	7.2016
6.7590	7.2135
6.7502	7.2223
6.7414	7.2436
6.7327	7.2546
6.7239	7.2712
6.7152	7.3364
6.7065	7.3786
6.6979	7.4109
6.6892	7.4796
6.6806	7.5534
6.6720	7.6130
6.6634	7.6898
6.6549	7.7854
6.6464	7.8947
6.6378	7.9465
6.6294	7.9431
6.6209	7.9371
6.6124	7.9525
6.6040	7.9870
6.5956	8.0011
6.5872	8.0013
6.5789	8.0292
6.5705	8.0296
6.5622	7.9992
6.5539	7.9847
6.5456	8.0081
6.5374	8.0986
6.5292	8.2104
6.5209	8.3374
6.5128	8.4600
6.5046	8.6104
6.4964	8.7895
6.4883	8.9044
6.4802	8.9582
6.4721	9.0534
6.4640	9.1064
6.4560	9.1235
6.4480	9.1654
6.4399	9.2147
6.4320	9.2672
6.4240	9.2890
6.4160	9.2843
6.4081	9.2270
6.4002	9.1854
6.3923	9.1488
6.3844	9.0349
6.3766	8.9290
6.3687	8.8732
6.3609	8.7717
6.3531	8.6826
6.3454	8.6273
6.3376	8.5282
6.3299	8.4382
6.3221	8.3740
6.3144	8.2532
6.3068	8.1204
6.2991	8.0192
6.2914	7.9164
6.2838	7.7925
6.2762	7.6741
6.2686	7.5979
6.2611	7.5415
6.2535	7.4841
6.2460	7.4400
6.2385	7.3971
6.2310	7.3265
6.2235	7.2979
6.2160	7.2947
6.2086	7.2895
6.2011	7.2977
6.1937	7.3699
6.1863	7.4524
6.1790	7.5202
6.1716	7.6247
6.1643	7.7418
6.1570	7.8527
6.1496	7.9976
6.1424	8.1834
6.1351	8.3538
6.1278	8.4971
6.1206	8.6177
6.1134	8.7483
6.1062	8.8750
6.0990	8.9892
6.0918	9.0895
6.0847	9.1716
6.0776	9.2423
6.0704	9.3063
6.0633	9.3984
6.0563	9.5262
6.0492	9.5958
6.0421	9.5587
6.0351	9.5649
6.0281	9.5911
6.0211	9.6044
6.0141	9.5937
6.0071	9.6114
6.0002	9.6319
5.9932	9.5995
5.9863	9.5221
5.9794	9.5034
5.9725	9.4737
5.9657	9.3956
5.9588	9.3492
5.9520	9.3122
5.9451	9.2981
5.9383	9.3351
5.9315	9.3244
5.9247	9.3412
5.9180	9.4239
5.9112	9.5334
5.9045	9.6813
5.8978	9.8174
5.8911	9.9082
5.8844	10.009
5.8777	10.110
5.8711	10.185
5.8644	10.287
5.8578	10.378
5.8512	10.445
5.8446	10.522
5.8380	10.622
5.8314	10.691
5.8249	10.748
5.8184	10.816
5.8118	10.865
5.8053	10.904
5.7988	10.940
5.7923	10.979
5.7859	11.017
5.7794	11.068
5.7730	11.120
5.7666	11.139
5.7602	11.156
5.7538	11.217
5.7474	11.287
5.7410	11.287
5.7347	11.269
5.7283	11.290
5.7220	11.311
5.7157	11.325
5.7094	11.323
5.7031	11.313
5.6969	11.275
5.6906	11.229
5.6844	11.176
5.6782	11.126
5.6719	11.057
5.6657	10.989
5.6596	10.894
5.6534	10.771
5.6472	10.677
5.6411	10.614
5.6349	10.506
5.6288	10.428
5.6227	10.409
5.6166	10.417
5.6106	10.441
5.6045	10.435
5.5984	10.464
5.5924	10.489
5.5864	10.509
5.5804	10.584
5.5744	10.661
5.5684	10.703
5.5624	10.763
5.5564	10.871
5.5505	11.002
5.5445	11.135
5.5386	11.293
5.5327	11.491
5.5268	11.677
5.5209	11.880
5.5151	12.085
5.5092	12.270
5.5033	12.449
5.4975	12.651
5.4917	12.828
5.4859	12.965
5.4801	13.135
5.4743	13.247
5.4685	13.358
5.4628	13.517
5.4570	13.626
5.4513	13.715
5.4455	13.779
5.4398	13.792
5.4341	13.778
5.4284	13.771
5.4228	13.726
5.4171	13.631
5.4114	13.478
5.4058	13.303
5.4002	13.115
5.3945	12.875
5.3889	12.625
5.3833	12.421
5.3778	12.229
5.3722	12.019
5.3666	11.899
5.3611	11.871
5.3555	11.838
5.3500	11.790
5.3445	11.813
5.3390	11.897
5.3335	11.998
5.3280	12.079
5.3225	12.151
5.3171	12.230
5.3116	12.341
5.3062	12.468
5.3008	12.589
5.2954	12.696
5.2900	12.833
5.2846	13.004
5.2792	13.184
5.2738	13.365
5.2684	13.585
5.2631	13.836
5.2578	14.090
5.2524	14.320
5.2471	14.595
5.2418	14.894
5.2365	15.193
5.2312	15.546
5.2260	15.878
5.2207	16.159
5.2154	16.413
5.2102	16.633
5.2050	16.835
5.1998	17.018
5.1945	17.145
5.1893	17.215
5.1842	17.269
5.1790	17.328
5.1738	17.408
5.1686	17.495
5.1635	17.567
5.1584	17.630
5.1532	17.702
5.1481	17.744
5.1430	17.789
5.1379	17.869
5.1328	17.946
5.1277	18.049
5.1227	18.138
5.1176	18.233
5.1126	18.325
5.1075	18.392
5.1025	18.472
5.0975	18.520
5.0925	18.560
5.0875	18.566
5.0825	18.496
5.0775	18.446
5.0726	18.459
5.0676	18.490
5.0627	18.508
5.0577	18.541
5.0528	18.610
5.0479	18.647
5.0430	18.655
5.0380	18.701
5.0332	18.769
5.0283	18.770
5.0234	18.790
5.0185	18.838
5.0137	18.894
5.0088	18.948
5.0040	19.045
4.9992	19.183
4.9944	19.326
4.9896	19.475
4.9848	19.647
4.9800	19.849
4.9752	20.129
4.9704	20.448
4.9657	20.749
4.9609	21.005
4.9562	21.266
4.9514	21.480
4.9467	21.630
4.9420	21.776
4.9373	21.902
4.9326	22.014
4.9279	22.128
4.9232	22.286
4.9186	22.514
4.9139	22.778
4.9092	23.068
4.9046	23.388
4.9000	23.724
4.8953	24.101
4.8907	24.451
4.8861	24.754
4.8815	25.017
4.8769	25.222
4.8723	25.429
4.8678	25.619
4.8632	25.762
4.8586	25.921
4.8541	26.083
4.8495	26.206
4.8450	26.282
4.8405	26.371
4.8360	26.447
4.8315	26.500
4.8270	26.584
4.8225	26.657
4.8180	26.689
4.8135	26.728
4.8090	26.755
4.8046	26.773
4.8001	26.821
4.7957	26.893
4.7913	26.961
4.7868	27.003
4.7824	27.099
4.7780	27.214
4.7736	27.286
4.7692	27.341
4.7648	27.434
4.7605	27.541
4.7561	27.623
4.7517	27.683
4.7474	27.783
4.7431	27.875
4.7387	27.959
4.7344	28.037
4.7301	28.092
4.7258	28.166
4.7215	28.191
4.7172	28.196
4.7129	28.225
4.7086	28.268
4.7043	28.296
4.7000	28.317
4.6958	28.337
4.6915	28.337
4.6873	28.361
4.6831	28.376
4.6788	28.420
4.6746	28.501
4.6704	28.623
4.6662	28.739
4.6620	28.859
4.6578	28.991
4.6536	29.117
4.6495	29.235
4.6453	29.367
4.6411	29.491
4.6370	29.614
4.6328	29.769
4.6287	29.893
4.6246	30.040
4.6205	30.172
4.6163	30.257
4.6122	30.380
4.6081	30.567
4.6040	30.709
4.6000	30.781
4.5959	30.878
4.5918	31.016
4.5877	31.161
4.5837	31.266
4.5796	31.356
4.5756	31.455
4.5716	31.550
4.5675	31.652
4.5635	31.752
4.5595	31.857
4.5555	31.965
4.5515	32.055
4.5475	32.155
4.5435	32.257
4.5395	32.310
4.5356	32.303
4.5316	32.358
4.5276	32.424
4.5237	32.456
4.5197	32.480
4.5158	32.507
4.5119	32.533
4.5080	32.529
4.5040	32.528
4.5001	32.512
4.4962	32.535
4.4923	32.592
4.4884	32.612
4.4846	32.653
4.4807	32.694
4.4768	32.771
4.4730	32.853
4.4691	32.880
4.4652	32.939
4.4614	33.046
4.4576	33.149
4.4537	33.260
4.4499	33.374
4.4461	33.480
4.4423	33.587
4.4385	33.701
4.4347	33.784
4.4309	33.878
4.4271	33.995
4.4233	34.081
4.4196	34.192
4.4158	34.276
4.4120	34.386
4.4083	34.518
4.4045	34.599
4.4008	34.679
4.3971	34.766
4.3934	34.858
4.3896	34.990
4.3859	35.094
4.3822	35.184
4.3785	35.301
4.3748	35.404
4.3711	35.495
4.3674	35.602
4.3638	35.697
4.3601	35.804
4.3564	35.900
4.3528	35.944
4.3491	36.032
4.3455	36.123
4.3418	36.193
4.3382	36.253
4.3346	36.326
4.3310	36.378
4.3273	36.451
4.3237	36.509
4.3201	36.541
4.3165	36.567
4.3129	36.623
4.3094	36.687
4.3058	36.692
4.3022	36.694
4.2986	36.741
4.2951	36.777
4.2915	36.792
4.2880	36.818
4.2844	36.827
4.2809	36.888
4.2774	36.893
4.2738	36.915
4.2703	37.024
4.2668	37.089
4.2633	37.122
4.2598	37.167
4.2563	37.257
4.2528	37.319
4.2493	37.346
4.2458	37.366
4.2424	37.412
4.2389	37.439
4.2354	37.485
4.2320	37.522
4.2285	37.557
4.2251	37.599
4.2216	37.652
4.2182	37.694
4.2148	37.735
4.2113	37.789
4.2079	37.840
4.2045	37.849
4.2011	37.870
4.1977	37.908
4.1943	37.970
4.1909	37.993
4.1875	37.996
4.1841	38.037
4.1808	38.113
4.1774	38.144
4.1740	38.181
4.1707	38.214
4.1673	38.249
4.1640	38.264
4.1606	38.278
4.1573	38.305
4.1540	38.317
4.1506	38.344
4.1473	38.398
4.1440	38.431
4.1407	38.432
4.1374	38.458
4.1341	38.516
4.1308	38.524
4.1275	38.553
4.1242	38.574
4.1209	38.585
4.1177	38.661
4.1144	38.719
4.1111	38.725
4.1079	38.726
4.1046	38.728
4.1014	38.726
4.0981	38.766
4.0949	38.797
4.0917	38.764
4.0884	38.760
4.0852	38.803
4.0820	38.822
4.0788	38.822
4.0756	38.882
4.0724	38.938
4.0692	38.926
4.0660	38.906
4.0628	38.917
4.0596	38.970
4.0565	38.992
4.0533	38.984
4.0501	39.004
4.0470	39.025
4.0438	39.030
4.0406	39.033
4.0375	39.029
4.0344	39.007
4.0312	39.033
4.0281	39.058
4.0250	39.036
4.0218	39.025
4.0187	39.041
4.0156	39.037
4.0125	39.026
4.0094	38.986
4.0063	38.991
4.0032	39.037
4.0001	39.023
3.9970	38.995
3.9940	38.969
3.9909	38.954
3.9878	38.982
3.9847	38.975
3.9817	38.976
3.9786	39.016
3.9756	39.012
3.9725	39.013
3.9695	39.046
3.9665	39.032
3.9634	39.073
3.9604	39.120
3.9574	39.155
3.9544	39.174
3.9513	39.196
3.9483	39.222
3.9453	39.221
3.9423	39.242
3.9393	39.286
3.9363	39.294
3.9333	39.301
3.9304	39.337
3.9274	39.348
3.9244	39.344
3.9214	39.355
3.9185	39.367
3.9155	39.365
3.9126	39.393
3.9096	39.379
3.9067	39.339
3.9037	39.314
3.9008	39.329
3.8979	39.363
3.8949	39.346
3.8920	39.326
3.8891	39.349
3.8862	39.324
3.8833	39.303
3.8804	39.356
3.8775	39.338
3.8746	39.326
3.8717	39.329
3.8688	39.290
3.8659	39.276
3.8630	39.297
3.8601	39.340
3.8573	39.366
3.8544	39.348
3.8515	39.321
3.8487	39.319
3.8458	39.306
3.8430	39.313
3.8401	39.339
3.8373	39.329
3.8344	39.338
3.8316	39.344
3.8288	39.342
3.8259	39.337
3.8231	39.361
3.8203	39.371
3.8175	39.396
3.8147	39.425
3.8119	39.412
3.8091	39.387
3.8063	39.369
3.8035	39.360
3.8007	39.358
3.7979	39.371
3.7951	39.408
3.7924	39.390
3.7896	39.350
3.7868	39.354
3.7841	39.359
3.7813	39.355
3.7785	39.363
3.7758	39.361
3.7730	39.359
3.7703	39.340
3.7676	39.338
3.7648	39.315
3.7621	39.307
3.7594	39.314
3.7566	39.305
3.7539	39.282
3.7512	39.314
3.7485	39.297
3.7458	39.314
3.7431	39.293
3.7404	39.254
3.7377	39.265
3.7350	39.275
3.7323	39.236
3.7296	39.204
3.7269	39.231
3.7242	39.217
3.7216	39.214
3.7189	39.221
3.7162	39.215
3.7136	39.203
3.7109	39.200
3.7083	39.231
3.7056	39.219
3.7030	39.185
3.7003	39.166
3.6977	39.167
3.6950	39.186
3.6924	39.193
3.6898	39.198
3.6872	39.180
3.6845	39.157
3.6819	39.135
3.6793	39.159
3.6767	39.167
3.6741	39.115
3.6715	39.107
3.6689	39.132
3.6663	39.126
3.6637	39.120
3.6611	39.132
3.6585	39.132
3.6560	39.123
3.6534	39.106
3.6508	39.094
3.6482	39.092
3.6457	39.059
3.6431	39.030
3.6406	39.050
3.6380	39.056
3.6355	39.000
3.6329	38.976
3.6304	38.988
3.6278	38.995
3.6253	38.975
3.6227	38.933
3.6202	38.899
3.6177	38.875
3.6152	38.886
3.6127	38.879
3.6101	38.862
3.6076	38.886
3.6051	38.887
3.6026	38.861
3.6001	38.804
3.5976	38.788
3.5951	38.807
3.5926	38.787
3.5901	38.757
3.5876	38.729
3.5852	38.708
3.5827	38.702
3.5802	38.741
3.5777	38.704
3.5753	38.679
3.5728	38.652
3.5704	38.621
3.5679	38.595
3.5654	38.603
3.5630	38.586
3.5605	38.561
3.5581	38.543
3.5557	38.530
3.5532	38.495
3.5508	38.503
3.5484	38.494
3.5459	38.407
3.5435	38.378
3.5411	38.412
3.5387	38.420
3.5363	38.390
3.5338	38.346
3.5314	38.326
3.5290	38.330
3.5266	38.313
3.5242	38.281
3.5218	38.238
3.5195	38.224
3.5171	38.260
3.5147	38.222
3.5123	38.169
3.5099	38.193
3.5075	38.147
3.5052	38.095
3.5028	38.076
3.5004	38.042
3.4981	37.980
3.4957	37.970
3.4934	37.971
3.4910	37.953
3.4887	37.923
3.4863	37.899
3.4840	37.919
3.4816	37.879
3.4793	37.835
3.4770	37.780
3.4746	37.749
3.4723	37.719
3.4700	37.694
3.4677	37.663
3.4653	37.639
3.4630	37.626
3.4607	37.610
3.4584	37.579
3.4561	37.532
3.4538	37.477
3.4515	37.410
3.4492	37.395
3.4469	37.412
3.4446	37.367
3.4423	37.274
3.4400	37.253
3.4378	37.261
3.4355	37.258
3.4332	37.200
3.4309	37.125
3.4287	37.090
3.4264	37.010
3.4241	36.964
3.4219	36.943
3.4196	36.876
3.4174	36.822
3.4151	36.717
3.4129	36.671
3.4106	36.700
3.4084	36.667
3.4061	36.638
3.4039	36.582
3.4017	36.546
3.3994	36.516
3.3972	36.492
3.3950	36.473
3.3928	36.431
3.3906	36.398
3.3883	36.366
3.3861	36.288
3.3839	36.235
3.3817	36.226
3.3795	36.150
3.3773	36.140
3.3751	36.133
3.3729	36.050
3.3707	36.004
3.3685	35.953
3.3663	35.914
3.3641	35.894
3.3620	35.821
3.3598	35.785
3.3576	35.768
3.3554	35.688
3.3533	35.617
3.3511	35.552
3.3489	35.489
3.3468	35.420
3.3446	35.360
3.3425	35.322
3.3403	35.283
3.3382	35.252
3.3360	35.195
3.3339	35.131
3.3317	35.088
3.3296	35.002
3.3274	34.963
3.3253	34.919
3.3232	34.862
3.3210	34.818
3.3189	34.758
3.3168	34.708
3.3147	34.678
3.3126	34.639
3.3104	34.572
3.3083	34.534
3.3062	34.510
3.3041	34.493
3.3020	34.484
3.2999	34.414
3.2978	34.360
3.2957	34.323
3.2936	34.212
3.2915	34.149
3.2894	34.131
3.2874	34.071
3.2853	34.042
3.2832	34.042
3.2811	33.973
3.2790	33.844
3.2770	33.790
3.2749	33.786
3.2728	33.718
3.2708	33.572
3.2687	33.488
3.2666	33.489
3.2646	33.415
3.2625	33.322
3.2605	33.263
3.2584	33.187
3.2564	33.127
3.2543	33.047
3.2523	32.894
3.2503	32.731
3.2482	32.654
3.2462	32.601
3.2442	32.503
3.2421	32.407
3.2401	32.273
3.2381	32.180
3.2361	32.111
3.2340	31.989
3.2320	31.916
3.2300	31.815
3.2280	31.669
3.2260	31.558
3.2240	31.469
3.2220	31.372
3.2200	31.241
3.2180	31.085
3.2160	30.963
3.2140	30.868
3.2120	30.704
3.2100	30.544
3.2080	30.465
3.2060	30.324
3.2040	30.154
3.2021	30.056
3.2001	29.952
3.1981	29.811
3.1961	29.723
3.1942	29.620
3.1922	29.492
3.1902	29.396
3.1883	29.303
3.1863	29.213
3.1844	29.053
3.1824	28.905
3.1805	28.810
3.1785	28.726
3.1766	28.656
3.1746	28.541
3.1727	28.394
3.1707	28.273
3.1688	28.222
3.1669	28.176
3.1649	28.052
3.1630	27.993
3.1611	27.931
3.1591	27.807
3.1572	27.767
3.1553	27.691
3.1534	27.581
3.1515	27.536
3.1495	27.527
3.1476	27.462
3.1457	27.394
3.1438	27.298
3.1419	27.206
3.1400	27.189
3.1381	27.171
3.1362	27.097
3.1343	26.987
3.1324	26.930
3.1305	26.949
3.1286	26.903
3.1268	26.818
3.1249	26.778
3.1230	26.755
3.1211	26.669
3.1192	26.621
3.1174	26.587
3.1155	26.555
3.1136	26.561
3.1117	26.493
3.1099	26.400
3.1080	26.393
3.1061	26.354
3.1043	26.298
3.1024	26.276
3.1006	26.235
3.0987	26.197
3.0969	26.216
3.0950	26.179
3.0932	26.105
3.0913	26.056
3.0895	26.073
3.0876	26.042
3.0858	25.993
3.0840	25.927
3.0821	25.913
3.0803	25.966
3.0785	26.012
3.0766	25.989
3.0748	25.943
3.0730	25.925
3.0712	25.920
3.0694	25.897
3.0675	25.885
3.0657	25.918
3.0639	25.946
3.0621	25.946
3.0603	25.965
3.0585	25.966
3.0567	25.947
3.0549	25.961
3.0531	25.988
3.0513	25.950
3.0495	25.970
3.0477	25.982
3.0459	25.948
3.0441	25.924
3.0423	25.878
3.0406	25.841
3.0388	25.848
3.0370	25.888
3.0352	25.910
3.0334	25.931
3.0317	25.900
3.0299	25.829
3.0281	25.858
3.0264	25.883
3.0246	25.879
3.0228	25.802
3.0211	25.737
3.0193	25.744
3.0176	25.761
3.0158	25.666
3.0140	25.584
3.0123	25.604
3.0105	25.639
3.0088	25.595
3.0070	25.536
3.0053	25.457
3.0036	25.446
3.0018	25.450
3.0001	25.371
2.9984	25.340
2.9966	25.297
2.9949	25.241
2.9932	25.183
2.9914	25.150
2.9897	25.106
2.9880	25.058
2.9863	25.056
2.9845	24.991
2.9828	24.940
2.9811	24.904
2.9794	24.872
2.9777	24.818
2.9760	24.813
2.9743	24.794
2.9726	24.748
2.9709	24.649
2.9692	24.567
2.9675	24.547
2.9658	24.532
2.9641	24.502
2.9624	24.425
2.9607	24.427
2.9590	24.443
2.9573	24.406
2.9556	24.408
2.9539	24.413
2.9523	24.398
2.9506	24.402
2.9489	24.432
2.9472	24.413
2.9455	24.445
2.9439	24.452
2.9422	24.473
2.9405	24.418
2.9389	24.364
2.9372	24.361
2.9355	24.371
2.9339	24.431
2.9322	24.481
2.9306	24.473
2.9289	24.476
2.9272	24.535
2.9256	24.574
2.9239	24.593
2.9223	24.625
2.9207	24.623
2.9190	24.677
2.9174	24.793
2.9157	24.845
2.9141	24.883
2.9124	24.928
2.9108	24.930
2.9092	24.960
2.9075	24.991
2.9059	25.056
2.9043	25.091
2.9027	25.165
2.9010	25.260
2.8994	25.348
2.8978	25.347
2.8962	25.447
2.8946	25.579
2.8929	25.644
2.8913	25.638
2.8897	25.721
2.8881	25.819
2.8865	25.771
2.8849	25.816
2.8833	25.916
2.8817	25.913
2.8801	25.929
2.8785	25.976
2.8769	25.982
2.8753	25.997
2.8737	26.038
2.8721	26.021
2.8705	25.967
2.8689	26.014
2.8673	26.102
2.8658	26.094
2.8642	26.048
2.8626	26.068
2.8610	26.082
2.8594	26.141
2.8579	26.148
2.8563	26.089
2.8547	26.148
2.8531	26.170
2.8516	26.143
2.8500	26.116
2.8484	26.095
2.8469	26.096
2.8453	26.086
2.8437	26.078
2.8422	26.043
2.8406	25.998
2.8391	26.031
2.8375	26.091
2.8360	26.060
2.8344	26.012
2.8329	26.089
2.8313	26.087
2.8298	26.074
2.8282	26.078
2.8267	26.066
2.8252	26.126
2.8236	26.183
2.8221	26.140
2.8205	26.110
2.8190	26.229
2.8175	26.292
2.8159	26.228
2.8144	26.299
2.8129	26.408
2.8114	26.413
2.8098	26.444
2.8083	26.500
2.8068	26.576
2.8053	26.666
2.8038	26.750
2.8022	26.795
2.8007	26.807
2.7992	26.917
2.7977	27.024
2.7962	27.052
2.7947	27.080
2.7932	27.134
2.7917	27.153
2.7902	27.205
2.7887	27.237
2.7872	27.215
2.7857	27.247
2.7842	27.263
2.7827	27.165
2.7812	27.101
2.7797	27.004
2.7782	26.908
2.7767	26.877
2.7752	26.808
2.7738	26.726
2.7723	26.659
2.7708	26.561
2.7693	26.419
2.7678	26.255
2.7664	26.188
2.7649	26.100
2.7634	25.962
2.7619	25.797
2.7605	25.619
2.7590	25.503
2.7575	25.437
2.7561	25.498
2.7546	25.545
2.7531	25.486
2.7517	25.473
2.7502	25.426
2.7488	25.272
2.7473	25.067
2.7458	24.830
2.7444	24.765
2.7429	24.998
2.7415	25.420
2.7400	25.768
2.7386	25.803
2.7371	25.505
2.7357	25.058
2.7343	24.654
2.7328	24.428
2.7314	24.688
2.7299	25.573
2.7285	26.549
2.7271	26.850
2.7256	26.603
2.7242	26.126
2.7228	25.682
2.7213	25.903
2.7199	27.256
2.7185	28.764
2.7171	29.611
2.7156	29.965
2.7142	30.177
2.7128	30.345
2.7114	30.470
2.7100	30.634
2.7085	30.844
2.7071	31.041
2.7057	31.190
2.7043	31.421
2.7029	31.713
2.7015	31.988
2.7001	32.163
2.6987	32.410
2.6973	32.787
2.6959	33.192
2.6945	33.578
2.6931	33.962
2.6917	34.349
2.6903	34.748
2.6889	35.230
2.6875	35.819
2.6861	36.380
2.6847	36.972
2.6833	37.545
2.6819	37.951
2.6805	38.248
2.6791	38.534
2.6778	38.795
2.6764	38.929
2.6750	38.947
2.6736	38.945
2.6722	39.078
2.6709	39.353
2.6695	39.454
2.6681	39.482
2.6667	39.616
2.6654	39.605
2.6640	39.524
2.6626	39.528
2.6613	39.579
2.6599	39.547
2.6585	39.506
2.6572	39.580
2.6558	39.713
2.6545	39.706
2.6531	39.737
2.6517	39.725
2.6504	39.653
2.6490	39.653
2.6477	39.674
2.6463	39.700
2.6450	39.739
2.6436	39.739
2.6423	39.696
2.6409	39.688
2.6396	39.705
2.6382	39.729
2.6369	39.759
2.6356	39.683
2.6342	39.711
2.6329	39.728
2.6315	39.772
2.6302	39.896
2.6289	39.832
2.6275	39.745
2.6262	39.791
2.6249	39.761
2.6236	39.702
2.6222	39.721
2.6209	39.901
2.6196	39.839
2.6183	39.709
2.6169	39.781
2.6156	39.874
2.6143	39.861
2.6130	39.849
2.6117	39.784
2.6103	39.769
2.6090	39.815
2.6077	39.842
2.6064	39.828
2.6051	39.919
2.6038	39.930
2.6025	39.875
2.6012	39.858
2.5999	39.824
2.5986	39.812
2.5973	39.894
2.5960	39.990
2.5947	40.047
2.5934	39.989
2.5921	39.865
2.5908	39.830
2.5895	39.849
2.5882	39.867
2.5869	39.915
2.5856	39.911
2.5843	39.930
2.5830	39.951
2.5817	39.906
2.5805	39.856
2.5792	39.890
2.5779	39.921
2.5766	39.894
2.5753	39.846
2.5741	39.884
2.5728	39.850
2.5715	39.772
2.5702	39.763
2.5690	39.764
2.5677	39.725
2.5664	39.752
2.5651	39.859
2.5639	39.913
2.5626	39.914
2.5613	39.886
2.5601	39.817
2.5588	39.875
2.5575	39.950
2.5563	39.953
2.5550	39.890
2.5538	39.822
2.5525	39.832
2.5513	39.833
2.5500	39.851
2.5487	39.921
2.5475	39.882
2.5462	39.816
2.5450	39.860
2.5437	39.873
2.5425	39.896
2.5413	39.936
2.5400	39.940
2.5388	39.884
2.5375	39.829
2.5363	39.843
2.5350	39.875
2.5338	39.925
2.5326	39.929
2.5313	39.917
2.5301	39.921
2.5289	39.981
2.5276	39.925
2.5264	39.929
2.5252	39.915
2.5239	39.848
2.5227	39.886
2.5215	39.915
2.5202	39.900
2.5190	39.878
2.5178	39.879
2.5166	39.932
2.5154	39.893
2.5141	39.841
2.5129	39.833
2.5117	39.876
2.5105	39.842
2.5093	39.878
2.5081	39.907
2.5068	39.864
2.5056	39.847
2.5044	39.864
2.5032	39.878
2.5020	39.881
2.5008	39.931
2.4996	39.917
2.4984	39.895
2.4972	39.816
2.4960	39.729
2.4948	39.756
2.4936	39.836
2.4924	39.909
2.4912	39.905
2.4900	39.854
2.4888	39.846
2.4876	39.904
2.4864	39.898
2.4852	39.875
2.4840	39.912
2.4828	39.877
2.4816	39.891
2.4805	39.878
2.4793	39.867
2.4781	39.922
2.4769	39.912
2.4757	39.916
2.4745	39.884
2.4734	39.818
2.4722	39.883
2.4710	39.880
2.4698	39.860
2.4686	39.885
2.4675	39.900
2.4663	39.960
2.4651	39.978
2.4640	39.958
2.4628	39.967
2.4616	39.929
2.4604	39.921
2.4593	39.973
2.4581	39.957
2.4569	39.857
2.4558	39.881
2.4546	39.938
2.4535	39.987
2.4523	39.938
2.4511	39.818
2.4500	39.830
2.4488	39.869
2.4477	39.825
2.4465	39.802
2.4454	39.794
2.4442	39.824
2.4431	39.820
2.4419	39.806
2.4408	39.810
2.4396	39.819
2.4385	39.789
2.4373	39.831
2.4362	39.837
2.4350	39.803
2.4339	39.781
2.4327	39.766
2.4316	39.769
2.4305	39.761
2.4293	39.720
2.4282	39.668
2.4270	39.681
2.4259	39.757
2.4248	39.767
2.4236	39.710
2.4225	39.690
2.4214	39.704
2.4202	39.702
2.4191	39.700
2.4180	39.687
2.4169	39.667
2.4157	39.625
2.4146	39.662
2.4135	39.650
2.4124	39.565
2.4112	39.485
2.4101	39.518
2.4090	39.528
2.4079	39.502
2.4068	39.550
2.4056	39.630
2.4045	39.632
2.4034	39.551
2.4023	39.469
2.4012	39.483
2.4001	39.442
2.3990	39.460
2.3979	39.488
2.3967	39.490
2.3956	39.422
2.3945	39.332
2.3934	39.390
2.3923	39.447
2.3912	39.470
2.3901	39.370
2.3890	39.357
2.3879	39.444
2.3868	39.445
2.3857	39.423
2.3846	39.482
2.3835	39.555
2.3824	39.527
2.3813	39.396
2.3802	39.475
2.3791	39.636
2.3781	39.599
2.3770	39.528
2.3759	39.578
2.3748	39.637
2.3737	39.633
2.3726	39.606
2.3715	39.623
2.3704	39.642
2.3694	39.675
2.3683	39.694
2.3672	39.726
2.3661	39.777
2.3650	39.807
2.3640	39.705
2.3629	39.620
2.3618	39.610
2.3607	39.623
2.3597	39.663
2.3586	39.662
2.3575	39.583
2.3564	39.495
2.3554	39.537
2.3543	39.608
2.3532	39.600
2.3522	39.614
2.3511	39.617
2.3500	39.516
2.3490	39.398
2.3479	39.416
2.3468	39.462
2.3458	39.505
2.3447	39.449
2.3436	39.383
2.3426	39.422
2.3415	39.406
2.3405	39.382
2.3394	39.342
2.3384	39.330
2.3373	39.269
2.3363	39.252
2.3352	39.222
2.3342	39.232
2.3331	39.227
2.3321	39.202
2.3310	39.171
2.3300	39.205
2.3289	39.214
2.3279	39.151
2.3268	39.223
2.3258	39.304
2.3247	39.218
2.3237	39.174
2.3226	39.306
2.3216	39.405
2.3206	39.386
2.3195	39.364
2.3185	39.342
2.3175	39.362
2.3164	39.285
2.3154	39.269
2.3144	39.409
2.3133	39.385
2.3123	39.399
2.3113	39.430
2.3102	39.456
2.3092	39.507
2.3082	39.479
2.3071	39.460
2.3061	39.566
2.3051	39.688
2.3041	39.623
2.3030	39.550
2.3020	39.510
2.3010	39.564
2.3000	39.656
2.2990	39.648
2.2979	39.660
2.2969	39.745
2.2959	39.756
2.2949	39.740
2.2939	39.731
2.2929	39.799
2.2918	39.803
2.2908	39.793
2.2898	39.869
2.2888	39.925
2.2878	39.897
2.2868	39.869
2.2858	39.778
2.2848	39.755
2.2838	39.861
2.2828	39.895
2.2818	39.970
2.2808	40.026
2.2798	39.915
2.2787	39.800
2.2777	39.816
2.2767	39.964
2.2757	40.024
2.2747	40.026
2.2738	40.025
2.2728	39.964
2.2718	39.872
2.2708	39.940
2.2698	40.010
2.2688	39.985
2.2678	39.955
2.2668	39.879
2.2658	39.911
2.2648	39.973
2.2638	39.981
2.2628	39.861
2.2618	39.875
2.2609	39.891
2.2599	39.849
2.2589	39.830
2.2579	39.874
2.2569	39.934
2.2559	39.912
2.2550	39.874
2.2540	39.930
2.2530	39.878
2.2520	39.802
2.2510	39.793
2.2501	39.824
2.2491	39.880
2.2481	39.883
2.2471	39.926
2.2462	39.861
2.2452	39.738
2.2442	39.808
2.2433	39.842
2.2423	39.803
2.2413	39.737
2.2403	39.794
2.2394	39.812
2.2384	39.695
2.2374	39.731
2.2365	39.840
2.2355	39.818
2.2345	39.829
2.2336	39.875
2.2326	39.796
2.2317	39.801
2.2307	39.907
2.2297	39.925
2.2288	39.855
2.2278	39.846
2.2269	39.887
2.2259	39.827
2.2250	39.745
2.2240	39.773
2.2231	39.923
2.2221	40.012
2.2211	39.921
2.2202	39.875
2.2192	39.835
2.2183	39.750
2.2173	39.720
2.2164	39.820
2.2155	39.915
2.2145	39.800
2.2136	39.711
2.2126	39.718
2.2117	39.791
2.2107	39.793
2.2098	39.788
2.2088	39.804
2.2079	39.742
2.2070	39.705
2.2060	39.765
2.2051	39.850
2.2041	39.793
2.2032	39.763
2.2023	39.790
2.2013	39.846
2.2004	39.819
2.1995	39.750
2.1985	39.790
2.1976	39.842
2.1967	39.788
2.1957	39.739
2.1948	39.701
2.1939	39.702
2.1930	39.717
2.1920	39.724
2.1911	39.733
2.1902	39.760
2.1893	39.801
2.1883	39.839
2.1874	39.817
2.1865	39.828
2.1856	39.840
2.1846	39.812
2.1837	39.772
2.1828	39.814
2.1819	39.835
2.1810	39.774
2.1800	39.778
2.1791	39.791
2.1782	39.772
2.1773	39.790
2.1764	39.737
2.1755	39.818
2.1746	39.814
2.1736	39.732
2.1727	39.739
2.1718	39.826
2.1709	39.786
2.1700	39.752
2.1691	39.831
2.1682	39.842
2.1673	39.830
2.1664	39.902
2.1655	39.902
2.1646	39.913
2.1637	39.897
2.1628	39.808
2.1619	39.853
2.1610	39.851
2.1601	39.835
2.1592	39.801
2.1583	39.814
2.1574	39.855
2.1565	39.900
2.1556	39.814
2.1547	39.818
2.1538	39.864
2.1529	39.822
2.1520	39.726
2.1511	39.745
2.1502	39.853
2.1493	39.846
2.1484	39.764
2.1475	39.771
2.1466	39.738
2.1458	39.740
2.1449	39.799
2.1440	39.767
2.1431	39.793
2.1422	39.921
2.1413	39.789
2.1404	39.728
2.1396	39.817
2.1387	39.844
2.1378	39.714
2.1369	39.671
2.1360	39.786
2.1352	39.847
2.1343	39.810
2.1334	39.750
2.1325	39.745
2.1316	39.786
2.1308	39.752
2.1299	39.724
2.1290	39.729
2.1281	39.695
2.1273	39.681
2.1264	39.680
2.1255	39.666
2.1247	39.630
2.1238	39.692
2.1229	39.694
2.1220	39.640
2.1212	39.515
2.1203	39.566
2.1194	39.701
2.1186	39.667
2.1177	39.602
2.1168	39.630
2.1160	39.673
2.1151	39.697
2.1143	39.664
2.1134	39.742
2.1125	39.709
2.1117	39.716
2.1108	39.734
2.1100	39.679
2.1091	39.630
2.1082	39.715
2.1074	39.651
2.1065	39.546
2.1057	39.569
2.1048	39.552
2.1040	39.569
2.1031	39.672
2.1023	39.703
2.1014	39.677
2.1005	39.577
2.0997	39.556
2.0988	39.703
2.0980	39.671
2.0971	39.542
2.0963	39.553
2.0955	39.508
2.0946	39.574
2.0938	39.666
2.0929	39.630
2.0921	39.598
2.0912	39.617
2.0904	39.577
2.0895	39.652
2.0887	39.795
2.0879	39.740
2.0870	39.717
2.0862	39.659
2.0853	39.595
2.0845	39.605
2.0837	39.565
2.0828	39.492
2.0820	39.517
2.0812	39.595
2.0803	39.654
2.0795	39.683
2.0760	39.683
2.0720	39.903
2.0680	39.910
2.0640	39.910
2.0600	39.355
2.0560	39.568
2.0520	39.583
2.0480	39.513
2.0440	39.429
2.0400	39.471
2.0360	39.027
2.0320	39.036
2.0280	39.302
2.0240	39.036
2.0200	38.696
2.0160	38.605
2.0120	38.409
2.0080	38.514
2.0040	38.351
2.0000	38.432
1.9960	38.523
1.9920	38.887
1.9880	38.895
1.9840	38.338
1.9800	38.208
1.9760	38.049
1.9720	38.089
1.9680	37.737
1.9640	37.697
1.9600	37.697
1.9560	37.817
1.9520	37.978
1.9480	38.008
1.9440	37.937
1.9400	37.815
1.9360	37.664
1.9320	37.251
1.9280	37.228
1.9240	37.067
1.9200	36.986
1.9160	37.458
1.9120	37.365
1.9080	36.967
1.9040	36.867
1.9000	36.978
1.8960	37.408
1.8920	37.244
1.8880	37.295
1.8840	37.315
1.8800	37.295
1.8760	37.301
1.8720	37.273
1.8680	36.978
1.8640	37.021
1.8600	36.793
1.8560	36.775
1.8520	36.938
1.8480	37.116
1.8440	36.987
1.8400	37.103
1.8360	37.193
1.8320	37.176
1.8280	37.482
1.8240	36.971
1.8200	36.856
1.8160	36.741
1.8120	36.528
1.8080	36.451
1.8040	36.526
1.8000	36.615
1.7960	36.719
1.7920	36.552
1.7880	36.262
1.7840	36.476
1.7800	36.023
1.7760	36.085
1.7720	35.858
1.7680	35.681
1.7640	35.831
1.7600	35.869
1.7560	35.831
1.7520	35.957
1.7480	35.995
1.7440	35.882
1.7400	36.046
1.7360	36.198
1.7320	36.236
1.7280	36.236
1.7240	36.147
1.7200	36.057
1.7160	36.071
1.7120	36.046
1.7080	35.855
1.7040	35.858
1.7000	35.644
1.6960	35.556
1.6920	35.519
1.6880	35.593
1.6840	35.519
1.6800	35.394
1.6760	35.468
1.6720	35.240
1.6680	35.240
1.6640	35.115
1.6600	35.078
1.6560	34.964
1.6520	35.059
1.6480	35.059
1.6440	35.095
1.6400	35.074
1.6360	34.880
1.6320	34.684
1.6280	34.705
1.6240	34.783
1.6200	34.705
1.6160	34.632
1.6120	34.559
1.6080	34.632
1.6040	34.747
1.6000	34.747
1.5960	34.637
1.5920	34.335
1.5880	34.066
1.5840	33.923
1.5800	33.852
1.5760	33.854
1.5720	33.835
1.5680	33.835
1.5640	33.699
1.5600	33.819
1.5560	33.765
1.5520	33.769
1.5480	33.911
1.5440	33.822
1.5400	33.346
1.5360	33.241
1.5320	33.241
1.5280	33.381
1.5240	33.293
1.5200	33.346
1.5160	33.399
1.5120	33.294
1.5080	33.294
1.5040	33.082
1.5000	33.007
1.4960	31.976
1.4920	32.118
1.4880	32.050
1.4840	32.084
1.4800	31.865
1.4760	31.942
1.4720	31.855
1.4680	31.656
1.4640	31.623
1.4600	31.731
1.4560	31.832
1.4520	32.034
1.4480	31.892
1.4440	31.850
1.4400	31.686
1.4360	31.699
1.4320	31.610
1.4280	31.430
1.4240	31.219
1.4200	31.185
1.4160	30.986
1.4120	31.164
1.4080	30.963
1.4040	30.440
1.4000	30.458
1.3960	30.360
1.3920	30.172
1.3880	30.360
1.3840	30.515
1.3800	30.558
1.3760	30.548
1.3720	30.565
1.3680	30.412
1.3640	30.473
1.3600	30.313
1.3560	30.223
1.3520	30.180
1.3480	30.090
1.3440	30.170
1.3400	29.935
1.3360	29.856
1.3320	29.532
1.3280	29.240
1.3240	29.127
1.3200	29.314
1.3160	29.351
1.3120	29.053
1.3080	29.058
1.3040	29.001
1.3000	28.944
1.2960	28.975
1.2920	28.891
1.2880	28.718
1.2840	28.607
1.2800	28.552
1.2760	28.315
1.2720	28.290
1.2680	27.957
1.2640	27.833
1.2600	28.069
1.2560	28.100
1.2520	27.992
1.2480	28.025
1.2440	28.086
1.2400	28.120
1.2360	27.949
1.2320	27.557
1.2280	27.518
1.2240	27.608
1.2200	27.529
1.2160	27.620
1.2120	27.022
1.2080	27.141
1.2040	27.082
1.2000	26.964
1.1960	26.876
1.1920	26.769
1.1880	26.711
1.1840	26.653
1.1800	26.470
1.1760	26.596
1.1720	26.624
1.1680	26.294
1.1640	26.292
1.1600	26.260
1.1560	26.197
1.1520	25.900
1.1480	25.811
1.1440	25.849
1.1400	26.137
1.1360	26.220
1.1320	26.048
1.1280	25.987
1.1240	25.494
1.1200	25.550
1.1160	25.466
1.1120	25.261
1.1080	25.476
1.1040	25.504
1.1000	25.560
1.0960	25.476
1.0920	25.504
1.0880	25.449
1.0840	25.238
1.0800	25.248
1.0760	25.043
1.0720	25.165
1.0680	25.309
1.0640	25.029
1.0600	25.083
1.0560	24.995
1.0520	24.988
1.0480	24.961
1.0440	24.907
1.0400	24.596
1.0360	24.703
1.0320	24.811
1.0280	25.070
1.0240	25.180
1.0200	24.811
1.0160	24.750
1.0120	24.607
1.0080	24.634
1.0040	24.651
1.0000	24.340
0.9960	24.340
0.9920	24.156
0.9880	24.262
0.9840	24.280
0.9800	24.218
0.9760	24.270
0.9720	24.075
0.9680	23.801
0.9640	23.916
0.9600	23.837
0.9560	23.942
0.9520	23.739
0.9480	23.650
0.9440	23.739
0.9400	23.650
0.9360	23.525
0.9320	23.359
0.9280	23.343
0.9240	23.307
0.9200	23.219
0.9160	23.131
0.9120	23.219
0.9080	23.338
0.9040	23.157
0.9000	23.208
0.8960	23.198
0.8920	23.198
0.8880	23.099
0.8840	23.073
0.8800	23.229
0.8760	23.229
0.8720	23.167
0.8680	23.078
0.8640	23.219
0.8600	23.288
0.8560	23.261
0.8520	23.261
0.8480	23.199
0.8440	23.146
0.8400	23.068
0.8360	23.120
0.8320	23.104
0.8280	23.131
0.8240	23.167
0.8200	23.141
0.8160	23.125
0.8120	23.198
0.8080	23.146
0.8040	23.130
0.8000	23.064
0.7990	23.064
0.7980	23.064
0.7970	22.958
0.7960	23.068
0.7950	23.255
0.7940	23.160
0.7930	23.312
0.7920	23.361
0.7910	23.084
0.7900	23.124
0.7890	23.064
0.7880	23.024
0.7870	23.028
0.7860	23.052
0.7850	23.060
0.7840	23.100
0.7830	23.240
0.7820	23.148
0.7810	23.229
0.7800	23.229
0.7790	22.980
0.7780	22.833
0.7770	22.801
0.7760	22.518
0.7750	22.641
0.7740	22.678
0.7730	22.705
0.7720	22.797
0.7710	22.865
0.7700	22.881
0.7690	22.841
0.7680	22.965
0.7670	22.785
0.7660	22.745
0.7650	22.633
0.7640	22.653
0.7630	22.552
0.7620	22.401
0.7610	22.373
0.7600	22.469
0.7590	22.401
0.7580	22.669
0.7570	22.415
0.7560	22.209
0.7550	22.182
0.7540	22.063
0.7530	22.264
0.7520	22.126
0.7510	22.072
0.7500	22.199
0.7490	22.105
0.7480	21.867
0.7470	21.745
0.7460	21.798
0.7450	22.003
0.7440	22.030
0.7430	22.216
0.7420	21.825
0.7410	22.092
0.7400	21.865
0.7390	21.996
0.7380	21.798
0.7370	21.865
0.7360	22.009
0.7350	21.741
0.7340	21.741
0.7330	21.389
0.7320	21.676
0.7310	21.790
0.7300	21.872
0.7290	21.687
0.7280	21.734
0.7270	21.813
0.7260	21.623
0.7250	21.479
0.7240	21.638
0.7230	21.719
0.7220	21.665
0.7210	21.569
0.7200	21.488
0.7190	21.407
0.7180	21.430
0.7170	21.233
0.7160	21.407
0.7150	21.418
0.7140	21.329
0.7130	21.286
0.7120	21.488
0.7110	21.526
0.7100	21.103
0.7090	20.971
0.7080	20.848
0.7070	21.249
0.7060	21.156
0.7050	21.236
0.7040	21.279
0.7030	21.317
0.7020	21.438
0.7010	21.601
0.7000	21.381
0.6990	21.398
0.6980	21.340
0.6970	21.274
0.6960	21.290
0.6950	21.567
0.6940	21.765
0.6930	21.368
0.6920	21.340
0.6910	21.355
0.6900	21.355
0.6890	21.355
0.6880	21.665
0.6870	21.455
0.6860	21.538
0.6850	21.439
0.6840	21.428
0.6830	21.329
0.6820	21.596
0.6810	21.356
0.6800	21.497
0.6790	21.441
0.6780	21.342
0.6770	21.553
0.6760	21.510
0.6750	21.538
0.6740	21.650
0.6730	21.550
0.6720	21.537
0.6710	21.339
0.6700	21.312
0.6690	21.509
0.6680	21.058
0.6670	21.014
0.6660	21.156
0.6650	21.003
0.6640	21.096
0.6630	21.251
0.6620	21.195
0.6610	21.195
0.6600	21.096
0.6590	20.942
0.6580	20.942
0.6570	21.041
0.6560	21.058
0.6550	21.140
0.6540	21.041
0.6530	21.058
0.6520	21.052
0.6510	21.135
0.6500	21.279
0.6490	21.196
0.6480	21.141
0.6470	21.239
0.6460	21.466
0.6450	21.069
0.6440	21.068
0.6430	21.140
0.6420	20.958
0.6410	21.195
0.6400	21.096
0.6390	21.279
0.6380	21.251
0.6370	20.941
0.6360	20.996
0.6350	20.869
0.6340	20.842
0.6330	20.941
0.6320	20.869
0.6310	20.914
0.6300	20.969
0.6290	20.980
0.6280	21.096
0.6270	21.079
0.6260	21.135
0.6250	21.135
0.6240	21.179
0.6230	21.107
0.6220	21.235
0.6210	21.307
0.6200	21.207
0.6190	21.035
0.6180	21.118
0.6170	21.163
0.6160	21.135
0.6150	20.979
0.6140	20.807
0.6130	20.752
0.6120	20.752
0.6110	21.107
0.6100	20.835
0.6090	20.745
0.6080	20.762
0.6070	20.635
0.6060	20.662
0.6050	20.562
0.6040	20.516
0.6030	20.544
0.6020	20.544
0.6010	20.343
0.6000	20.479
0.5990	20.709
0.5980	20.562
0.5970	20.617
0.5960	20.617
0.5950	20.571
0.5940	20.599
0.5930	20.571
0.5920	20.756
0.5910	20.960
0.5900	20.654
0.5890	20.580
0.5880	20.654
0.5870	20.654
0.5860	20.394
0.5850	20.514
0.5840	20.654
0.5830	20.608
0.5820	20.571
0.5810	20.414
0.5800	20.305
0.5790	20.433
0.5780	20.406
0.5770	20.332
0.5760	20.516
0.5750	20.516
0.5740	20.534
0.5730	20.617
0.5720	20.480
0.5710	20.480
0.5700	20.453
0.5690	20.354
0.5680	20.273
0.5670	20.435
0.5660	20.343
0.5650	20.242
0.5640	20.161
0.5630	20.343
0.5620	20.169
0.5610	20.095
0.5600	20.204
0.5590	20.056
0.5580	19.131
0.5570	19.391
0.5560	19.316
0.5550	19.316
0.5540	19.224
0.5530	18.989
0.5520	19.106
0.5510	18.963
0.5500	19.205
0.5490	19.114
0.5480	19.070
0.5470	18.820
0.5460	18.747
0.5450	18.917
0.5440	18.724
0.5430	18.919
0.5420	18.922
0.5410	18.995
0.5400	18.799
0.5390	18.874
0.5380	18.849
0.5370	18.699
0.5360	18.724
0.5350	18.947
0.5340	18.876
0.5330	18.778
0.5320	18.607
0.5310	18.484
0.5300	18.509
0.5290	18.631
0.5280	18.411
0.5270	18.289
0.5260	18.289
0.5250	18.312
0.5240	18.262
0.5230	18.336
0.5220	18.168
0.5210	18.265
0.5200	18.068
0.5190	18.164
0.5180	18.164
0.5170	18.069
0.5160	17.921
0.5150	17.969
0.5140	17.849
0.5130	17.897
0.5120	18.117
0.5110	17.993
0.5100	17.630
0.5090	17.775
0.5080	17.561
0.5070	17.435
0.5060	17.505
0.5050	17.604
0.5040	17.749
0.5030	17.627
0.5020	17.486
0.5010	17.287
0.5000	17.211
0.4990	17.407
0.4980	17.314
0.4970	17.337
0.4960	17.095
0.4950	16.902
0.4940	16.767
0.4930	17.004
0.4920	16.975
0.4910	16.975
0.4900	16.947
0.4890	16.731
0.4880	16.947
0.4870	16.827
0.4860	16.723
0.4850	16.633
0.4840	16.731
0.4830	16.821
0.4820	16.611
0.4810	16.437
0.4800	16.363
0.4790	16.339
0.4780	16.430
0.4770	16.408
0.4760	16.408
0.4750	16.117
0.4740	16.040
0.4730	15.965
0.4720	16.020
0.4710	15.922
0.4700	15.922
0.4690	15.922
0.4680	15.878
0.4670	15.845
0.4660	15.847
0.4650	15.868
0.4640	15.673
0.4630	15.629
0.4620	15.371
0.4610	15.371
0.4600	15.492
0.4590	16.270
0.4580	16.121
0.4570	16.170
0.4560	15.792
0.4550	15.713
0.4540	15.493
0.4530	15.613
0.4520	15.797
0.4510	15.596
0.4500	15.760
0.4490	15.455
0.4480	15.336
0.4470	15.155
0.4460	15.113
0.4450	15.477
0.4440	15.354
0.4430	15.374
0.4420	15.333
0.4410	15.031
0.4400	15.012
0.4390	14.689
0.4380	15.051
0.4370	14.844
0.4360	14.742
0.4350	15.025
0.4340	14.760
0.4330	14.721
0.4320	14.697
0.4310	14.411
0.4300	14.326
0.4290	14.250
0.4280	14.145
0.4270	14.154
0.4260	13.978
0.4250	14.250
0.4240	14.245
0.4230	14.200
0.4220	13.947
0.4210	13.842
0.4200	13.776
0.4190	13.582
0.4180	13.788
0.4170	13.768
0.4160	13.543
0.4150	13.473
0.4140	13.338
0.4130	13.407
0.4120	13.491
0.4110	13.404
0.4100	13.134
0.4090	13.235
0.4080	13.235
0.4070	13.098
0.4060	13.251
0.4050	13.115
0.4040	13.166
0.4030	13.047
0.4020	13.080
0.4010	13.009
0.4000	12.663
