Name: Tonalite (Bonsall Tonalite)
Type: Rocks
Class: Igneous
Subclass: Intermediate
Particle Size: 0-75 micrometers
Sample No.: Tonalite.H1
Owner: JHU
Wavelength range: All
Origin: San Diego County, California via Ward's Scientific (Cat. No. W-24)

Description: Sample from which powder was derived is a medium-grained 
gray rock composed of whitish plagioclase, quartz, biotite, and a black mafic 
mineral.



Measurement: Directional (10 degree) hemispherical reflectance
First Column: X
Second Column: Y
X Units: Wavelength (micrometers)
Y Units: Reflectance (percent)
First X Value: 14.0112
Last X Value: 0.4000
Number of X Values: 2844
Additional information: tonali1a.txt

14.011	2.2959
13.973	1.9472
13.936	2.1787
13.899	2.1112
13.861	1.8197
13.824	1.9857
13.788	2.4975
13.751	2.8294
13.715	2.8031
13.679	2.1057
13.643	1.9228
13.607	2.4234
13.571	2.2059
13.536	2.0606
13.500	2.1418
13.465	2.3700
13.430	2.6203
13.396	2.2280
13.361	2.1436
13.327	2.3288
13.293	2.0335
13.259	2.0629
13.225	2.4511
13.191	2.4098
13.158	2.1740
13.124	2.1140
13.091	2.2289
13.058	2.0437
13.026	1.8398
12.993	1.9425
12.960	2.0484
12.928	1.9868
12.896	1.9577
12.864	2.0140
12.832	2.1464
12.800	2.0719
12.769	1.8593
12.737	1.8255
12.706	1.9296
12.675	1.8379
12.644	1.8492
12.614	2.0721
12.583	2.1276
12.552	2.1857
12.522	2.2504
12.492	2.2449
12.462	2.3571
12.432	2.5416
12.402	2.6161
12.373	2.6121
12.343	2.8912
12.314	3.2179
12.285	3.4739
12.256	3.7788
12.227	4.1597
12.198	4.5473
12.169	4.9774
12.141	5.1743
12.113	5.3098
12.084	5.5436
12.056	5.7686
12.028	5.9374
12.000	5.9629
11.973	5.9508
11.945	5.9400
11.918	5.9039
11.890	5.9198
11.863	5.8521
11.836	5.7703
11.809	5.7844
11.782	5.8054
11.755	5.6334
11.729	5.5350
11.702	5.5284
11.676	5.5303
11.650	5.5205
11.624	5.3480
11.598	5.2617
11.572	5.3296
11.546	5.3198
11.520	5.2359
11.495	5.1384
11.469	5.1351
11.444	5.1347
11.419	5.1319
11.394	5.0545
11.369	4.9413
11.344	4.8732
11.319	4.7587
11.294	4.6169
11.270	4.5501
11.245	4.4161
11.221	4.2304
11.197	4.0908
11.173	3.9989
11.149	3.9056
11.125	3.7621
11.101	3.5935
11.077	3.5210
11.054	3.4496
11.030	3.4117
11.007	3.3636
10.983	3.2545
10.960	3.2057
10.937	3.1425
10.914	3.0979
10.891	3.0937
10.868	3.0483
10.846	2.9808
10.823	2.9465
10.800	2.9460
10.778	2.8978
10.755	2.8865
10.733	2.8638
10.711	2.8575
10.689	2.8263
10.667	2.7462
10.645	2.7272
10.623	2.7618
10.602	2.7239
10.580	2.6653
10.558	2.6489
10.537	2.6397
10.516	2.5852
10.494	2.5146
10.473	2.5067
10.452	2.5156
10.431	2.4945
10.410	2.4408
10.389	2.4018
10.368	2.4098
10.348	2.3775
10.327	2.4002
10.306	2.4232
10.286	2.4253
10.266	2.3857
10.245	2.3292
10.225	2.1761
10.205	2.2202
10.185	2.3543
10.165	2.3517
10.145	2.3967
10.125	2.4375
10.106	2.4436
10.086	2.4178
10.066	2.3988
10.047	2.4396
10.027	2.4377
10.008	2.4668
9.9887	2.4628
9.9695	2.4459
9.9504	2.4834
9.9313	2.5177
9.9123	2.5284
9.8934	2.5327
9.8746	2.5275
9.8558	2.5451
9.8371	2.5116
9.8185	2.5395
9.7999	2.5378
9.7814	2.4956
9.7630	2.4919
9.7447	2.5045
9.7264	2.4694
9.7082	2.4106
9.6900	2.4710
9.6719	2.5083
9.6539	2.4636
9.6360	2.4413
9.6181	2.4220
9.6003	2.3871
9.5825	2.3564
9.5649	2.3536
9.5472	2.3883
9.5297	2.4075
9.5122	2.3953
9.4948	2.4319
9.4774	2.4961
9.4601	2.5525
9.4429	2.5915
9.4257	2.6740
9.4086	2.8210
9.3916	2.9498
9.3746	3.1029
9.3577	3.2724
9.3408	3.3904
9.3240	3.4810
9.3073	3.5515
9.2906	3.5859
9.2740	3.5548
9.2574	3.5657
9.2409	3.5855
9.2245	3.5993
9.2081	3.5871
9.1918	3.5418
9.1755	3.5137
9.1593	3.5203
9.1431	3.4483
9.1270	3.3732
9.1110	3.3797
9.0950	3.4308
9.0791	3.4282
9.0632	3.3982
9.0474	3.3616
9.0316	3.3358
9.0159	3.3590
9.0003	3.3558
8.9847	3.3054
8.9691	3.2967
8.9536	3.3548
8.9382	3.2930
8.9228	3.2353
8.9075	3.2606
8.8922	3.2299
8.8770	3.2545
8.8618	3.2229
8.8467	3.1462
8.8316	3.1237
8.8166	3.1402
8.8016	3.1223
8.7867	3.0689
8.7718	3.0722
8.7570	3.1064
8.7422	3.0039
8.7275	2.9414
8.7129	2.9540
8.6982	2.9301
8.6837	2.8748
8.6692	2.7293
8.6547	2.5790
8.6403	2.5122
8.6259	2.4996
8.6116	2.5547
8.5973	2.7080
8.5830	2.9093
8.5688	3.0522
8.5547	3.0881
8.5406	3.1231
8.5266	3.1875
8.5126	3.2081
8.4986	3.2358
8.4847	3.2620
8.4708	3.2922
8.4570	3.3673
8.4432	3.4017
8.4295	3.3722
8.4158	3.4500
8.4022	3.5166
8.3886	3.5433
8.3750	3.5857
8.3615	3.6560
8.3481	3.7572
8.3347	3.8672
8.3213	3.9584
8.3079	4.0212
8.2946	4.1179
8.2814	4.2455
8.2682	4.3772
8.2550	4.5036
8.2419	4.6212
8.2288	4.7234
8.2158	4.8060
8.2028	4.8867
8.1898	4.9273
8.1769	4.9385
8.1640	4.8787
8.1512	4.7535
8.1384	4.6315
8.1256	4.4758
8.1129	4.2553
8.1002	4.0910
8.0876	3.9459
8.0750	3.8004
8.0624	3.6241
8.0499	3.4699
8.0374	3.3673
8.0250	3.2712
8.0126	3.1558
8.0002	3.0457
7.9879	2.9967
7.9756	2.8844
7.9634	2.7558
7.9512	2.6735
7.9390	2.5805
7.9268	2.4588
7.9147	2.3930
7.9027	2.3454
7.8906	2.2676
7.8786	2.1862
7.8667	2.1049
7.8548	2.0763
7.8429	2.0818
7.8310	2.0522
7.8192	2.0439
7.8075	2.0834
7.7957	2.0935
7.7840	2.0747
7.7723	2.1138
7.7607	2.1527
7.7491	2.1933
7.7375	2.2343
7.7260	2.2558
7.7145	2.2908
7.7031	2.3020
7.6916	2.3447
7.6802	2.4140
7.6689	2.4556
7.6575	2.4933
7.6462	2.5517
7.6350	2.6158
7.6238	2.6442
7.6126	2.6590
7.6014	2.7206
7.5903	2.7853
7.5792	2.8420
7.5681	2.9135
7.5571	3.0106
7.5461	3.1062
7.5351	3.1645
7.5242	3.2426
7.5133	3.3232
7.5024	3.3875
7.4916	3.4790
7.4807	3.5388
7.4700	3.5984
7.4592	3.6539
7.4485	3.7338
7.4378	3.8470
7.4272	3.9682
7.4165	4.0472
7.4059	4.1163
7.3954	4.2298
7.3848	4.3540
7.3743	4.4459
7.3639	4.5396
7.3534	4.6212
7.3430	4.7243
7.3326	4.8413
7.3223	4.9603
7.3119	5.0768
7.3016	5.2090
7.2914	5.3285
7.2811	5.4560
7.2709	5.5994
7.2607	5.7363
7.2506	5.8833
7.2404	6.0267
7.2303	6.1797
7.2203	6.3330
7.2102	6.4528
7.2002	6.5649
7.1902	6.6633
7.1803	6.7620
7.1703	6.8771
7.1604	6.9855
7.1506	7.1041
7.1407	7.2530
7.1309	7.3973
7.1211	7.5169
7.1113	7.6500
7.1016	7.7932
7.0919	7.8750
7.0822	7.9202
7.0725	7.9912
7.0629	8.0820
7.0533	8.1766
7.0437	8.2906
7.0341	8.4138
7.0246	8.5338
7.0151	8.6540
7.0056	8.7553
6.9962	8.8636
6.9867	8.9578
6.9773	9.0797
6.9679	9.2142
6.9586	9.3396
6.9493	9.4455
6.9400	9.5527
6.9307	9.6919
6.9214	9.8013
6.9122	9.8800
6.9030	9.9607
6.8938	10.026
6.8847	10.055
6.8755	10.100
6.8664	10.154
6.8573	10.194
6.8483	10.244
6.8393	10.312
6.8302	10.354
6.8213	10.398
6.8123	10.431
6.8034	10.443
6.7944	10.480
6.7855	10.507
6.7767	10.491
6.7678	10.481
6.7590	10.455
6.7502	10.433
6.7414	10.433
6.7327	10.419
6.7239	10.410
6.7152	10.407
6.7065	10.407
6.6979	10.473
6.6892	10.546
6.6806	10.622
6.6720	10.753
6.6634	10.915
6.6549	11.030
6.6464	11.095
6.6378	11.122
6.6294	11.141
6.6209	11.176
6.6124	11.210
6.6040	11.204
6.5956	11.160
6.5872	11.157
6.5789	11.174
6.5705	11.152
6.5622	11.126
6.5539	11.149
6.5456	11.240
6.5374	11.356
6.5292	11.565
6.5209	11.844
6.5128	12.158
6.5046	12.394
6.4964	12.617
6.4883	12.866
6.4802	13.113
6.4721	13.282
6.4640	13.407
6.4560	13.523
6.4480	13.628
6.4399	13.697
6.4320	13.743
6.4240	13.773
6.4160	13.751
6.4081	13.714
6.4002	13.678
6.3923	13.585
6.3844	13.457
6.3766	13.298
6.3687	13.160
6.3609	13.046
6.3531	12.908
6.3454	12.760
6.3376	12.636
6.3299	12.486
6.3221	12.323
6.3144	12.128
6.3068	11.904
6.2991	11.691
6.2914	11.533
6.2838	11.363
6.2762	11.203
6.2686	11.023
6.2611	10.814
6.2535	10.660
6.2460	10.562
6.2385	10.464
6.2310	10.408
6.2235	10.386
6.2160	10.330
6.2086	10.314
6.2011	10.357
6.1937	10.437
6.1863	10.537
6.1790	10.690
6.1716	10.931
6.1643	11.170
6.1570	11.429
6.1496	11.754
6.1424	12.041
6.1351	12.287
6.1278	12.523
6.1206	12.695
6.1134	12.863
6.1062	13.056
6.0990	13.229
6.0918	13.398
6.0847	13.544
6.0776	13.624
6.0704	13.722
6.0633	13.832
6.0563	13.854
6.0492	13.833
6.0421	13.889
6.0351	13.983
6.0281	14.025
6.0211	14.016
6.0141	14.018
6.0071	14.005
6.0002	13.967
5.9932	13.888
5.9863	13.801
5.9794	13.707
5.9725	13.605
5.9657	13.506
5.9588	13.459
5.9520	13.427
5.9451	13.378
5.9383	13.348
5.9315	13.413
5.9247	13.571
5.9180	13.758
5.9112	13.974
5.9045	14.203
5.8978	14.427
5.8911	14.672
5.8844	14.909
5.8777	15.144
5.8711	15.396
5.8644	15.624
5.8578	15.833
5.8512	16.036
5.8446	16.240
5.8380	16.434
5.8314	16.603
5.8249	16.771
5.8184	16.948
5.8118	17.135
5.8053	17.322
5.7988	17.468
5.7923	17.611
5.7859	17.759
5.7794	17.913
5.7730	18.014
5.7666	18.108
5.7602	18.260
5.7538	18.398
5.7474	18.501
5.7410	18.594
5.7347	18.695
5.7283	18.772
5.7220	18.847
5.7157	18.936
5.7094	18.997
5.7031	19.071
5.6969	19.101
5.6906	19.079
5.6844	19.025
5.6782	18.918
5.6719	18.836
5.6657	18.707
5.6596	18.490
5.6534	18.264
5.6472	18.032
5.6411	17.782
5.6349	17.576
5.6288	17.389
5.6227	17.228
5.6166	17.115
5.6106	17.056
5.6045	17.015
5.5984	16.976
5.5924	16.954
5.5864	16.970
5.5804	17.015
5.5744	17.093
5.5684	17.185
5.5624	17.317
5.5564	17.484
5.5505	17.671
5.5445	17.887
5.5386	18.093
5.5327	18.335
5.5268	18.584
5.5209	18.833
5.5151	19.106
5.5092	19.404
5.5033	19.686
5.4975	19.965
5.4917	20.210
5.4859	20.448
5.4801	20.694
5.4743	20.935
5.4685	21.155
5.4628	21.362
5.4570	21.535
5.4513	21.622
5.4455	21.659
5.4398	21.649
5.4341	21.576
5.4284	21.415
5.4228	21.183
5.4171	20.920
5.4114	20.551
5.4058	20.068
5.4002	19.576
5.3945	19.066
5.3889	18.537
5.3833	18.003
5.3778	17.531
5.3722	17.165
5.3666	16.878
5.3611	16.660
5.3555	16.549
5.3500	16.503
5.3445	16.504
5.3390	16.587
5.3335	16.695
5.3280	16.813
5.3225	16.957
5.3171	17.115
5.3116	17.274
5.3062	17.420
5.3008	17.610
5.2954	17.836
5.2900	18.083
5.2846	18.382
5.2792	18.723
5.2738	19.082
5.2684	19.464
5.2631	19.894
5.2578	20.354
5.2524	20.837
5.2471	21.366
5.2418	21.925
5.2365	22.503
5.2312	23.098
5.2260	23.670
5.2207	24.174
5.2154	24.594
5.2102	24.944
5.2050	25.254
5.1998	25.469
5.1945	25.624
5.1893	25.729
5.1842	25.771
5.1790	25.801
5.1738	25.827
5.1686	25.875
5.1635	25.908
5.1584	25.948
5.1532	25.987
5.1481	26.003
5.1430	26.035
5.1379	26.090
5.1328	26.147
5.1277	26.224
5.1227	26.308
5.1176	26.416
5.1126	26.515
5.1075	26.602
5.1025	26.601
5.0975	26.537
5.0925	26.447
5.0875	26.326
5.0825	26.191
5.0775	26.090
5.0726	26.033
5.0676	26.011
5.0627	26.040
5.0577	26.101
5.0528	26.191
5.0479	26.249
5.0430	26.284
5.0380	26.345
5.0332	26.395
5.0283	26.417
5.0234	26.431
5.0185	26.455
5.0137	26.512
5.0088	26.626
5.0040	26.768
4.9992	26.949
4.9944	27.158
4.9896	27.385
4.9848	27.689
4.9800	28.079
4.9752	28.545
4.9704	29.067
4.9657	29.627
4.9609	30.176
4.9562	30.657
4.9514	31.066
4.9467	31.382
4.9420	31.647
4.9373	31.884
4.9326	32.113
4.9279	32.408
4.9232	32.778
4.9186	33.205
4.9139	33.745
4.9092	34.379
4.9046	35.067
4.9000	35.784
4.8953	36.446
4.8907	37.073
4.8861	37.649
4.8815	38.162
4.8769	38.611
4.8723	38.996
4.8678	39.326
4.8632	39.644
4.8586	39.944
4.8541	40.219
4.8495	40.471
4.8450	40.685
4.8405	40.887
4.8360	41.064
4.8315	41.278
4.8270	41.487
4.8225	41.660
4.8180	41.812
4.8135	41.953
4.8090	42.129
4.8046	42.314
4.8001	42.482
4.7957	42.641
4.7913	42.837
4.7868	43.010
4.7824	43.153
4.7780	43.326
4.7736	43.480
4.7692	43.623
4.7648	43.788
4.7605	43.946
4.7561	44.135
4.7517	44.298
4.7474	44.424
4.7431	44.551
4.7387	44.704
4.7344	44.852
4.7301	44.967
4.7258	45.092
4.7215	45.199
4.7172	45.258
4.7129	45.290
4.7086	45.410
4.7043	45.494
4.7000	45.511
4.6958	45.511
4.6915	45.524
4.6873	45.588
4.6831	45.668
4.6788	45.757
4.6746	45.934
4.6704	46.227
4.6662	46.489
4.6620	46.726
4.6578	47.016
4.6536	47.285
4.6495	47.526
4.6453	47.748
4.6411	47.972
4.6370	48.225
4.6328	48.478
4.6287	48.717
4.6246	48.918
4.6205	49.083
4.6163	49.282
4.6122	49.508
4.6081	49.709
4.6040	49.887
4.6000	50.067
4.5959	50.246
4.5918	50.407
4.5877	50.602
4.5837	50.778
4.5796	50.934
4.5756	51.063
4.5716	51.188
4.5675	51.324
4.5635	51.446
4.5595	51.542
4.5555	51.666
4.5515	51.756
4.5475	51.802
4.5435	51.831
4.5395	51.874
4.5356	51.926
4.5316	51.944
4.5276	51.894
4.5237	51.838
4.5197	51.768
4.5158	51.664
4.5119	51.550
4.5080	51.456
4.5040	51.339
4.5001	51.221
4.4962	51.164
4.4923	51.147
4.4884	51.130
4.4846	51.139
4.4807	51.140
4.4768	51.136
4.4730	51.149
4.4691	51.200
4.4652	51.283
4.4614	51.437
4.4576	51.639
4.4537	51.855
4.4499	52.062
4.4461	52.232
4.4423	52.389
4.4385	52.562
4.4347	52.717
4.4309	52.844
4.4271	53.027
4.4233	53.240
4.4196	53.428
4.4158	53.589
4.4120	53.737
4.4083	53.925
4.4045	54.124
4.4008	54.299
4.3971	54.507
4.3934	54.701
4.3896	54.903
4.3859	55.118
4.3822	55.358
4.3785	55.559
4.3748	55.749
4.3711	55.965
4.3674	56.149
4.3638	56.309
4.3601	56.475
4.3564	56.661
4.3528	56.815
4.3491	56.978
4.3455	57.134
4.3418	57.261
4.3382	57.360
4.3346	57.524
4.3310	57.618
4.3273	57.689
4.3237	57.784
4.3201	57.859
4.3165	57.927
4.3129	57.983
4.3094	58.035
4.3058	58.101
4.3022	58.174
4.2986	58.223
4.2951	58.299
4.2915	58.383
4.2880	58.462
4.2844	58.523
4.2809	58.614
4.2774	58.725
4.2738	58.828
4.2703	58.927
4.2668	58.996
4.2633	59.084
4.2598	59.158
4.2563	59.217
4.2528	59.309
4.2493	59.394
4.2458	59.470
4.2424	59.508
4.2389	59.543
4.2354	59.589
4.2320	59.637
4.2285	59.672
4.2251	59.722
4.2216	59.795
4.2182	59.846
4.2148	59.860
4.2113	59.897
4.2079	59.907
4.2045	59.906
4.2011	59.932
4.1977	59.991
4.1943	60.055
4.1909	60.107
4.1875	60.156
4.1841	60.241
4.1808	60.352
4.1774	60.425
4.1740	60.492
4.1707	60.525
4.1673	60.552
4.1640	60.622
4.1606	60.705
4.1573	60.753
4.1540	60.786
4.1506	60.859
4.1473	60.928
4.1440	60.952
4.1407	61.008
4.1374	61.086
4.1341	61.126
4.1308	61.181
4.1275	61.245
4.1242	61.312
4.1209	61.346
4.1177	61.397
4.1144	61.469
4.1111	61.518
4.1079	61.546
4.1046	61.598
4.1014	61.679
4.0981	61.757
4.0949	61.806
4.0917	61.859
4.0884	61.875
4.0852	61.918
4.0820	61.976
4.0788	62.001
4.0756	62.028
4.0724	62.066
4.0692	62.086
4.0660	62.130
4.0628	62.156
4.0596	62.160
4.0565	62.168
4.0533	62.206
4.0501	62.218
4.0470	62.213
4.0438	62.254
4.0406	62.279
4.0375	62.259
4.0344	62.261
4.0312	62.271
4.0281	62.280
4.0250	62.313
4.0218	62.305
4.0187	62.286
4.0156	62.258
4.0125	62.258
4.0094	62.271
4.0063	62.314
4.0032	62.325
4.0001	62.335
3.9970	62.360
3.9940	62.342
3.9909	62.365
3.9878	62.391
3.9847	62.406
3.9817	62.427
3.9786	62.463
3.9756	62.509
3.9725	62.499
3.9695	62.484
3.9665	62.549
3.9634	62.622
3.9604	62.658
3.9574	62.700
3.9544	62.761
3.9513	62.790
3.9483	62.816
3.9453	62.864
3.9423	62.889
3.9393	62.912
3.9363	62.945
3.9333	62.934
3.9304	62.931
3.9274	62.991
3.9244	63.022
3.9214	63.010
3.9185	63.030
3.9155	63.008
3.9126	63.007
3.9096	63.006
3.9067	62.985
3.9037	62.972
3.9008	62.979
3.8979	62.982
3.8949	62.955
3.8920	62.923
3.8891	62.908
3.8862	62.881
3.8833	62.864
3.8804	62.866
3.8775	62.846
3.8746	62.810
3.8717	62.797
3.8688	62.747
3.8659	62.718
3.8630	62.743
3.8601	62.722
3.8573	62.695
3.8544	62.683
3.8515	62.679
3.8487	62.660
3.8458	62.653
3.8430	62.659
3.8401	62.641
3.8373	62.603
3.8344	62.595
3.8316	62.631
3.8288	62.628
3.8259	62.607
3.8231	62.638
3.8203	62.615
3.8175	62.563
3.8147	62.582
3.8119	62.593
3.8091	62.547
3.8063	62.541
3.8035	62.529
3.8007	62.479
3.7979	62.456
3.7951	62.444
3.7924	62.446
3.7896	62.413
3.7868	62.368
3.7841	62.328
3.7813	62.307
3.7785	62.262
3.7758	62.217
3.7730	62.180
3.7703	62.135
3.7676	62.089
3.7648	62.062
3.7621	62.016
3.7594	61.986
3.7566	61.972
3.7539	61.924
3.7512	61.861
3.7485	61.852
3.7458	61.843
3.7431	61.802
3.7404	61.734
3.7377	61.708
3.7350	61.727
3.7323	61.678
3.7296	61.625
3.7269	61.645
3.7242	61.621
3.7216	61.564
3.7189	61.540
3.7162	61.535
3.7136	61.495
3.7109	61.476
3.7083	61.453
3.7056	61.397
3.7030	61.387
3.7003	61.410
3.6977	61.371
3.6950	61.318
3.6924	61.288
3.6898	61.312
3.6872	61.326
3.6845	61.273
3.6819	61.237
3.6793	61.238
3.6767	61.204
3.6741	61.189
3.6715	61.145
3.6689	61.116
3.6663	61.100
3.6637	61.019
3.6611	60.978
3.6585	60.968
3.6560	60.939
3.6534	60.932
3.6508	60.917
3.6482	60.833
3.6457	60.784
3.6431	60.739
3.6406	60.683
3.6380	60.655
3.6355	60.624
3.6329	60.585
3.6304	60.545
3.6278	60.487
3.6253	60.428
3.6227	60.384
3.6202	60.321
3.6177	60.271
3.6152	60.217
3.6127	60.170
3.6101	60.139
3.6076	60.087
3.6051	60.023
3.6026	59.966
3.6001	59.921
3.5976	59.854
3.5951	59.776
3.5926	59.708
3.5901	59.676
3.5876	59.636
3.5852	59.585
3.5827	59.536
3.5802	59.493
3.5777	59.411
3.5753	59.362
3.5728	59.318
3.5704	59.282
3.5679	59.235
3.5654	59.159
3.5630	59.112
3.5605	59.060
3.5581	59.000
3.5557	58.945
3.5532	58.885
3.5508	58.822
3.5484	58.752
3.5459	58.685
3.5435	58.630
3.5411	58.572
3.5387	58.485
3.5363	58.430
3.5338	58.369
3.5314	58.271
3.5290	58.200
3.5266	58.128
3.5242	58.019
3.5218	57.931
3.5195	57.874
3.5171	57.814
3.5147	57.704
3.5123	57.583
3.5099	57.480
3.5075	57.417
3.5052	57.356
3.5028	57.232
3.5004	57.140
3.4981	57.093
3.4957	57.071
3.4934	57.076
3.4910	57.025
3.4887	56.923
3.4863	56.859
3.4840	56.804
3.4816	56.755
3.4793	56.743
3.4770	56.709
3.4746	56.646
3.4723	56.590
3.4700	56.533
3.4677	56.475
3.4653	56.411
3.4630	56.364
3.4607	56.277
3.4584	56.206
3.4561	56.161
3.4538	56.061
3.4515	55.983
3.4492	55.952
3.4469	55.863
3.4446	55.749
3.4423	55.680
3.4400	55.601
3.4378	55.506
3.4355	55.414
3.4332	55.319
3.4309	55.228
3.4287	55.135
3.4264	55.002
3.4241	54.848
3.4219	54.772
3.4196	54.676
3.4174	54.584
3.4151	54.502
3.4129	54.398
3.4106	54.367
3.4084	54.373
3.4061	54.296
3.4039	54.212
3.4017	54.208
3.3994	54.232
3.3972	54.176
3.3950	54.116
3.3928	54.064
3.3906	54.039
3.3883	53.963
3.3861	53.846
3.3839	53.802
3.3817	53.765
3.3795	53.728
3.3773	53.660
3.3751	53.591
3.3729	53.518
3.3707	53.469
3.3685	53.444
3.3663	53.382
3.3641	53.318
3.3620	53.280
3.3598	53.237
3.3576	53.194
3.3554	53.142
3.3533	53.099
3.3511	53.021
3.3489	52.956
3.3468	52.926
3.3446	52.867
3.3425	52.813
3.3403	52.778
3.3382	52.728
3.3360	52.664
3.3339	52.604
3.3317	52.528
3.3296	52.516
3.3274	52.433
3.3253	52.304
3.3232	52.240
3.3210	52.191
3.3189	52.122
3.3168	52.058
3.3147	52.007
3.3126	51.941
3.3104	51.817
3.3083	51.703
3.3062	51.641
3.3041	51.581
3.3020	51.513
3.2999	51.434
3.2978	51.383
3.2957	51.310
3.2936	51.216
3.2915	51.125
3.2894	51.059
3.2874	50.975
3.2853	50.917
3.2832	50.781
3.2811	50.670
3.2790	50.632
3.2770	50.570
3.2749	50.467
3.2728	50.390
3.2708	50.338
3.2687	50.275
3.2666	50.165
3.2646	50.064
3.2625	50.023
3.2605	49.912
3.2584	49.768
3.2564	49.686
3.2543	49.631
3.2523	49.554
3.2503	49.517
3.2482	49.444
3.2462	49.297
3.2442	49.192
3.2421	49.144
3.2401	49.111
3.2381	49.004
3.2361	48.902
3.2340	48.801
3.2320	48.720
3.2300	48.669
3.2280	48.571
3.2260	48.475
3.2240	48.379
3.2220	48.275
3.2200	48.191
3.2180	48.124
3.2160	48.029
3.2140	47.941
3.2120	47.840
3.2100	47.733
3.2080	47.712
3.2060	47.622
3.2040	47.478
3.2021	47.425
3.2001	47.328
3.1981	47.235
3.1961	47.177
3.1942	47.115
3.1922	46.992
3.1902	46.871
3.1883	46.806
3.1863	46.729
3.1844	46.614
3.1824	46.528
3.1805	46.484
3.1785	46.429
3.1766	46.314
3.1746	46.223
3.1727	46.148
3.1707	46.038
3.1688	45.917
3.1669	45.827
3.1649	45.797
3.1630	45.714
3.1611	45.602
3.1591	45.491
3.1572	45.402
3.1553	45.294
3.1534	45.184
3.1515	45.109
3.1495	45.059
3.1476	44.982
3.1457	44.857
3.1438	44.730
3.1419	44.642
3.1400	44.558
3.1381	44.478
3.1362	44.352
3.1343	44.251
3.1324	44.197
3.1305	44.095
3.1286	43.968
3.1268	43.889
3.1249	43.830
3.1230	43.743
3.1211	43.669
3.1192	43.564
3.1174	43.444
3.1155	43.359
3.1136	43.324
3.1117	43.223
3.1099	43.076
3.1080	43.007
3.1061	42.957
3.1043	42.893
3.1024	42.780
3.1006	42.620
3.0987	42.522
3.0969	42.503
3.0950	42.429
3.0932	42.336
3.0913	42.277
3.0895	42.200
3.0876	42.072
3.0858	41.954
3.0840	41.883
3.0821	41.828
3.0803	41.752
3.0785	41.685
3.0766	41.633
3.0748	41.577
3.0730	41.511
3.0712	41.393
3.0694	41.294
3.0675	41.253
3.0657	41.177
3.0639	41.119
3.0621	41.053
3.0603	40.977
3.0585	40.902
3.0567	40.793
3.0549	40.712
3.0531	40.682
3.0513	40.608
3.0495	40.514
3.0477	40.427
3.0459	40.354
3.0441	40.264
3.0423	40.188
3.0406	40.122
3.0388	40.072
3.0370	40.014
3.0352	39.926
3.0334	39.858
3.0317	39.774
3.0299	39.676
3.0281	39.610
3.0264	39.542
3.0246	39.484
3.0228	39.421
3.0211	39.323
3.0193	39.240
3.0176	39.165
3.0158	39.066
3.0140	38.951
3.0123	38.875
3.0105	38.810
3.0088	38.798
3.0070	38.720
3.0053	38.591
3.0036	38.511
3.0018	38.415
3.0001	38.301
2.9984	38.215
2.9966	38.176
2.9949	38.107
2.9932	38.010
2.9914	37.951
2.9897	37.886
2.9880	37.815
2.9863	37.686
2.9845	37.589
2.9828	37.541
2.9811	37.511
2.9794	37.463
2.9777	37.374
2.9760	37.275
2.9743	37.245
2.9726	37.198
2.9709	37.087
2.9692	36.973
2.9675	36.921
2.9658	36.909
2.9641	36.850
2.9624	36.814
2.9607	36.779
2.9590	36.729
2.9573	36.654
2.9556	36.609
2.9539	36.575
2.9523	36.550
2.9506	36.515
2.9489	36.431
2.9472	36.442
2.9455	36.439
2.9439	36.370
2.9422	36.352
2.9405	36.352
2.9389	36.357
2.9372	36.325
2.9355	36.322
2.9339	36.296
2.9322	36.260
2.9306	36.299
2.9289	36.332
2.9272	36.308
2.9256	36.312
2.9239	36.297
2.9223	36.286
2.9207	36.284
2.9190	36.302
2.9174	36.289
2.9157	36.298
2.9141	36.300
2.9124	36.342
2.9108	36.344
2.9092	36.325
2.9075	36.345
2.9059	36.358
2.9043	36.358
2.9027	36.354
2.9010	36.280
2.8994	36.332
2.8978	36.407
2.8962	36.321
2.8946	36.245
2.8929	36.273
2.8913	36.303
2.8897	36.233
2.8881	36.117
2.8865	36.077
2.8849	36.085
2.8833	35.994
2.8817	35.927
2.8801	35.884
2.8785	35.822
2.8769	35.746
2.8753	35.686
2.8737	35.512
2.8721	35.299
2.8705	35.226
2.8689	35.305
2.8673	35.374
2.8658	35.364
2.8642	35.252
2.8626	35.218
2.8610	35.302
2.8594	35.429
2.8579	35.543
2.8563	35.638
2.8547	35.699
2.8531	35.707
2.8516	35.682
2.8500	35.714
2.8484	35.718
2.8469	35.739
2.8453	35.759
2.8437	35.737
2.8422	35.727
2.8406	35.710
2.8391	35.637
2.8375	35.529
2.8360	35.425
2.8344	35.402
2.8329	35.304
2.8313	35.130
2.8298	34.960
2.8282	34.791
2.8267	34.633
2.8252	34.499
2.8236	34.326
2.8221	34.200
2.8205	34.097
2.8190	33.954
2.8175	33.776
2.8159	33.675
2.8144	33.631
2.8129	33.582
2.8114	33.519
2.8098	33.463
2.8083	33.452
2.8068	33.495
2.8053	33.535
2.8038	33.548
2.8022	33.590
2.8007	33.666
2.7992	33.682
2.7977	33.680
2.7962	33.625
2.7947	33.470
2.7932	33.365
2.7917	33.229
2.7902	33.028
2.7887	32.854
2.7872	32.655
2.7857	32.435
2.7842	32.256
2.7827	32.126
2.7812	32.010
2.7797	31.861
2.7782	31.781
2.7767	31.749
2.7752	31.802
2.7738	31.888
2.7723	31.884
2.7708	31.876
2.7693	31.803
2.7678	31.647
2.7664	31.607
2.7649	31.548
2.7634	31.427
2.7619	31.437
2.7605	31.510
2.7590	31.606
2.7575	31.790
2.7561	31.954
2.7546	32.106
2.7531	32.291
2.7517	32.525
2.7502	32.814
2.7488	32.984
2.7473	32.968
2.7458	32.905
2.7444	32.986
2.7429	33.273
2.7415	33.632
2.7400	33.871
2.7386	33.883
2.7371	33.748
2.7357	33.474
2.7343	33.238
2.7328	33.292
2.7314	33.698
2.7299	34.423
2.7285	35.159
2.7271	35.464
2.7256	35.411
2.7242	35.253
2.7228	35.246
2.7213	35.583
2.7199	36.446
2.7185	37.484
2.7171	38.131
2.7156	38.569
2.7142	38.989
2.7128	39.469
2.7114	39.918
2.7100	40.377
2.7085	40.859
2.7071	41.361
2.7057	41.825
2.7043	42.366
2.7029	42.995
2.7015	43.725
2.7001	44.593
2.6987	45.628
2.6973	46.748
2.6959	48.021
2.6945	49.336
2.6931	50.711
2.6917	52.155
2.6903	53.660
2.6889	55.171
2.6875	56.725
2.6861	58.317
2.6847	59.878
2.6833	61.228
2.6819	62.344
2.6805	63.237
2.6791	63.849
2.6778	64.266
2.6764	64.553
2.6750	64.757
2.6736	64.977
2.6722	65.196
2.6709	65.346
2.6695	65.638
2.6681	66.028
2.6667	66.172
2.6654	66.313
2.6640	66.489
2.6626	66.667
2.6613	66.784
2.6599	66.874
2.6585	66.926
2.6572	66.958
2.6558	66.998
2.6545	67.047
2.6531	67.078
2.6517	67.117
2.6504	67.160
2.6490	67.234
2.6477	67.309
2.6463	67.326
2.6450	67.387
2.6436	67.470
2.6423	67.525
2.6409	67.602
2.6396	67.601
2.6382	67.598
2.6369	67.601
2.6356	67.595
2.6342	67.595
2.6329	67.661
2.6315	67.650
2.6302	67.563
2.6289	67.600
2.6275	67.663
2.6262	67.686
2.6249	67.704
2.6236	67.717
2.6222	67.677
2.6209	67.644
2.6196	67.715
2.6183	67.819
2.6169	67.746
2.6156	67.826
2.6143	67.863
2.6130	67.846
2.6117	67.894
2.6103	67.904
2.6090	67.899
2.6077	67.926
2.6064	67.873
2.6051	67.874
2.6038	67.961
2.6025	67.965
2.6012	68.026
2.5999	68.085
2.5986	68.033
2.5973	68.017
2.5960	67.910
2.5947	67.788
2.5934	67.894
2.5921	68.020
2.5908	68.051
2.5895	68.095
2.5882	68.018
2.5869	67.987
2.5856	68.036
2.5843	68.032
2.5830	68.044
2.5817	68.069
2.5805	68.033
2.5792	68.022
2.5779	68.049
2.5766	67.964
2.5753	67.967
2.5741	67.989
2.5728	67.966
2.5715	68.011
2.5702	67.993
2.5690	67.984
2.5677	67.971
2.5664	67.975
2.5651	68.002
2.5639	67.960
2.5626	67.882
2.5613	67.848
2.5601	67.933
2.5588	67.952
2.5575	67.930
2.5563	67.936
2.5550	67.998
2.5538	67.963
2.5525	67.906
2.5513	67.929
2.5500	67.893
2.5487	67.877
2.5475	67.924
2.5462	67.936
2.5450	67.955
2.5437	67.938
2.5425	67.909
2.5413	67.855
2.5400	67.852
2.5388	67.809
2.5375	67.803
2.5363	67.749
2.5350	67.698
2.5338	67.743
2.5326	67.754
2.5313	67.717
2.5301	67.695
2.5289	67.727
2.5276	67.790
2.5264	67.740
2.5252	67.704
2.5239	67.742
2.5227	67.692
2.5215	67.637
2.5202	67.600
2.5190	67.579
2.5178	67.706
2.5166	67.720
2.5154	67.649
2.5141	67.629
2.5129	67.645
2.5117	67.649
2.5105	67.566
2.5093	67.525
2.5081	67.557
2.5068	67.575
2.5056	67.629
2.5044	67.625
2.5032	67.565
2.5020	67.561
2.5008	67.608
2.4996	67.517
2.4984	67.532
2.4972	67.568
2.4960	67.559
2.4948	67.501
2.4936	67.425
2.4924	67.444
2.4912	67.438
2.4900	67.398
2.4888	67.415
2.4876	67.439
2.4864	67.404
2.4852	67.391
2.4840	67.402
2.4828	67.423
2.4816	67.464
2.4805	67.421
2.4793	67.425
2.4781	67.346
2.4769	67.396
2.4757	67.382
2.4745	67.351
2.4734	67.372
2.4722	67.330
2.4710	67.250
2.4698	67.281
2.4686	67.319
2.4675	67.302
2.4663	67.280
2.4651	67.310
2.4640	67.312
2.4628	67.255
2.4616	67.157
2.4604	67.218
2.4593	67.183
2.4581	67.203
2.4569	67.225
2.4558	67.227
2.4546	67.223
2.4535	67.215
2.4523	67.234
2.4511	67.273
2.4500	67.209
2.4488	67.112
2.4477	67.173
2.4465	67.226
2.4454	67.151
2.4442	67.112
2.4431	67.124
2.4419	67.134
2.4408	67.099
2.4396	67.063
2.4385	67.006
2.4373	67.011
2.4362	67.027
2.4350	67.008
2.4339	67.029
2.4327	67.006
2.4316	66.906
2.4305	66.869
2.4293	66.868
2.4282	66.810
2.4270	66.827
2.4259	66.765
2.4248	66.698
2.4236	66.673
2.4225	66.641
2.4214	66.620
2.4202	66.535
2.4191	66.422
2.4180	66.380
2.4169	66.327
2.4157	66.264
2.4146	66.254
2.4135	66.274
2.4124	66.239
2.4112	66.118
2.4101	66.059
2.4090	66.021
2.4079	65.970
2.4068	65.930
2.4056	65.893
2.4045	65.843
2.4034	65.839
2.4023	65.697
2.4012	65.629
2.4001	65.648
2.3990	65.624
2.3979	65.583
2.3967	65.610
2.3956	65.613
2.3945	65.542
2.3934	65.506
2.3923	65.520
2.3912	65.525
2.3901	65.589
2.3890	65.666
2.3879	65.658
2.3868	65.731
2.3857	65.760
2.3846	65.723
2.3835	65.730
2.3824	65.759
2.3813	65.809
2.3802	65.879
2.3791	65.940
2.3781	65.890
2.3770	65.942
2.3759	65.970
2.3748	65.933
2.3737	65.941
2.3726	65.936
2.3715	65.977
2.3704	66.017
2.3694	66.058
2.3683	66.056
2.3672	65.958
2.3661	65.909
2.3650	65.895
2.3640	65.815
2.3629	65.758
2.3618	65.744
2.3607	65.730
2.3597	65.647
2.3586	65.499
2.3575	65.508
2.3564	65.384
2.3554	65.320
2.3543	65.384
2.3532	65.294
2.3522	65.227
2.3511	65.210
2.3500	65.068
2.3490	64.999
2.3479	65.034
2.3468	64.960
2.3458	64.864
2.3447	64.811
2.3436	64.818
2.3426	64.732
2.3415	64.578
2.3405	64.579
2.3394	64.637
2.3384	64.575
2.3373	64.544
2.3363	64.544
2.3352	64.573
2.3342	64.572
2.3331	64.538
2.3321	64.595
2.3310	64.579
2.3300	64.556
2.3289	64.622
2.3279	64.730
2.3268	64.790
2.3258	64.800
2.3247	64.769
2.3237	64.833
2.3226	64.891
2.3216	64.916
2.3206	64.985
2.3195	65.049
2.3185	65.124
2.3175	65.256
2.3164	65.286
2.3154	65.283
2.3144	65.277
2.3133	65.350
2.3123	65.411
2.3113	65.458
2.3102	65.545
2.3092	65.561
2.3082	65.587
2.3071	65.651
2.3061	65.612
2.3051	65.675
2.3041	65.788
2.3030	65.837
2.3020	65.927
2.3010	65.967
2.3000	66.000
2.2990	66.096
2.2979	66.158
2.2969	66.206
2.2959	66.235
2.2949	66.302
2.2939	66.386
2.2929	66.516
2.2918	66.612
2.2908	66.665
2.2898	66.696
2.2888	66.744
2.2878	66.832
2.2868	66.948
2.2858	66.969
2.2848	66.959
2.2838	67.021
2.2828	67.151
2.2818	67.102
2.2808	67.116
2.2798	67.271
2.2787	67.308
2.2777	67.266
2.2767	67.283
2.2757	67.289
2.2747	67.297
2.2738	67.286
2.2728	67.298
2.2718	67.265
2.2708	67.231
2.2698	67.277
2.2688	67.185
2.2678	67.104
2.2668	67.155
2.2658	67.087
2.2648	67.123
2.2638	67.103
2.2628	67.066
2.2618	66.994
2.2609	66.911
2.2599	66.865
2.2589	66.816
2.2579	66.806
2.2569	66.776
2.2559	66.834
2.2550	66.805
2.2540	66.787
2.2530	66.772
2.2520	66.723
2.2510	66.851
2.2501	66.968
2.2491	66.897
2.2481	66.884
2.2471	66.960
2.2462	67.003
2.2452	67.072
2.2442	67.133
2.2433	67.130
2.2423	67.195
2.2413	67.230
2.2403	67.303
2.2394	67.442
2.2384	67.486
2.2374	67.464
2.2365	67.493
2.2355	67.579
2.2345	67.603
2.2336	67.580
2.2326	67.613
2.2317	67.723
2.2307	67.708
2.2297	67.644
2.2288	67.739
2.2278	67.737
2.2269	67.644
2.2259	67.661
2.2250	67.674
2.2240	67.756
2.2231	67.726
2.2221	67.680
2.2211	67.746
2.2202	67.868
2.2192	67.839
2.2183	67.686
2.2173	67.695
2.2164	67.782
2.2155	67.730
2.2145	67.673
2.2136	67.767
2.2126	67.768
2.2117	67.728
2.2107	67.753
2.2098	67.779
2.2088	67.739
2.2079	67.717
2.2070	67.721
2.2060	67.761
2.2051	67.817
2.2041	67.775
2.2032	67.741
2.2023	67.704
2.2013	67.727
2.2004	67.695
2.1995	67.658
2.1985	67.746
2.1976	67.757
2.1967	67.746
2.1957	67.705
2.1948	67.682
2.1939	67.705
2.1930	67.754
2.1920	67.773
2.1911	67.772
2.1902	67.768
2.1893	67.743
2.1883	67.782
2.1874	67.833
2.1865	67.892
2.1856	67.854
2.1846	67.838
2.1837	67.828
2.1828	67.816
2.1819	67.849
2.1810	67.800
2.1800	67.851
2.1791	67.955
2.1782	67.959
2.1773	67.884
2.1764	67.865
2.1755	67.941
2.1746	67.889
2.1736	67.859
2.1727	67.897
2.1718	67.900
2.1709	67.880
2.1700	67.865
2.1691	67.843
2.1682	67.793
2.1673	67.817
2.1664	67.936
2.1655	68.023
2.1646	67.934
2.1637	67.885
2.1628	67.892
2.1619	67.900
2.1610	67.875
2.1601	67.901
2.1592	67.965
2.1583	67.880
2.1574	67.789
2.1565	67.843
2.1556	67.876
2.1547	67.896
2.1538	67.904
2.1529	67.912
2.1520	67.946
2.1511	67.938
2.1502	67.859
2.1493	67.858
2.1484	67.877
2.1475	67.879
2.1466	67.804
2.1458	67.739
2.1449	67.753
2.1440	67.766
2.1431	67.776
2.1422	67.765
2.1413	67.843
2.1404	67.858
2.1396	67.808
2.1387	67.794
2.1378	67.799
2.1369	67.743
2.1360	67.712
2.1352	67.777
2.1343	67.771
2.1334	67.738
2.1325	67.770
2.1316	67.760
2.1308	67.807
2.1299	67.775
2.1290	67.768
2.1281	67.778
2.1273	67.837
2.1264	67.762
2.1255	67.687
2.1247	67.672
2.1238	67.701
2.1229	67.745
2.1220	67.789
2.1212	67.838
2.1203	67.787
2.1194	67.833
2.1186	67.745
2.1177	67.662
2.1168	67.746
2.1160	67.715
2.1151	67.684
2.1143	67.695
2.1134	67.748
2.1125	67.783
2.1117	67.710
2.1108	67.692
2.1100	67.754
2.1091	67.766
2.1082	67.722
2.1074	67.617
2.1065	67.641
2.1057	67.779
2.1048	67.742
2.1040	67.686
2.1031	67.742
2.1023	67.804
2.1014	67.713
2.1005	67.688
2.0997	67.716
2.0988	67.683
2.0980	67.694
2.0971	67.665
2.0963	67.748
2.0955	67.732
2.0946	67.674
2.0938	67.614
2.0929	67.744
2.0921	67.649
2.0912	67.639
2.0904	67.673
2.0895	67.763
2.0887	67.711
2.0879	67.694
2.0870	67.671
2.0862	67.618
2.0853	67.660
2.0845	67.650
2.0837	67.709
2.0828	67.794
2.0820	67.737
2.0812	67.691
2.0803	67.775
2.0795	67.720
2.0760	67.720
2.0720	67.799
2.0680	67.408
2.0640	67.130
2.0600	67.223
2.0560	67.322
2.0520	67.279
2.0480	67.124
2.0440	67.288
2.0400	66.792
2.0360	66.569
2.0320	66.091
2.0280	66.294
2.0240	66.549
2.0200	65.762
2.0160	65.671
2.0120	65.408
2.0080	65.762
2.0040	65.000
2.0000	64.653
1.9960	64.562
1.9920	64.562
1.9880	64.637
1.9840	63.995
1.9800	64.032
1.9760	64.362
1.9720	64.259
1.9680	63.791
1.9640	63.739
1.9600	63.558
1.9560	63.534
1.9520	63.653
1.9480	63.630
1.9440	63.528
1.9400	63.388
1.9360	62.973
1.9320	62.296
1.9280	62.505
1.9240	62.019
1.9200	61.639
1.9160	61.614
1.9120	61.337
1.9080	61.090
1.9040	61.026
1.9000	61.017
1.8960	61.318
1.8920	61.396
1.8880	61.881
1.8840	61.702
1.8800	61.346
1.8760	61.338
1.8720	61.541
1.8680	61.017
1.8640	60.595
1.8600	60.576
1.8560	60.522
1.8520	60.545
1.8480	60.545
1.8440	60.871
1.8400	61.019
1.8360	61.019
1.8320	60.862
1.8280	60.822
1.8240	60.715
1.8200	60.391
1.8160	60.158
1.8120	60.091
1.8080	59.837
1.8040	59.404
1.8000	59.492
1.7960	59.713
1.7920	59.370
1.7880	58.963
1.7840	58.921
1.7800	58.599
1.7760	58.521
1.7720	58.568
1.7680	58.480
1.7640	58.668
1.7600	58.626
1.7560	58.579
1.7520	58.626
1.7480	58.496
1.7440	58.001
1.7400	58.005
1.7360	58.192
1.7320	57.794
1.7280	57.349
1.7240	57.259
1.7200	57.259
1.7160	56.990
1.7120	56.852
1.7080	56.549
1.7040	56.625
1.7000	56.492
1.6960	56.051
1.6920	56.182
1.6880	55.919
1.6840	55.742
1.6800	55.433
1.6760	55.433
1.6720	55.301
1.6680	55.124
1.6640	55.257
1.6600	55.036
1.6560	54.827
1.6520	55.046
1.6480	54.957
1.6440	54.558
1.6400	54.075
1.6360	53.762
1.6320	53.855
1.6280	53.807
1.6240	53.620
1.6200	53.542
1.6160	53.280
1.6120	52.843
1.6080	52.750
1.6040	52.910
1.6000	53.088
1.5960	52.695
1.5920	52.564
1.5880	52.267
1.5840	51.926
1.5800	51.581
1.5760	51.697
1.5720	51.398
1.5680	51.310
1.5640	51.189
1.5600	51.215
1.5560	50.878
1.5520	50.716
1.5480	50.611
1.5440	50.258
1.5400	49.954
1.5360	49.837
1.5320	49.661
1.5280	49.641
1.5240	49.641
1.5200	49.425
1.5160	49.298
1.5120	49.095
1.5080	48.743
1.5040	48.456
1.5000	48.319
1.4960	47.601
1.4920	47.739
1.4880	47.577
1.4840	47.526
1.4800	47.399
1.4760	47.300
1.4720	47.125
1.4680	46.923
1.4640	46.711
1.4600	46.814
1.4560	46.660
1.4520	46.615
1.4480	46.387
1.4440	46.178
1.4400	46.021
1.4360	45.774
1.4320	45.596
1.4280	45.321
1.4240	45.020
1.4200	44.896
1.4160	44.522
1.4120	44.625
1.4080	44.516
1.4040	43.895
1.4000	43.924
1.3960	43.642
1.3920	43.271
1.3880	43.195
1.3840	43.084
1.3800	43.131
1.3760	43.029
1.3720	42.858
1.3680	42.790
1.3640	42.769
1.3600	42.434
1.3560	42.344
1.3520	42.205
1.3480	42.023
1.3440	42.014
1.3400	41.604
1.3360	41.699
1.3320	41.462
1.3280	41.082
1.3240	40.884
1.3200	40.984
1.3160	40.934
1.3120	40.723
1.3080	40.553
1.3040	40.496
1.3000	40.262
1.2960	40.116
1.2920	40.120
1.2880	39.858
1.2840	39.656
1.2800	39.421
1.2760	39.004
1.2720	38.707
1.2680	38.646
1.2640	38.527
1.2600	38.319
1.2560	38.260
1.2520	38.061
1.2480	38.000
1.2440	37.790
1.2400	37.907
1.2360	37.736
1.2320	37.354
1.2280	37.316
1.2240	37.134
1.2200	37.050
1.2160	37.135
1.2120	36.556
1.2080	36.328
1.2040	36.184
1.2000	36.157
1.1960	35.987
1.1920	35.793
1.1880	35.740
1.1840	35.510
1.1800	35.329
1.1760	35.369
1.1720	35.396
1.1680	35.153
1.1640	34.968
1.1600	34.844
1.1560	34.859
1.1520	34.823
1.1480	34.557
1.1440	34.415
1.1400	34.507
1.1360	34.663
1.1320	34.507
1.1280	34.622
1.1240	34.238
1.1200	34.111
1.1160	34.035
1.1120	33.921
1.1080	33.779
1.1040	33.804
1.1000	33.854
1.0960	33.690
1.0920	33.715
1.0880	33.488
1.0840	33.538
1.0800	33.370
1.0760	33.346
1.0720	33.296
1.0680	33.434
1.0640	33.174
1.0600	33.223
1.0560	33.134
1.0520	33.119
1.0480	33.006
1.0440	33.046
1.0400	32.837
1.0360	32.669
1.0320	32.765
1.0280	32.838
1.0240	32.846
1.0200	32.677
1.0160	32.612
1.0120	32.387
1.0080	32.322
1.0040	32.425
1.0000	32.305
0.9960	32.217
0.9920	32.045
0.9880	31.963
0.9840	32.057
0.9800	31.815
0.9760	31.870
0.9720	31.600
0.9680	31.492
0.9640	31.427
0.9600	31.270
0.9560	31.273
0.9520	31.161
0.9480	30.984
0.9440	30.896
0.9400	30.906
0.9360	30.951
0.9320	30.795
0.9280	30.617
0.9240	30.662
0.9200	30.486
0.9160	30.398
0.9120	30.398
0.9080	30.410
0.9040	30.332
0.9000	30.387
0.8960	30.454
0.8920	30.366
0.8880	30.344
0.8840	30.145
0.8800	30.302
0.8760	30.213
0.8720	30.235
0.8680	30.147
0.8640	30.192
0.8600	30.237
0.8560	30.304
0.8520	30.037
0.8480	30.059
0.8440	30.014
0.8400	29.859
0.8360	29.903
0.8320	29.903
0.8280	29.925
0.8240	29.881
0.8200	30.036
0.8160	29.772
0.8120	29.948
0.8080	29.816
0.8040	29.817
0.8000	29.687
0.7990	28.655
0.7980	28.655
0.7970	28.562
0.7960	28.755
0.7950	29.133
0.7940	28.846
0.7930	28.704
0.7920	28.638
0.7910	28.565
0.7900	28.516
0.7890	28.559
0.7880	28.608
0.7870	28.421
0.7860	28.153
0.7850	28.364
0.7840	28.506
0.7830	28.629
0.7820	28.537
0.7810	28.318
0.7800	28.222
0.7790	28.174
0.7780	28.225
0.7770	28.197
0.7760	28.105
0.7750	28.129
0.7740	28.077
0.7730	28.197
0.7720	28.097
0.7710	28.264
0.7700	28.266
0.7690	28.218
0.7680	27.954
0.7670	27.978
0.7660	27.930
0.7650	27.738
0.7640	27.946
0.7630	27.834
0.7620	27.690
0.7610	27.666
0.7600	27.762
0.7590	27.786
0.7580	27.947
0.7570	27.593
0.7560	27.402
0.7550	27.283
0.7540	27.168
0.7530	27.353
0.7520	27.497
0.7510	27.449
0.7500	27.188
0.7490	27.394
0.7480	27.164
0.7470	27.141
0.7460	27.187
0.7450	27.281
0.7440	27.208
0.7430	27.393
0.7420	27.114
0.7410	27.177
0.7400	27.231
0.7390	27.177
0.7380	27.091
0.7370	27.039
0.7360	27.175
0.7350	26.823
0.7340	26.919
0.7330	26.781
0.7320	26.877
0.7310	27.083
0.7300	27.057
0.7290	26.873
0.7280	27.008
0.7270	27.172
0.7260	26.982
0.7250	26.846
0.7240	27.008
0.7230	27.079
0.7220	27.128
0.7210	27.032
0.7200	26.673
0.7190	26.796
0.7180	26.719
0.7170	26.703
0.7160	26.796
0.7150	26.696
0.7140	26.511
0.7130	26.749
0.7120	26.865
0.7110	26.789
0.7100	26.648
0.7090	26.438
0.7080	26.415
0.7070	26.812
0.7060	26.719
0.7050	26.789
0.7040	26.550
0.7030	26.665
0.7020	26.879
0.7010	26.950
0.7000	26.926
0.6990	26.929
0.6980	27.086
0.6970	27.040
0.6960	27.067
0.6950	27.508
0.6940	27.408
0.6930	27.408
0.6920	27.384
0.6910	27.507
0.6900	27.210
0.6890	26.913
0.6880	27.010
0.6870	27.013
0.6860	26.986
0.6850	27.185
0.6840	27.088
0.6830	27.187
0.6820	27.457
0.6810	27.112
0.6800	27.161
0.6790	26.915
0.6780	27.112
0.6770	27.111
0.6760	26.962
0.6750	27.284
0.6740	27.581
0.6730	27.482
0.6720	27.581
0.6710	27.284
0.6700	27.160
0.6690	27.258
0.6680	27.111
0.6670	27.259
0.6660	27.308
0.6650	27.259
0.6640	27.233
0.6630	27.482
0.6620	27.332
0.6610	27.432
0.6600	27.333
0.6590	27.184
0.6580	27.184
0.6570	27.184
0.6560	27.111
0.6550	27.482
0.6540	27.382
0.6530	27.210
0.6520	27.382
0.6510	27.557
0.6500	27.606
0.6490	27.432
0.6480	27.284
0.6470	27.283
0.6460	27.308
0.6450	27.308
0.6440	27.308
0.6430	27.382
0.6420	27.407
0.6410	27.631
0.6400	27.730
0.6390	27.806
0.6380	27.581
0.6370	27.482
0.6360	27.631
0.6350	27.606
0.6340	27.382
0.6330	27.283
0.6320	27.308
0.6310	27.358
0.6300	27.507
0.6290	27.507
0.6280	27.531
0.6270	27.507
0.6260	27.557
0.6250	27.657
0.6240	27.606
0.6230	27.831
0.6220	27.757
0.6210	27.831
0.6200	27.731
0.6190	27.757
0.6180	27.632
0.6170	27.481
0.6160	27.457
0.6150	27.207
0.6140	27.232
0.6130	27.382
0.6120	27.382
0.6110	27.432
0.6100	27.557
0.6090	27.657
0.6080	27.582
0.6070	27.457
0.6060	27.582
0.6050	27.481
0.6040	27.532
0.6030	27.356
0.6020	27.356
0.6010	27.256
0.6000	27.279
0.5990	27.203
0.5980	27.253
0.5970	27.304
0.5960	27.405
0.5950	27.456
0.5940	27.481
0.5930	27.456
0.5920	27.430
0.5910	27.430
0.5900	27.430
0.5890	27.558
0.5880	27.430
0.5870	27.430
0.5860	27.276
0.5850	27.302
0.5840	27.532
0.5830	27.583
0.5820	27.456
0.5810	27.304
0.5800	27.001
0.5790	27.026
0.5780	26.900
0.5770	26.824
0.5760	27.304
0.5750	27.304
0.5740	27.431
0.5730	27.532
0.5720	27.207
0.5710	27.207
0.5700	27.083
0.5690	27.083
0.5680	27.009
0.5670	27.257
0.5660	27.356
0.5650	27.054
0.5640	26.881
0.5630	27.155
0.5620	27.180
0.5610	27.104
0.5600	27.203
0.5590	27.051
0.5580	25.656
0.5570	25.823
0.5560	25.756
0.5550	25.948
0.5540	25.952
0.5530	25.808
0.5520	25.923
0.5510	25.679
0.5500	25.810
0.5490	25.612
0.5480	25.845
0.5470	25.706
0.5460	25.729
0.5450	25.512
0.5440	25.504
0.5430	25.504
0.5420	25.506
0.5410	25.670
0.5400	25.386
0.5390	25.453
0.5380	25.519
0.5370	25.384
0.5360	25.406
0.5350	25.421
0.5340	25.347
0.5330	25.150
0.5320	24.890
0.5310	24.857
0.5300	24.879
0.5290	24.998
0.5280	24.879
0.5270	24.966
0.5260	24.966
0.5250	24.977
0.5240	24.833
0.5230	24.725
0.5220	24.565
0.5210	24.662
0.5200	24.660
0.5190	24.746
0.5180	24.746
0.5170	24.748
0.5160	24.694
0.5150	24.639
0.5140	24.532
0.5130	24.281
0.5120	24.302
0.5110	24.279
0.5100	24.022
0.5090	24.064
0.5080	23.950
0.5070	23.914
0.5060	23.976
0.5050	24.085
0.5040	23.821
0.5030	23.800
0.5020	23.579
0.5010	23.663
0.5000	23.681
0.4990	23.583
0.4980	23.502
0.4970	23.522
0.4960	23.482
0.4950	23.386
0.4940	23.170
0.4930	23.206
0.4920	23.266
0.4910	23.266
0.4900	23.230
0.4890	23.212
0.4880	23.230
0.4870	23.015
0.4860	22.997
0.4850	22.821
0.4840	22.821
0.4830	22.800
0.4820	22.704
0.4810	22.723
0.4800	22.548
0.4790	22.625
0.4780	22.409
0.4770	22.586
0.4760	22.586
0.4750	22.197
0.4740	22.019
0.4730	21.941
0.4720	21.905
0.4710	22.003
0.4700	21.905
0.4690	21.807
0.4680	21.866
0.4670	21.825
0.4660	21.728
0.4650	21.844
0.4640	21.649
0.4630	21.612
0.4620	21.559
0.4610	21.559
0.4600	21.285
0.4590	22.049
0.4580	21.976
0.4570	22.002
0.4560	21.720
0.4550	21.538
0.4540	21.421
0.4530	21.538
0.4520	21.508
0.4510	21.608
0.4500	21.561
0.4490	21.373
0.4480	21.543
0.4470	21.459
0.4460	21.207
0.4450	21.055
0.4440	21.222
0.4430	21.341
0.4420	21.171
0.4410	20.818
0.4400	21.005
0.4390	20.786
0.4380	20.835
0.4370	20.713
0.4360	20.814
0.4350	20.880
0.4340	20.727
0.4330	20.593
0.4320	20.556
0.4310	20.776
0.4300	20.586
0.4290	20.522
0.4280	20.315
0.4270	20.306
0.4260	20.040
0.4250	20.217
0.4240	19.906
0.4230	19.953
0.4220	19.997
0.4210	19.790
0.4200	19.717
0.4190	19.743
0.4180	19.847
0.4170	19.932
0.4160	19.829
0.4150	19.754
0.4140	19.625
0.4130	19.478
0.4120	19.464
0.4110	19.394
0.4100	19.218
0.4090	19.218
0.4080	19.320
0.4070	19.272
0.4060	19.211
0.4050	19.184
0.4040	19.225
0.4030	19.109
0.4020	19.136
0.4010	19.059
0.4000	18.617
