Name: Picrite
Type: Rocks
Class: Igneous
Subclass: Ultramafic
Particle Size: 0-75 micrometers
Sample No.: Picrite.H1
Owner: JHU
Wavelength range: All
Origin: from Kilauea, via Rosalind Helz, USGS, Reston, VA (Cat. No. KI 
81-1-210.0)
Description: The sample from which the powder was derived is dark gray 
porphyritic rock.  Green olivine phenocrysts 1-8 mm in size make up about 
8% of the rock.  There are also opaque grains less than or equal to1 mm in 
size.  The groundmass is dark gray and very fine-grained.


Measurement: Directional (10 degree) hemispherical reflectance
First Column: X
Second Column: Y
X Units: Wavelength (micrometers)
Y Units: Reflectance (percent)
First X Value: 14.0112
Last X Value: 0.4000
Number of X Values: 2844
Additional information: picrit1a.txt

14.011	2.3981
13.973	2.4581
13.936	2.5259
13.899	2.6149
13.861	2.7328
13.824	2.8730
13.788	3.0166
13.751	3.1392
13.715	3.2234
13.679	3.2670
13.643	3.2813
13.607	3.2859
13.571	3.3036
13.536	3.3483
13.500	3.4207
13.465	3.5081
13.430	3.5935
13.396	3.6647
13.361	3.7179
13.327	3.7582
13.293	3.7971
13.259	3.8459
13.225	3.9086
13.191	3.9808
13.158	4.0498
13.124	4.1025
13.091	4.1292
13.058	4.1273
13.026	4.1053
12.993	4.0793
12.960	4.0678
12.928	4.0839
12.896	4.1317
12.864	4.2049
12.832	4.2898
12.800	4.3696
12.769	4.4335
12.737	4.4761
12.706	4.5005
12.675	4.5122
12.644	4.5178
12.614	4.5215
12.583	4.5246
12.552	4.5244
12.522	4.5187
12.492	4.5059
12.462	4.4845
12.432	4.4555
12.402	4.4205
12.373	4.3828
12.343	4.3425
12.314	4.2979
12.285	4.2447
12.256	4.1771
12.227	4.0894
12.198	3.9787
12.169	3.8482
12.141	3.7034
12.113	3.5517
12.084	3.4000
12.056	3.2536
12.028	3.1151
12.000	2.9873
11.973	2.8739
11.945	2.7808
11.918	2.7153
11.890	2.6834
11.863	2.6876
11.836	2.7251
11.809	2.7891
11.782	2.8676
11.755	2.9475
11.729	3.0187
11.702	3.0764
11.676	3.1226
11.650	3.1647
11.624	3.2137
11.598	3.2796
11.572	3.3684
11.546	3.4781
11.520	3.6010
11.495	3.7265
11.469	3.8442
11.444	3.9462
11.419	4.0294
11.394	4.0945
11.369	4.1444
11.344	4.1815
11.319	4.2075
11.294	4.2232
11.270	4.2296
11.245	4.2281
11.221	4.2199
11.197	4.2075
11.173	4.1932
11.149	4.1779
11.125	4.1636
11.101	4.1510
11.077	4.1428
11.054	4.1407
11.030	4.1468
11.007	4.1611
10.983	4.1824
10.960	4.2077
10.937	4.2324
10.914	4.2535
10.891	4.2701
10.868	4.2829
10.846	4.2947
10.823	4.3073
10.800	4.3223
10.778	4.3385
10.755	4.3542
10.733	4.3675
10.711	4.3779
10.689	4.3842
10.667	4.3839
10.645	4.3717
10.623	4.3395
10.602	4.2778
10.580	4.1794
10.558	4.0436
10.537	3.8789
10.516	3.7017
10.494	3.5320
10.473	3.3881
10.452	3.2813
10.431	3.2114
10.410	3.1706
10.389	3.1462
10.368	3.1280
10.348	3.1111
10.327	3.0972
10.306	3.0904
10.286	3.0930
10.266	3.1021
10.245	3.1120
10.225	3.1132
10.205	3.0994
10.185	3.0680
10.165	3.0225
10.145	2.9681
10.125	2.9124
10.106	2.8610
10.086	2.8197
10.066	2.7917
10.047	2.7771
10.027	2.7757
10.008	2.7839
9.9887	2.7975
9.9695	2.8117
9.9504	2.8247
9.9313	2.8356
9.9123	2.8472
9.8934	2.8615
9.8746	2.8797
9.8558	2.9008
9.8371	2.9220
9.8185	2.9400
9.7999	2.9527
9.7814	2.9597
9.7630	2.9639
9.7447	2.9678
9.7264	2.9742
9.7082	2.9829
9.6900	2.9920
9.6719	2.9986
9.6539	2.9997
9.6360	2.9946
9.6181	2.9834
9.6003	2.9681
9.5825	2.9503
9.5649	2.9311
9.5472	2.9112
9.5297	2.8910
9.5122	2.8699
9.4948	2.8481
9.4774	2.8249
9.4601	2.8003
9.4429	2.7727
9.4257	2.7415
9.4086	2.7047
9.3916	2.6616
9.3746	2.6104
9.3577	2.5509
9.3408	2.4837
9.3240	2.4098
9.3073	2.3330
9.2906	2.2568
9.2740	2.1849
9.2574	2.1197
9.2409	2.0623
9.2245	2.0121
9.2081	1.9680
9.1918	1.9294
9.1755	1.8954
9.1593	1.8663
9.1431	1.8424
9.1270	1.8225
9.1110	1.8057
9.0950	1.7901
9.0791	1.7747
9.0632	1.7580
9.0474	1.7407
9.0316	1.7236
9.0159	1.7072
9.0003	1.6910
8.9847	1.6743
8.9691	1.6558
8.9536	1.6350
8.9382	1.6114
8.9228	1.5853
8.9075	1.5579
8.8922	1.5296
8.8770	1.5002
8.8618	1.4700
8.8467	1.4393
8.8316	1.4093
8.8166	1.3812
8.8016	1.3568
8.7867	1.3379
8.7718	1.3244
8.7570	1.3167
8.7423	1.3143
8.7275	1.3160
8.7129	1.3198
8.6982	1.3239
8.6837	1.3282
8.6692	1.3315
8.6547	1.3343
8.6403	1.3380
8.6259	1.3444
8.6116	1.3538
8.5973	1.3664
8.5830	1.3818
8.5688	1.3995
8.5547	1.4175
8.5406	1.4356
8.5266	1.4538
8.5126	1.4735
8.4986	1.4948
8.4847	1.5187
8.4708	1.5459
8.4570	1.5766
8.4432	1.6101
8.4295	1.6462
8.4158	1.6852
8.4022	1.7271
8.3886	1.7728
8.3750	1.8223
8.3615	1.8753
8.3481	1.9298
8.3347	1.9847
8.3213	2.0379
8.3079	2.0899
8.2946	2.1421
8.2814	2.1971
8.2682	2.2575
8.2550	2.3262
8.2419	2.4047
8.2288	2.4935
8.2158	2.5927
8.2028	2.7014
8.1898	2.8193
8.1769	2.9457
8.1640	3.0804
8.1512	3.2238
8.1384	3.3761
8.1256	3.5376
8.1129	3.7076
8.1002	3.8855
8.0876	4.0701
8.0750	4.2607
8.0624	4.4561
8.0499	4.6561
8.0374	4.8595
8.0250	5.0651
8.0126	5.2711
8.0002	5.4756
7.9879	5.6779
7.9756	5.8774
7.9634	6.0740
7.9512	6.2691
7.9390	6.4631
7.9268	6.6560
7.9147	6.8475
7.9027	7.0361
7.8906	7.2204
7.8786	7.3990
7.8667	7.5719
7.8548	7.7410
7.8429	7.9085
7.8310	8.0789
7.8192	8.2549
7.8075	8.4379
7.7957	8.6264
7.7840	8.8171
7.7723	9.0060
7.7607	9.1903
7.7491	9.3677
7.7375	9.5384
7.7260	9.7036
7.7145	9.8649
7.7031	10.023
7.6916	10.177
7.6802	10.327
7.6689	10.472
7.6575	10.610
7.6462	10.741
7.6350	10.865
7.6238	10.985
7.6126	11.105
7.6014	11.229
7.5903	11.360
7.5792	11.500
7.5681	11.650
7.5571	11.808
7.5461	11.973
7.5351	12.142
7.5242	12.314
7.5133	12.489
7.5024	12.666
7.4916	12.847
7.4807	13.030
7.4700	13.214
7.4592	13.397
7.4485	13.578
7.4378	13.756
7.4272	13.934
7.4165	14.111
7.4059	14.289
7.3954	14.467
7.3848	14.645
7.3743	14.821
7.3639	14.993
7.3534	15.159
7.3430	15.315
7.3326	15.460
7.3223	15.594
7.3119	15.716
7.3016	15.829
7.2914	15.935
7.2811	16.036
7.2709	16.135
7.2607	16.235
7.2506	16.338
7.2404	16.445
7.2303	16.558
7.2203	16.676
7.2102	16.797
7.2002	16.920
7.1902	17.041
7.1803	17.158
7.1703	17.270
7.1604	17.377
7.1506	17.479
7.1407	17.579
7.1309	17.678
7.1211	17.775
7.1113	17.872
7.1016	17.971
7.0919	18.071
7.0822	18.176
7.0725	18.288
7.0629	18.410
7.0533	18.543
7.0437	18.687
7.0341	18.840
7.0246	18.999
7.0151	19.161
7.0056	19.323
6.9962	19.482
6.9867	19.636
6.9773	19.783
6.9679	19.924
6.9586	20.059
6.9493	20.187
6.9400	20.308
6.9307	20.422
6.9214	20.526
6.9122	20.619
6.9030	20.701
6.8938	20.772
6.8847	20.833
6.8755	20.888
6.8664	20.939
6.8573	20.986
6.8483	21.033
6.8393	21.078
6.8302	21.125
6.8213	21.175
6.8123	21.230
6.8034	21.292
6.7944	21.361
6.7855	21.435
6.7767	21.509
6.7678	21.579
6.7590	21.642
6.7502	21.695
6.7414	21.738
6.7327	21.773
6.7239	21.802
6.7152	21.826
6.7065	21.847
6.6979	21.865
6.6892	21.881
6.6806	21.893
6.6720	21.903
6.6634	21.912
6.6549	21.923
6.6464	21.936
6.6378	21.952
6.6294	21.970
6.6209	21.988
6.6124	22.003
6.6040	22.013
6.5956	22.016
6.5872	22.015
6.5789	22.012
6.5705	22.009
6.5622	22.007
6.5539	22.008
6.5456	22.012
6.5374	22.019
6.5292	22.029
6.5209	22.044
6.5128	22.065
6.5046	22.094
6.4964	22.128
6.4883	22.169
6.4802	22.215
6.4721	22.263
6.4640	22.313
6.4560	22.365
6.4480	22.419
6.4399	22.476
6.4320	22.537
6.4240	22.602
6.4160	22.671
6.4081	22.744
6.4002	22.818
6.3923	22.891
6.3844	22.962
6.3766	23.029
6.3687	23.090
6.3609	23.146
6.3531	23.195
6.3454	23.240
6.3376	23.280
6.3299	23.318
6.3221	23.355
6.3144	23.393
6.3068	23.432
6.2991	23.474
6.2914	23.518
6.2838	23.564
6.2762	23.614
6.2686	23.666
6.2611	23.718
6.2535	23.770
6.2460	23.820
6.2385	23.867
6.2310	23.909
6.2235	23.948
6.2160	23.983
6.2086	24.012
6.2011	24.034
6.1937	24.046
6.1863	24.047
6.1790	24.036
6.1716	24.014
6.1643	23.982
6.1570	23.940
6.1496	23.890
6.1424	23.832
6.1351	23.765
6.1278	23.687
6.1206	23.597
6.1134	23.494
6.1062	23.375
6.0990	23.236
6.0918	23.073
6.0847	22.882
6.0776	22.660
6.0704	22.407
6.0633	22.128
6.0563	21.835
6.0492	21.542
6.0421	21.268
6.0351	21.030
6.0281	20.842
6.0211	20.713
6.0141	20.646
6.0071	20.639
6.0002	20.683
5.9932	20.770
5.9863	20.888
5.9794	21.026
5.9725	21.173
5.9657	21.322
5.9588	21.467
5.9520	21.604
5.9451	21.732
5.9383	21.851
5.9315	21.959
5.9247	22.057
5.9180	22.144
5.9112	22.224
5.9045	22.297
5.8978	22.369
5.8911	22.444
5.8844	22.525
5.8777	22.616
5.8711	22.715
5.8644	22.822
5.8578	22.931
5.8512	23.039
5.8446	23.145
5.8380	23.248
5.8314	23.348
5.8249	23.449
5.8184	23.554
5.8118	23.663
5.8053	23.776
5.7988	23.888
5.7923	23.994
5.7859	24.087
5.7794	24.160
5.7730	24.208
5.7666	24.228
5.7602	24.218
5.7538	24.177
5.7474	24.105
5.7410	24.004
5.7347	23.875
5.7283	23.723
5.7220	23.550
5.7157	23.362
5.7094	23.163
5.7031	22.954
5.6969	22.738
5.6906	22.518
5.6844	22.300
5.6782	22.088
5.6719	21.892
5.6657	21.719
5.6596	21.578
5.6534	21.477
5.6472	21.421
5.6411	21.414
5.6349	21.456
5.6288	21.547
5.6227	21.681
5.6166	21.855
5.6106	22.065
5.6045	22.305
5.5984	22.570
5.5924	22.851
5.5864	23.135
5.5804	23.413
5.5744	23.670
5.5684	23.898
5.5624	24.093
5.5564	24.254
5.5505	24.386
5.5445	24.493
5.5386	24.580
5.5327	24.651
5.5268	24.709
5.5209	24.756
5.5151	24.791
5.5092	24.816
5.5033	24.832
5.4975	24.843
5.4917	24.849
5.4859	24.857
5.4801	24.869
5.4743	24.891
5.4685	24.927
5.4628	24.979
5.4570	25.048
5.4513	25.132
5.4455	25.229
5.4398	25.335
5.4341	25.447
5.4284	25.565
5.4228	25.686
5.4171	25.810
5.4114	25.938
5.4058	26.067
5.4002	26.195
5.3945	26.322
5.3889	26.446
5.3833	26.566
5.3778	26.681
5.3722	26.791
5.3666	26.895
5.3611	26.992
5.3555	27.081
5.3500	27.161
5.3445	27.231
5.3390	27.293
5.3335	27.347
5.3280	27.397
5.3225	27.445
5.3171	27.492
5.3116	27.539
5.3062	27.585
5.3008	27.628
5.2954	27.669
5.2900	27.706
5.2846	27.742
5.2792	27.778
5.2738	27.814
5.2684	27.854
5.2631	27.899
5.2578	27.952
5.2524	28.014
5.2471	28.087
5.2418	28.173
5.2365	28.271
5.2312	28.381
5.2260	28.502
5.2207	28.629
5.2154	28.763
5.2102	28.898
5.2050	29.034
5.1998	29.170
5.1945	29.305
5.1893	29.437
5.1842	29.568
5.1790	29.698
5.1738	29.828
5.1686	29.958
5.1635	30.089
5.1584	30.220
5.1532	30.349
5.1481	30.476
5.1430	30.599
5.1379	30.719
5.1328	30.834
5.1277	30.944
5.1227	31.049
5.1176	31.148
5.1126	31.240
5.1075	31.327
5.1025	31.410
5.0975	31.490
5.0925	31.570
5.0875	31.652
5.0825	31.733
5.0775	31.815
5.0726	31.896
5.0676	31.976
5.0627	32.056
5.0577	32.136
5.0528	32.216
5.0479	32.298
5.0430	32.379
5.0380	32.459
5.0332	32.536
5.0283	32.608
5.0234	32.676
5.0185	32.740
5.0137	32.799
5.0088	32.853
5.0040	32.904
4.9992	32.949
4.9944	32.992
4.9896	33.034
4.9848	33.080
4.9800	33.135
4.9752	33.204
4.9704	33.294
4.9657	33.408
4.9609	33.548
4.9562	33.716
4.9514	33.912
4.9467	34.132
4.9420	34.373
4.9373	34.632
4.9326	34.906
4.9279	35.192
4.9232	35.488
4.9186	35.795
4.9139	36.111
4.9092	36.433
4.9046	36.758
4.9000	37.081
4.8953	37.396
4.8907	37.701
4.8861	37.990
4.8815	38.264
4.8769	38.521
4.8723	38.764
4.8678	38.992
4.8632	39.208
4.8586	39.413
4.8541	39.607
4.8495	39.792
4.8450	39.968
4.8405	40.136
4.8360	40.295
4.8315	40.447
4.8270	40.594
4.8225	40.737
4.8180	40.876
4.8135	41.014
4.8090	41.148
4.8046	41.280
4.8001	41.408
4.7957	41.533
4.7913	41.656
4.7868	41.776
4.7824	41.895
4.7780	42.012
4.7736	42.127
4.7692	42.241
4.7648	42.355
4.7605	42.469
4.7561	42.584
4.7517	42.702
4.7474	42.822
4.7431	42.944
4.7387	43.067
4.7344	43.191
4.7301	43.316
4.7258	43.441
4.7215	43.567
4.7172	43.692
4.7129	43.817
4.7086	43.940
4.7043	44.059
4.7000	44.175
4.6958	44.288
4.6915	44.398
4.6873	44.508
4.6831	44.620
4.6788	44.736
4.6746	44.856
4.6704	44.981
4.6662	45.106
4.6620	45.231
4.6578	45.353
4.6536	45.471
4.6495	45.584
4.6453	45.696
4.6411	45.806
4.6370	45.916
4.6328	46.027
4.6287	46.140
4.6246	46.253
4.6205	46.366
4.6163	46.479
4.6122	46.593
4.6081	46.705
4.6040	46.815
4.6000	46.923
4.5959	47.027
4.5918	47.129
4.5877	47.229
4.5837	47.329
4.5796	47.430
4.5756	47.531
4.5716	47.632
4.5675	47.732
4.5635	47.832
4.5595	47.932
4.5555	48.034
4.5515	48.139
4.5475	48.244
4.5435	48.350
4.5395	48.453
4.5356	48.552
4.5316	48.644
4.5276	48.730
4.5237	48.810
4.5197	48.886
4.5158	48.960
4.5119	49.033
4.5080	49.106
4.5040	49.179
4.5001	49.250
4.4962	49.319
4.4923	49.385
4.4884	49.451
4.4846	49.518
4.4807	49.585
4.4768	49.655
4.4730	49.725
4.4691	49.793
4.4652	49.857
4.4614	49.917
4.4576	49.973
4.4537	50.027
4.4499	50.082
4.4461	50.139
4.4423	50.199
4.4385	50.260
4.4347	50.322
4.4309	50.382
4.4271	50.440
4.4233	50.495
4.4196	50.550
4.4158	50.603
4.4120	50.655
4.4083	50.707
4.4045	50.759
4.4008	50.811
4.3971	50.862
4.3934	50.914
4.3896	50.966
4.3859	51.018
4.3822	51.070
4.3785	51.121
4.3748	51.172
4.3711	51.222
4.3674	51.272
4.3638	51.322
4.3601	51.373
4.3564	51.423
4.3528	51.473
4.3491	51.524
4.3455	51.575
4.3418	51.627
4.3382	51.678
4.3346	51.728
4.3310	51.778
4.3273	51.826
4.3237	51.873
4.3201	51.921
4.3165	51.970
4.3129	52.019
4.3094	52.069
4.3058	52.119
4.3022	52.168
4.2986	52.217
4.2951	52.267
4.2915	52.318
4.2880	52.370
4.2844	52.422
4.2809	52.472
4.2774	52.520
4.2738	52.563
4.2703	52.601
4.2668	52.636
4.2633	52.670
4.2598	52.705
4.2563	52.744
4.2528	52.787
4.2493	52.835
4.2458	52.885
4.2424	52.937
4.2389	52.986
4.2354	53.032
4.2320	53.073
4.2285	53.110
4.2251	53.144
4.2216	53.176
4.2182	53.205
4.2148	53.232
4.2113	53.258
4.2079	53.284
4.2045	53.312
4.2011	53.345
4.1977	53.384
4.1943	53.428
4.1909	53.476
4.1875	53.523
4.1841	53.565
4.1808	53.600
4.1774	53.628
4.1740	53.651
4.1707	53.674
4.1673	53.699
4.1640	53.730
4.1606	53.764
4.1573	53.801
4.1540	53.838
4.1506	53.874
4.1473	53.908
4.1440	53.940
4.1407	53.972
4.1374	54.004
4.1341	54.035
4.1308	54.065
4.1275	54.095
4.1242	54.123
4.1209	54.150
4.1177	54.177
4.1144	54.203
4.1111	54.229
4.1079	54.253
4.1046	54.277
4.1014	54.301
4.0981	54.325
4.0949	54.349
4.0917	54.375
4.0884	54.401
4.0852	54.426
4.0820	54.449
4.0788	54.470
4.0756	54.488
4.0724	54.505
4.0692	54.520
4.0660	54.534
4.0628	54.549
4.0596	54.564
4.0565	54.580
4.0533	54.597
4.0501	54.613
4.0470	54.627
4.0438	54.639
4.0406	54.647
4.0375	54.654
4.0344	54.659
4.0312	54.665
4.0281	54.673
4.0250	54.683
4.0218	54.695
4.0187	54.709
4.0156	54.726
4.0125	54.746
4.0094	54.769
4.0063	54.795
4.0032	54.824
4.0001	54.853
3.9970	54.883
3.9940	54.912
3.9909	54.940
3.9878	54.968
3.9847	54.995
3.9817	55.022
3.9786	55.047
3.9756	55.071
3.9725	55.093
3.9695	55.115
3.9665	55.137
3.9634	55.159
3.9604	55.182
3.9574	55.206
3.9544	55.229
3.9513	55.250
3.9483	55.269
3.9453	55.286
3.9423	55.299
3.9393	55.308
3.9363	55.314
3.9333	55.317
3.9304	55.318
3.9274	55.319
3.9244	55.322
3.9214	55.327
3.9185	55.335
3.9155	55.344
3.9126	55.354
3.9096	55.363
3.9067	55.371
3.9037	55.379
3.9008	55.385
3.8979	55.392
3.8949	55.398
3.8920	55.406
3.8891	55.414
3.8862	55.423
3.8833	55.431
3.8804	55.438
3.8775	55.444
3.8746	55.447
3.8717	55.447
3.8688	55.443
3.8659	55.438
3.8630	55.431
3.8601	55.426
3.8573	55.422
3.8544	55.422
3.8515	55.424
3.8487	55.428
3.8458	55.433
3.8430	55.437
3.8401	55.443
3.8373	55.448
3.8344	55.454
3.8316	55.460
3.8288	55.465
3.8259	55.467
3.8231	55.467
3.8203	55.464
3.8175	55.460
3.8147	55.456
3.8119	55.454
3.8091	55.455
3.8063	55.458
3.8035	55.464
3.8007	55.469
3.7979	55.472
3.7951	55.472
3.7924	55.466
3.7896	55.456
3.7868	55.442
3.7841	55.428
3.7813	55.415
3.7785	55.406
3.7758	55.401
3.7730	55.398
3.7703	55.397
3.7676	55.395
3.7648	55.392
3.7621	55.389
3.7594	55.389
3.7566	55.392
3.7539	55.398
3.7512	55.405
3.7485	55.409
3.7458	55.406
3.7431	55.396
3.7404	55.381
3.7377	55.364
3.7350	55.349
3.7323	55.338
3.7296	55.333
3.7269	55.332
3.7242	55.330
3.7216	55.327
3.7189	55.320
3.7162	55.310
3.7136	55.300
3.7109	55.291
3.7083	55.285
3.7056	55.282
3.7030	55.279
3.7003	55.276
3.6977	55.271
3.6950	55.264
3.6924	55.255
3.6898	55.244
3.6872	55.233
3.6845	55.223
3.6819	55.212
3.6793	55.201
3.6767	55.190
3.6741	55.177
3.6715	55.162
3.6689	55.145
3.6663	55.127
3.6637	55.109
3.6611	55.091
3.6585	55.075
3.6560	55.058
3.6534	55.043
3.6508	55.026
3.6482	55.010
3.6457	54.995
3.6431	54.983
3.6406	54.973
3.6380	54.964
3.6355	54.956
3.6329	54.946
3.6304	54.933
3.6278	54.917
3.6253	54.899
3.6227	54.880
3.6202	54.862
3.6177	54.844
3.6152	54.828
3.6127	54.814
3.6101	54.799
3.6076	54.784
3.6051	54.767
3.6026	54.750
3.6001	54.730
3.5976	54.709
3.5951	54.686
3.5926	54.663
3.5901	54.640
3.5876	54.617
3.5852	54.594
3.5827	54.571
3.5802	54.549
3.5777	54.528
3.5753	54.508
3.5728	54.490
3.5704	54.474
3.5679	54.459
3.5654	54.446
3.5630	54.433
3.5605	54.418
3.5581	54.403
3.5557	54.385
3.5532	54.367
3.5508	54.347
3.5484	54.327
3.5459	54.304
3.5435	54.278
3.5411	54.249
3.5387	54.215
3.5363	54.180
3.5338	54.145
3.5314	54.109
3.5290	54.073
3.5266	54.036
3.5242	53.998
3.5218	53.956
3.5195	53.912
3.5171	53.865
3.5147	53.817
3.5123	53.768
3.5099	53.719
3.5075	53.670
3.5052	53.623
3.5028	53.579
3.5004	53.541
3.4981	53.509
3.4957	53.485
3.4934	53.468
3.4910	53.459
3.4887	53.456
3.4863	53.457
3.4840	53.459
3.4816	53.458
3.4793	53.452
3.4770	53.439
3.4746	53.420
3.4723	53.395
3.4700	53.368
3.4677	53.342
3.4653	53.317
3.4630	53.294
3.4607	53.272
3.4584	53.247
3.4561	53.219
3.4538	53.187
3.4515	53.150
3.4492	53.109
3.4469	53.067
3.4446	53.025
3.4423	52.982
3.4400	52.940
3.4378	52.894
3.4355	52.845
3.4332	52.792
3.4309	52.733
3.4287	52.671
3.4264	52.606
3.4241	52.543
3.4219	52.484
3.4196	52.432
3.4174	52.392
3.4151	52.365
3.4129	52.352
3.4106	52.348
3.4084	52.351
3.4061	52.357
3.4039	52.363
3.4017	52.367
3.3994	52.368
3.3972	52.367
3.3950	52.362
3.3928	52.354
3.3906	52.343
3.3883	52.328
3.3861	52.312
3.3839	52.295
3.3817	52.276
3.3795	52.257
3.3773	52.238
3.3751	52.219
3.3729	52.202
3.3707	52.190
3.3685	52.182
3.3663	52.179
3.3641	52.179
3.3620	52.179
3.3598	52.175
3.3576	52.168
3.3554	52.156
3.3533	52.141
3.3511	52.125
3.3489	52.111
3.3468	52.099
3.3446	52.087
3.3425	52.075
3.3403	52.059
3.3382	52.040
3.3360	52.019
3.3339	51.998
3.3317	51.980
3.3296	51.965
3.3274	51.952
3.3253	51.938
3.3232	51.919
3.3210	51.895
3.3189	51.865
3.3168	51.832
3.3147	51.799
3.3126	51.766
3.3104	51.735
3.3083	51.706
3.3062	51.679
3.3041	51.653
3.3020	51.628
3.2999	51.603
3.2978	51.579
3.2957	51.553
3.2936	51.526
3.2915	51.495
3.2894	51.462
3.2874	51.429
3.2853	51.396
3.2832	51.363
3.2811	51.332
3.2790	51.303
3.2770	51.275
3.2749	51.250
3.2728	51.227
3.2708	51.208
3.2687	51.189
3.2666	51.169
3.2646	51.144
3.2625	51.113
3.2605	51.075
3.2584	51.033
3.2564	50.990
3.2543	50.949
3.2523	50.912
3.2503	50.879
3.2482	50.850
3.2462	50.824
3.2442	50.798
3.2421	50.773
3.2401	50.746
3.2381	50.716
3.2361	50.682
3.2340	50.644
3.2320	50.603
3.2300	50.561
3.2280	50.519
3.2260	50.481
3.2240	50.447
3.2220	50.417
3.2200	50.390
3.2180	50.363
3.2160	50.334
3.2140	50.303
3.2120	50.269
3.2100	50.233
3.2080	50.196
3.2060	50.159
3.2041	50.122
3.2021	50.088
3.2001	50.056
3.1981	50.026
3.1961	49.999
3.1942	49.972
3.1922	49.945
3.1902	49.916
3.1883	49.884
3.1863	49.851
3.1844	49.815
3.1824	49.780
3.1805	49.747
3.1785	49.716
3.1766	49.687
3.1746	49.661
3.1727	49.634
3.1707	49.606
3.1688	49.575
3.1669	49.541
3.1649	49.506
3.1630	49.472
3.1611	49.438
3.1591	49.407
3.1572	49.376
3.1553	49.345
3.1534	49.313
3.1515	49.278
3.1495	49.243
3.1476	49.209
3.1457	49.177
3.1438	49.148
3.1419	49.121
3.1400	49.095
3.1381	49.069
3.1362	49.041
3.1343	49.012
3.1324	48.984
3.1305	48.955
3.1286	48.927
3.1268	48.899
3.1249	48.870
3.1230	48.841
3.1211	48.810
3.1192	48.780
3.1174	48.750
3.1155	48.722
3.1136	48.693
3.1117	48.662
3.1099	48.628
3.1080	48.590
3.1061	48.551
3.1043	48.511
3.1024	48.475
3.1006	48.445
3.0987	48.420
3.0969	48.400
3.0950	48.383
3.0932	48.365
3.0913	48.344
3.0895	48.319
3.0876	48.287
3.0858	48.249
3.0840	48.208
3.0821	48.167
3.0803	48.132
3.0785	48.105
3.0766	48.085
3.0748	48.069
3.0730	48.052
3.0712	48.031
3.0694	48.003
3.0675	47.970
3.0657	47.934
3.0639	47.900
3.0621	47.868
3.0603	47.841
3.0585	47.818
3.0567	47.796
3.0549	47.774
3.0531	47.750
3.0513	47.724
3.0495	47.696
3.0477	47.668
3.0459	47.641
3.0441	47.616
3.0423	47.594
3.0406	47.572
3.0388	47.549
3.0370	47.523
3.0352	47.492
3.0334	47.456
3.0317	47.419
3.0299	47.382
3.0281	47.347
3.0264	47.315
3.0246	47.288
3.0228	47.264
3.0211	47.240
3.0193	47.215
3.0176	47.189
3.0158	47.160
3.0140	47.129
3.0123	47.100
3.0105	47.074
3.0088	47.053
3.0070	47.037
3.0053	47.023
3.0036	47.008
3.0018	46.989
3.0001	46.964
2.9984	46.933
2.9966	46.900
2.9949	46.867
2.9932	46.840
2.9914	46.820
2.9897	46.807
2.9880	46.797
2.9863	46.784
2.9845	46.763
2.9828	46.734
2.9811	46.697
2.9794	46.655
2.9777	46.615
2.9760	46.580
2.9743	46.552
2.9726	46.532
2.9709	46.515
2.9692	46.500
2.9675	46.485
2.9658	46.469
2.9641	46.454
2.9624	46.441
2.9607	46.428
2.9590	46.415
2.9573	46.401
2.9556	46.382
2.9539	46.360
2.9523	46.334
2.9506	46.306
2.9489	46.279
2.9472	46.255
2.9455	46.235
2.9439	46.221
2.9422	46.211
2.9405	46.205
2.9389	46.200
2.9372	46.196
2.9355	46.191
2.9339	46.184
2.9322	46.174
2.9306	46.160
2.9289	46.144
2.9272	46.125
2.9256	46.108
2.9239	46.095
2.9223	46.085
2.9207	46.081
2.9190	46.078
2.9174	46.075
2.9157	46.071
2.9141	46.065
2.9124	46.058
2.9108	46.051
2.9092	46.044
2.9075	46.037
2.9059	46.030
2.9043	46.021
2.9027	46.013
2.9010	46.007
2.8994	46.004
2.8978	46.003
2.8962	46.005
2.8946	46.008
2.8929	46.011
2.8913	46.012
2.8897	46.012
2.8881	46.011
2.8865	46.010
2.8849	46.007
2.8833	46.001
2.8817	45.994
2.8801	45.985
2.8785	45.977
2.8769	45.969
2.8753	45.963
2.8737	45.958
2.8721	45.954
2.8705	45.951
2.8689	45.950
2.8673	45.953
2.8658	45.963
2.8642	45.978
2.8626	45.995
2.8610	46.009
2.8594	46.015
2.8579	46.012
2.8563	46.001
2.8547	45.989
2.8531	45.982
2.8516	45.983
2.8500	45.993
2.8484	46.011
2.8469	46.033
2.8453	46.054
2.8437	46.074
2.8422	46.092
2.8406	46.108
2.8391	46.125
2.8375	46.141
2.8360	46.158
2.8344	46.173
2.8329	46.187
2.8313	46.199
2.8298	46.213
2.8282	46.228
2.8267	46.248
2.8252	46.272
2.8236	46.300
2.8221	46.329
2.8205	46.357
2.8190	46.384
2.8175	46.410
2.8159	46.437
2.8144	46.468
2.8129	46.506
2.8114	46.551
2.8098	46.603
2.8083	46.657
2.8068	46.714
2.8053	46.770
2.8038	46.826
2.8022	46.883
2.8007	46.940
2.7992	47.000
2.7977	47.062
2.7962	47.128
2.7947	47.199
2.7932	47.276
2.7917	47.359
2.7902	47.444
2.7887	47.528
2.7872	47.612
2.7857	47.693
2.7842	47.773
2.7827	47.856
2.7812	47.943
2.7797	48.037
2.7782	48.140
2.7767	48.249
2.7752	48.365
2.7738	48.484
2.7723	48.607
2.7708	48.735
2.7693	48.868
2.7678	49.009
2.7664	49.156
2.7649	49.308
2.7634	49.464
2.7619	49.621
2.7605	49.780
2.7590	49.944
2.7575	50.115
2.7561	50.295
2.7546	50.483
2.7531	50.677
2.7517	50.874
2.7502	51.072
2.7488	51.270
2.7473	51.470
2.7458	51.672
2.7444	51.876
2.7429	52.081
2.7415	52.285
2.7400	52.487
2.7386	52.685
2.7371	52.880
2.7357	53.071
2.7343	53.257
2.7328	53.437
2.7314	53.610
2.7299	53.774
2.7285	53.927
2.7271	54.072
2.7256	54.209
2.7242	54.341
2.7228	54.469
2.7213	54.594
2.7199	54.717
2.7185	54.836
2.7171	54.951
2.7156	55.061
2.7142	55.166
2.7128	55.268
2.7114	55.368
2.7100	55.467
2.7085	55.565
2.7071	55.661
2.7057	55.751
2.7043	55.833
2.7029	55.905
2.7015	55.967
2.7001	56.021
2.6987	56.071
2.6973	56.120
2.6959	56.171
2.6945	56.224
2.6931	56.279
2.6917	56.335
2.6903	56.390
2.6889	56.444
2.6875	56.494
2.6861	56.540
2.6847	56.583
2.6833	56.619
2.6819	56.650
2.6805	56.674
2.6791	56.694
2.6778	56.712
2.6764	56.731
2.6750	56.754
2.6736	56.781
2.6722	56.814
2.6709	56.847
2.6695	56.880
2.6681	56.908
2.6667	56.930
2.6654	56.945
2.6640	56.954
2.6626	56.959
2.6613	56.959
2.6599	56.958
2.6585	56.955
2.6572	56.952
2.6558	56.951
2.6545	56.950
2.6531	56.950
2.6517	56.947
2.6504	56.942
2.6490	56.935
2.6477	56.927
2.6463	56.918
2.6450	56.911
2.6436	56.903
2.6423	56.895
2.6409	56.882
2.6396	56.864
2.6382	56.843
2.6369	56.822
2.6356	56.804
2.6342	56.790
2.6329	56.780
2.6315	56.773
2.6302	56.764
2.6289	56.750
2.6275	56.731
2.6262	56.707
2.6249	56.681
2.6236	56.655
2.6222	56.631
2.6209	56.610
2.6196	56.593
2.6183	56.580
2.6169	56.570
2.6156	56.562
2.6143	56.553
2.6130	56.543
2.6117	56.527
2.6103	56.508
2.6090	56.485
2.6077	56.460
2.6064	56.436
2.6051	56.414
2.6038	56.395
2.6025	56.380
2.6012	56.366
2.5999	56.351
2.5986	56.333
2.5973	56.313
2.5960	56.290
2.5947	56.265
2.5934	56.242
2.5921	56.220
2.5908	56.201
2.5895	56.181
2.5882	56.160
2.5869	56.138
2.5856	56.115
2.5843	56.092
2.5830	56.071
2.5817	56.055
2.5805	56.042
2.5792	56.031
2.5779	56.019
2.5766	56.004
2.5753	55.982
2.5741	55.955
2.5728	55.927
2.5715	55.901
2.5702	55.879
2.5690	55.860
2.5677	55.842
2.5664	55.821
2.5651	55.794
2.5639	55.762
2.5626	55.732
2.5613	55.707
2.5601	55.690
2.5588	55.679
2.5575	55.669
2.5563	55.656
2.5550	55.635
2.5538	55.609
2.5525	55.580
2.5513	55.553
2.5500	55.531
2.5487	55.514
2.5475	55.499
2.5462	55.482
2.5450	55.460
2.5437	55.432
2.5425	55.400
2.5413	55.365
2.5400	55.332
2.5388	55.302
2.5375	55.276
2.5363	55.254
2.5350	55.233
2.5338	55.212
2.5326	55.189
2.5313	55.164
2.5301	55.138
2.5289	55.115
2.5276	55.095
2.5264	55.079
2.5252	55.064
2.5239	55.048
2.5227	55.029
2.5215	55.005
2.5202	54.981
2.5190	54.959
2.5178	54.941
2.5166	54.926
2.5154	54.909
2.5141	54.887
2.5129	54.858
2.5117	54.825
2.5105	54.793
2.5093	54.766
2.5081	54.747
2.5068	54.734
2.5056	54.723
2.5044	54.710
2.5032	54.692
2.5020	54.669
2.5008	54.643
2.4996	54.614
2.4984	54.583
2.4972	54.553
2.4960	54.523
2.4948	54.497
2.4936	54.476
2.4924	54.460
2.4912	54.451
2.4900	54.446
2.4888	54.442
2.4876	54.436
2.4864	54.425
2.4852	54.407
2.4840	54.381
2.4828	54.352
2.4816	54.322
2.4805	54.294
2.4793	54.269
2.4781	54.246
2.4769	54.223
2.4757	54.197
2.4745	54.167
2.4734	54.138
2.4722	54.111
2.4710	54.093
2.4698	54.084
2.4686	54.083
2.4675	54.083
2.4663	54.077
2.4651	54.063
2.4640	54.038
2.4628	54.006
2.4616	53.972
2.4604	53.940
2.4593	53.914
2.4581	53.892
2.4569	53.874
2.4558	53.856
2.4546	53.838
2.4535	53.820
2.4523	53.803
2.4511	53.787
2.4500	53.771
2.4488	53.755
2.4477	53.736
2.4465	53.713
2.4454	53.687
2.4442	53.658
2.4431	53.631
2.4419	53.606
2.4408	53.586
2.4396	53.571
2.4385	53.557
2.4373	53.544
2.4362	53.528
2.4350	53.510
2.4339	53.489
2.4327	53.467
2.4316	53.445
2.4305	53.424
2.4293	53.404
2.4282	53.384
2.4270	53.362
2.4259	53.339
2.4248	53.315
2.4236	53.293
2.4225	53.275
2.4214	53.262
2.4202	53.253
2.4191	53.248
2.4180	53.243
2.4169	53.236
2.4157	53.225
2.4146	53.208
2.4135	53.183
2.4124	53.154
2.4112	53.123
2.4101	53.095
2.4090	53.074
2.4079	53.060
2.4068	53.050
2.4056	53.039
2.4045	53.023
2.4034	53.000
2.4023	52.973
2.4012	52.947
2.4001	52.926
2.3990	52.914
2.3979	52.909
2.3967	52.905
2.3956	52.898
2.3945	52.885
2.3934	52.868
2.3923	52.848
2.3912	52.831
2.3901	52.816
2.3890	52.804
2.3879	52.790
2.3868	52.773
2.3857	52.752
2.3846	52.728
2.3835	52.705
2.3824	52.686
2.3813	52.671
2.3802	52.658
2.3791	52.645
2.3781	52.630
2.3770	52.611
2.3759	52.592
2.3748	52.574
2.3737	52.560
2.3726	52.551
2.3715	52.547
2.3704	52.543
2.3694	52.538
2.3683	52.528
2.3672	52.512
2.3661	52.492
2.3650	52.470
2.3640	52.450
2.3629	52.432
2.3618	52.420
2.3607	52.412
2.3597	52.408
2.3586	52.406
2.3575	52.404
2.3564	52.399
2.3554	52.390
2.3543	52.376
2.3532	52.360
2.3522	52.341
2.3511	52.323
2.3500	52.308
2.3490	52.295
2.3479	52.283
2.3468	52.269
2.3458	52.253
2.3447	52.236
2.3436	52.220
2.3426	52.206
2.3415	52.198
2.3405	52.195
2.3394	52.193
2.3384	52.191
2.3373	52.183
2.3363	52.171
2.3352	52.153
2.3342	52.132
2.3331	52.114
2.3321	52.099
2.3310	52.089
2.3300	52.084
2.3289	52.081
2.3279	52.078
2.3268	52.074
2.3258	52.068
2.3247	52.060
2.3237	52.049
2.3226	52.036
2.3216	52.024
2.3206	52.013
2.3195	52.006
2.3185	52.002
2.3175	51.999
2.3164	51.995
2.3154	51.987
2.3144	51.972
2.3133	51.954
2.3123	51.934
2.3113	51.917
2.3102	51.905
2.3092	51.899
2.3082	51.895
2.3071	51.891
2.3061	51.883
2.3051	51.870
2.3041	51.853
2.3030	51.834
2.3020	51.813
2.3010	51.794
2.3000	51.775
2.2990	51.758
2.2979	51.741
2.2969	51.725
2.2959	51.713
2.2949	51.705
2.2939	51.703
2.2929	51.704
2.2918	51.707
2.2908	51.706
2.2898	51.699
2.2888	51.685
2.2878	51.667
2.2868	51.650
2.2858	51.638
2.2848	51.634
2.2838	51.639
2.2828	51.650
2.2818	51.663
2.2808	51.673
2.2798	51.677
2.2787	51.674
2.2777	51.664
2.2767	51.650
2.2757	51.633
2.2747	51.617
2.2738	51.604
2.2728	51.597
2.2718	51.594
2.2708	51.593
2.2698	51.590
2.2688	51.581
2.2678	51.565
2.2668	51.544
2.2658	51.521
2.2648	51.500
2.2638	51.486
2.2628	51.480
2.2618	51.481
2.2609	51.485
2.2599	51.488
2.2589	51.485
2.2579	51.474
2.2569	51.456
2.2559	51.433
2.2550	51.409
2.2540	51.389
2.2530	51.375
2.2520	51.369
2.2510	51.371
2.2501	51.378
2.2491	51.386
2.2481	51.392
2.2471	51.393
2.2462	51.390
2.2452	51.383
2.2442	51.376
2.2433	51.373
2.2423	51.373
2.2413	51.374
2.2403	51.374
2.2394	51.371
2.2384	51.364
2.2374	51.355
2.2365	51.346
2.2355	51.339
2.2345	51.337
2.2336	51.337
2.2326	51.339
2.2317	51.340
2.2307	51.338
2.2297	51.333
2.2288	51.325
2.2278	51.318
2.2269	51.313
2.2259	51.312
2.2250	51.315
2.2240	51.322
2.2231	51.331
2.2221	51.340
2.2211	51.347
2.2202	51.350
2.2192	51.349
2.2183	51.342
2.2173	51.331
2.2164	51.318
2.2155	51.306
2.2145	51.298
2.2136	51.295
2.2126	51.295
2.2117	51.295
2.2107	51.295
2.2098	51.294
2.2088	51.293
2.2079	51.290
2.2070	51.288
2.2060	51.284
2.2051	51.278
2.2041	51.271
2.2032	51.264
2.2023	51.259
2.2013	51.256
2.2004	51.257
2.1995	51.259
2.1985	51.262
2.1976	51.264
2.1967	51.264
2.1957	51.264
2.1948	51.264
2.1939	51.262
2.1930	51.259
2.1920	51.254
2.1911	51.249
2.1902	51.242
2.1893	51.238
2.1883	51.238
2.1874	51.240
2.1865	51.244
2.1856	51.247
2.1846	51.248
2.1837	51.245
2.1828	51.241
2.1819	51.235
2.1810	51.231
2.1800	51.229
2.1791	51.231
2.1782	51.236
2.1773	51.242
2.1764	51.247
2.1755	51.248
2.1746	51.246
2.1736	51.242
2.1727	51.238
2.1718	51.237
2.1709	51.240
2.1700	51.245
2.1691	51.252
2.1682	51.256
2.1673	51.258
2.1664	51.256
2.1655	51.252
2.1646	51.247
2.1637	51.243
2.1628	51.242
2.1619	51.244
2.1610	51.248
2.1601	51.252
2.1592	51.255
2.1583	51.256
2.1574	51.254
2.1565	51.253
2.1556	51.254
2.1547	51.260
2.1538	51.268
2.1529	51.274
2.1520	51.277
2.1511	51.273
2.1502	51.266
2.1493	51.258
2.1484	51.252
2.1475	51.252
2.1466	51.253
2.1458	51.254
2.1449	51.252
2.1440	51.245
2.1431	51.235
2.1422	51.225
2.1413	51.217
2.1404	51.213
2.1396	51.213
2.1387	51.217
2.1378	51.224
2.1369	51.234
2.1360	51.247
2.1352	51.261
2.1343	51.276
2.1334	51.288
2.1325	51.295
2.1316	51.295
2.1308	51.287
2.1299	51.274
2.1290	51.259
2.1281	51.246
2.1273	51.238
2.1264	51.237
2.1255	51.246
2.1247	51.262
2.1238	51.282
2.1229	51.303
2.1220	51.320
2.1212	51.329
2.1203	51.327
2.1194	51.313
2.1186	51.293
2.1177	51.272
2.1168	51.259
2.1160	51.257
2.1151	51.268
2.1143	51.287
2.1134	51.306
2.1125	51.319
2.1117	51.324
2.1108	51.321
2.1100	51.316
2.1091	51.311
2.1082	51.311
2.1074	51.314
2.1065	51.318
2.1057	51.320
2.1048	51.318
2.1040	51.311
2.1031	51.301
2.1023	51.290
2.1014	51.281
2.1005	51.277
2.0997	51.279
2.0988	51.288
2.0980	51.302
2.0971	51.317
2.0963	51.331
2.0955	51.342
2.0946	51.347
2.0938	51.346
2.0929	51.339
2.0921	51.326
2.0912	51.308
2.0904	51.288
2.0895	51.268
2.0887	51.251
2.0879	51.239
2.0870	51.235
2.0862	51.236
2.0853	51.241
2.0845	51.252
2.0837	51.256
2.0828	51.268
2.0820	51.293
2.0812	51.289
2.0803	51.367
2.0795	51.412
2.0760	51.412
2.0720	51.372
2.0680	51.334
2.0640	50.949
2.0600	50.853
2.0560	51.043
2.0520	50.968
2.0480	50.952
2.0440	50.915
2.0400	50.837
2.0360	50.764
2.0320	50.535
2.0280	50.380
2.0240	50.248
2.0200	50.140
2.0160	50.044
2.0120	49.723
2.0080	49.853
2.0040	49.782
2.0000	49.818
1.9960	49.627
1.9920	49.531
1.9880	49.305
1.9840	48.803
1.9800	48.881
1.9760	49.068
1.9720	49.080
1.9680	49.045
1.9640	48.932
1.9600	48.742
1.9560	48.794
1.9520	48.958
1.9480	49.011
1.9440	49.003
1.9400	49.013
1.9360	48.689
1.9320	48.376
1.9280	48.254
1.9240	48.184
1.9200	48.053
1.9160	47.895
1.9120	47.798
1.9080	47.650
1.9040	47.426
1.9000	47.527
1.8960	47.897
1.8920	48.376
1.8880	48.454
1.8840	48.287
1.8800	48.360
1.8760	48.098
1.8720	47.745
1.8680	47.527
1.8640	47.933
1.8600	48.266
1.8560	48.159
1.8520	48.171
1.8480	47.982
1.8440	47.580
1.8400	47.629
1.8360	47.629
1.8320	47.548
1.8280	47.942
1.8240	48.065
1.8200	48.016
1.8160	47.967
1.8120	47.863
1.8080	47.825
1.8040	47.857
1.8000	47.763
1.7960	47.850
1.7920	47.906
1.7880	47.857
1.7840	47.779
1.7800	47.416
1.7760	47.386
1.7720	47.308
1.7680	47.214
1.7640	47.184
1.7600	47.011
1.7560	46.995
1.7520	47.294
1.7480	47.499
1.7440	47.450
1.7400	47.577
1.7360	47.642
1.7320	47.469
1.7280	47.280
1.7240	47.091
1.7200	47.280
1.7160	47.531
1.7120	47.766
1.7080	47.489
1.7040	47.496
1.7000	47.480
1.6960	47.480
1.6920	47.464
1.6880	47.214
1.6840	47.182
1.6800	47.260
1.6760	47.292
1.6720	47.214
1.6680	47.214
1.6640	46.916
1.6600	46.806
1.6560	46.751
1.6520	46.830
1.6480	46.830
1.6440	46.940
1.6400	46.704
1.6360	46.665
1.6320	46.406
1.6280	46.453
1.6240	46.492
1.6200	46.453
1.6160	46.422
1.6120	46.297
1.6080	46.233
1.6040	46.358
1.6000	46.264
1.5960	46.123
1.5920	46.107
1.5880	45.841
1.5840	45.592
1.5800	45.656
1.5760	45.732
1.5720	45.780
1.5680	45.592
1.5640	45.466
1.5600	45.059
1.5560	44.905
1.5520	45.045
1.5480	44.917
1.5440	44.634
1.5400	44.431
1.5360	44.387
1.5320	44.199
1.5280	44.258
1.5240	44.258
1.5200	44.243
1.5160	44.417
1.5120	44.091
1.5080	43.997
1.5040	43.679
1.5000	43.322
1.4960	42.588
1.4920	42.574
1.4880	42.547
1.4840	42.560
1.4800	42.348
1.4760	42.293
1.4720	42.105
1.4680	41.959
1.4640	41.851
1.4600	41.637
1.4560	41.677
1.4520	41.382
1.4480	41.019
1.4440	40.884
1.4400	40.452
1.4360	40.397
1.4320	40.302
1.4280	40.035
1.4240	40.022
1.4200	40.009
1.4160	39.846
1.4120	39.571
1.4080	39.029
1.4040	38.587
1.4000	38.662
1.3960	38.530
1.3920	38.209
1.3880	38.056
1.3840	38.081
1.3800	37.846
1.3760	37.335
1.3720	37.463
1.3680	37.365
1.3640	37.105
1.3600	36.703
1.3560	36.513
1.3520	36.623
1.3480	36.685
1.3440	36.558
1.3400	36.371
1.3360	36.030
1.3320	35.821
1.3280	35.529
1.3240	35.457
1.3200	35.428
1.3160	35.472
1.3120	35.312
1.3080	35.062
1.3040	34.978
1.3000	34.895
1.2960	34.811
1.2920	34.560
1.2880	34.403
1.2840	34.173
1.2800	34.025
1.2760	33.657
1.2720	33.519
1.2680	33.183
1.2640	33.018
1.2600	32.819
1.2560	32.640
1.2520	32.525
1.2480	32.565
1.2440	32.395
1.2400	32.244
1.2360	32.204
1.2320	32.041
1.2280	31.977
1.2240	32.101
1.2200	32.089
1.2160	32.024
1.2120	31.824
1.2080	31.493
1.2040	31.663
1.2000	31.654
1.1960	31.438
1.1920	31.390
1.1880	31.372
1.1840	31.354
1.1800	31.173
1.1760	31.242
1.1720	31.251
1.1680	31.079
1.1640	30.918
1.1600	30.747
1.1560	30.594
1.1520	30.328
1.1480	30.140
1.1440	29.920
1.1400	29.790
1.1360	29.746
1.1320	29.317
1.1280	29.231
1.1240	29.165
1.1200	29.087
1.1160	28.968
1.1120	28.866
1.1080	28.646
1.1040	28.465
1.1000	28.386
1.0960	28.174
1.0920	28.088
1.0880	27.789
1.0840	27.521
1.0800	27.482
1.0760	27.097
1.0720	26.894
1.0680	27.286
1.0640	27.047
1.0600	26.967
1.0560	26.873
1.0520	26.894
1.0480	26.793
1.0440	26.779
1.0400	26.744
1.0360	26.772
1.0320	26.800
1.0280	26.727
1.0240	26.850
1.0200	26.894
1.0160	26.996
1.0120	27.076
1.0080	26.989
1.0040	27.318
1.0000	27.375
0.9960	27.375
0.9920	27.401
0.9880	27.525
0.9840	27.837
0.9800	27.844
0.9760	28.065
0.9720	28.128
0.9680	28.340
0.9640	28.347
0.9600	28.607
0.9560	28.921
0.9520	29.102
0.9480	29.102
0.9440	29.196
0.9400	29.493
0.9360	29.604
0.9320	29.861
0.9280	29.922
0.9240	30.221
0.9200	30.409
0.9160	30.503
0.9120	30.597
0.9080	30.962
0.9040	30.982
0.9000	31.012
0.8960	31.133
0.8920	31.227
0.8880	31.348
0.8840	31.339
0.8800	31.606
0.8760	31.700
0.8720	31.709
0.8680	31.803
0.8640	31.728
0.8600	31.878
0.8560	31.964
0.8520	31.964
0.8480	31.973
0.8440	32.049
0.8400	32.209
0.8360	32.228
0.8320	32.284
0.8280	32.294
0.8240	32.652
0.8200	32.642
0.8160	32.698
0.8120	32.753
0.8080	32.828
0.8040	32.884
0.8000	33.107
0.7990	33.107
0.7980	33.107
0.7970	33.205
0.7960	33.257
0.7950	33.499
0.7940	33.596
0.7930	33.623
0.7920	33.644
0.7910	33.506
0.7900	33.577
0.7890	33.694
0.7880	33.623
0.7870	33.675
0.7860	33.734
0.7850	33.740
0.7840	33.615
0.7830	33.780
0.7820	33.930
0.7810	34.017
0.7800	33.821
0.7790	33.794
0.7780	33.917
0.7770	34.047
0.7760	34.099
0.7750	34.112
0.7740	34.033
0.7730	33.949
0.7720	34.092
0.7710	33.981
0.7700	34.036
0.7690	34.161
0.7680	34.175
0.7670	34.231
0.7660	34.259
0.7650	34.302
0.7640	34.407
0.7630	34.357
0.7620	34.231
0.7610	34.218
0.7600	34.120
0.7590	34.134
0.7580	34.365
0.7570	34.189
0.7560	34.134
0.7550	34.120
0.7540	34.060
0.7530	34.259
0.7520	34.287
0.7510	34.553
0.7500	34.227
0.7490	34.226
0.7480	34.106
0.7470	34.190
0.7460	34.316
0.7450	34.371
0.7440	34.385
0.7430	34.478
0.7420	34.329
0.7410	34.365
0.7400	34.301
0.7390	34.365
0.7380	34.316
0.7370	34.399
0.7360	34.520
0.7350	34.385
0.7340	34.385
0.7330	34.204
0.7320	34.204
0.7310	34.407
0.7300	34.450
0.7290	34.357
0.7280	34.380
0.7270	34.567
0.7260	34.422
0.7250	34.301
0.7240	34.281
0.7230	34.422
0.7220	34.492
0.7210	34.492
0.7200	34.351
0.7190	34.407
0.7180	34.467
0.7170	34.175
0.7160	34.212
0.7150	34.267
0.7140	34.273
0.7130	34.301
0.7120	34.253
0.7110	34.323
0.7100	34.258
0.7090	34.189
0.7080	34.175
0.7070	34.328
0.7060	34.183
0.7050	34.225
0.7040	34.295
0.7030	34.366
0.7020	34.427
0.7010	34.361
0.7000	34.150
0.6990	34.113
0.6980	33.647
0.6970	33.760
0.6960	33.916
0.6950	34.160
0.6940	34.260
0.6930	34.160
0.6920	34.146
0.6910	33.852
0.6900	33.753
0.6890	33.753
0.6880	33.910
0.6870	34.002
0.6860	33.896
0.6850	34.046
0.6840	33.789
0.6830	33.988
0.6820	33.872
0.6810	34.002
0.6800	34.071
0.6790	34.042
0.6780	34.042
0.6770	33.852
0.6760	33.682
0.6750	33.697
0.6740	33.904
0.6730	33.854
0.6720	33.945
0.6710	33.896
0.6700	33.782
0.6690	33.831
0.6680	33.653
0.6670	33.682
0.6660	33.802
0.6650	33.674
0.6640	33.626
0.6630	33.704
0.6620	33.675
0.6610	33.376
0.6600	33.327
0.6590	33.298
0.6580	33.298
0.6570	33.198
0.6560	33.156
0.6550	33.347
0.6540	33.447
0.6530	33.554
0.6520	33.405
0.6510	33.398
0.6500	33.320
0.6490	33.327
0.6480	33.198
0.6470	33.148
0.6460	33.362
0.6450	33.213
0.6440	33.162
0.6430	33.148
0.6420	33.205
0.6410	33.276
0.6400	33.077
0.6390	32.920
0.6380	32.906
0.6370	32.849
0.6360	32.777
0.6350	32.763
0.6340	32.749
0.6330	32.650
0.6320	32.664
0.6310	32.735
0.6300	32.763
0.6290	32.870
0.6280	32.777
0.6270	32.820
0.6260	32.848
0.6250	32.748
0.6240	32.720
0.6230	32.734
0.6220	32.848
0.6210	32.834
0.6200	32.834
0.6190	32.698
0.6180	32.691
0.6170	32.763
0.6160	32.648
0.6150	32.620
0.6140	32.634
0.6130	32.606
0.6120	32.406
0.6110	32.234
0.6100	32.148
0.6090	32.204
0.6080	32.162
0.6070	32.148
0.6060	32.162
0.6050	32.062
0.6040	31.890
0.6030	31.803
0.6020	31.803
0.6010	31.703
0.6000	31.572
0.5990	31.585
0.5980	31.613
0.5970	31.641
0.5960	31.842
0.5950	31.871
0.5940	31.885
0.5930	31.770
0.5920	31.812
0.5910	31.812
0.5900	31.509
0.5890	31.523
0.5880	31.509
0.5870	31.408
0.5860	31.228
0.5850	31.086
0.5840	31.408
0.5830	31.436
0.5820	31.266
0.5810	31.440
0.5800	31.284
0.5790	31.197
0.5780	31.183
0.5770	31.298
0.5760	31.339
0.5750	31.238
0.5740	31.298
0.5730	31.489
0.5720	31.421
0.5710	31.521
0.5700	31.508
0.5690	31.508
0.5680	31.567
0.5670	31.548
0.5660	31.603
0.5650	31.452
0.5640	31.212
0.5630	31.202
0.5620	31.116
0.5610	31.029
0.5600	31.083
0.5590	30.808
0.5580	30.598
0.5570	30.534
0.5560	30.399
0.5550	30.399
0.5540	30.353
0.5530	30.135
0.5520	30.193
0.5510	30.021
0.5500	30.043
0.5490	30.045
0.5480	30.020
0.5470	29.599
0.5460	29.611
0.5450	29.599
0.5440	29.648
0.5430	29.747
0.5420	29.600
0.5410	29.586
0.5400	29.489
0.5390	29.327
0.5380	29.313
0.5370	29.141
0.5360	29.252
0.5350	29.214
0.5340	29.178
0.5330	29.178
0.5320	28.995
0.5310	28.931
0.5300	28.745
0.5290	28.706
0.5280	28.546
0.5270	28.488
0.5260	28.587
0.5250	28.546
0.5240	28.472
0.5230	28.216
0.5220	28.430
0.5210	28.529
0.5200	28.478
0.5190	28.425
0.5180	28.425
0.5170	28.180
0.5160	28.104
0.5150	27.928
0.5140	27.872
0.5130	27.894
0.5120	27.906
0.5110	27.843
0.5100	27.465
0.5090	27.389
0.5080	27.282
0.5070	27.216
0.5060	27.447
0.5050	27.499
0.5040	27.370
0.5030	27.359
0.5020	27.194
0.5010	26.991
0.5000	26.951
0.4990	26.852
0.4980	26.710
0.4970	26.721
0.4960	26.700
0.4950	26.553
0.4940	26.294
0.4930	26.362
0.4920	26.393
0.4910	26.393
0.4900	26.277
0.4890	26.120
0.4880	26.178
0.4870	26.069
0.4860	26.061
0.4850	25.823
0.4840	25.724
0.4830	25.764
0.4820	25.813
0.4810	25.724
0.4800	25.587
0.4790	25.427
0.4780	25.518
0.4770	25.508
0.4760	25.508
0.4750	25.312
0.4740	25.124
0.4730	25.085
0.4720	24.868
0.4710	24.868
0.4700	24.967
0.4690	24.967
0.4680	24.897
0.4670	24.877
0.4660	24.730
0.4650	24.739
0.4640	24.691
0.4630	24.720
0.4620	24.495
0.4610	24.396
0.4600	24.258
0.4590	24.497
0.4580	24.559
0.4570	24.421
0.4560	24.230
0.4550	24.339
0.4540	24.280
0.4530	24.189
0.4520	24.324
0.4510	24.224
0.4500	24.100
0.4490	24.006
0.4480	24.041
0.4470	23.999
0.4460	23.923
0.4450	23.949
0.4440	23.931
0.4430	23.738
0.4420	23.805
0.4410	23.881
0.4400	23.923
0.4390	23.663
0.4380	23.587
0.4370	23.577
0.4360	23.678
0.4350	23.509
0.4340	23.433
0.4330	23.417
0.4320	23.449
0.4310	23.558
0.4300	23.413
0.4290	23.280
0.4280	23.177
0.4270	23.324
0.4260	23.192
0.4250	23.078
0.4240	22.923
0.4230	22.998
0.4220	22.867
0.4210	22.815
0.4200	22.830
0.4190	22.640
0.4180	22.793
0.4170	22.632
0.4160	22.683
0.4150	22.594
0.4140	22.580
0.4130	22.508
0.4120	22.501
0.4110	22.466
0.4100	22.529
0.4090	22.429
0.4080	22.227
0.4070	22.303
0.4060	22.223
0.4050	22.008
0.4040	21.926
0.4030	21.819
0.4020	21.832
0.4010	21.691
0.4000	21.522
