Name:  Hornblende Schist 
Type:  Rocks
Class:  Metamorphic 
Subclass: Schist 
Particle Size:  0-75 Micrometer
Sample No.:   schist9.doc
Owner:  JHU
Wavelength Range:  All
Origin:  Sample No. 393, The Hunt and Salisbury Collection at the U.S. 
Geological Survey, Denver, Co.
Description: This low grade schist is a very coarse-grained rock composed of 
bands of acicular hornblende and feldspar.  Microscopically there are large 
hornblende subhedra associated with serpophite and chlorite.  In addition to the 
alkali feldspar anhedra there are small muscovite subhedra, and scattered 
magnetite.  Calcite crystals and grains occur throughout the sample, often 
associated with the hornblende or serpophite/chlorite.  
Measurement:  Directional (10 Degree) Hemispherical Reflectance
First Column:  X
Second Column:  Y  
X Units:  Wavelength (micrometers)
Y Units:  Reflectance (percent)
First X Value: 14.9831	
Last X Value:  0.4
Number of X Values: 2868
Additional Information:  schist9a.txt

14.983	1.6293
14.940	2.0044
14.897	1.7600
14.854	1.4474
14.812	1.5308
14.770	1.8055
14.728	1.7657
14.686	1.6179
14.645	1.6634
14.603	1.9135
14.562	1.7629
14.521	1.7780
14.481	1.7164
14.441	1.5923
14.400	1.5886
14.361	1.7060
14.321	1.7941
14.281	1.8244
14.242	1.8481
14.203	1.9196
14.164	1.9220
14.126	1.9883
14.087	1.9684
14.049	1.9731
14.011	1.9556
13.973	1.9750
13.936	1.9821
13.899	2.0196
13.861	2.0324
13.824	2.0631
13.788	2.0930
13.751	2.1171
13.715	2.1105
13.679	2.1252
13.643	2.1531
13.607	2.1922
13.571	2.2509
13.536	2.2955
13.500	2.3113
13.465	2.3201
13.430	2.3587
13.396	2.3646
13.361	2.2981
13.327	2.2812
13.293	2.2746
13.259	2.2926
13.225	2.3009
13.191	2.2869
13.158	2.2528
13.124	2.2396
13.091	2.2424
13.058	2.2587
13.026	2.2573
12.993	2.2493
12.960	2.2737
12.928	2.3494
12.896	2.3959
12.864	2.4553
12.832	2.5060
12.800	2.5541
12.769	2.5988
12.737	2.6102
12.706	2.5948
12.675	2.6054
12.644	2.6258
12.614	2.6905
12.583	2.7707
12.552	2.8247
12.522	2.8707
12.492	2.9292
12.462	2.9604
12.432	2.9924
12.402	3.0185
12.373	3.0703
12.343	3.1290
12.314	3.1887
12.285	3.2880
12.256	3.3969
12.227	3.5080
12.198	3.6330
12.169	3.7419
12.141	3.8513
12.113	3.9292
12.084	4.0124
12.056	4.0877
12.028	4.1466
12.000	4.1928
11.973	4.2532
11.945	4.2996
11.918	4.3340
11.890	4.3811
11.863	4.4315
11.836	4.4067
11.809	4.3576
11.782	4.3567
11.755	4.4079
11.729	4.4299
11.702	4.4393
11.676	4.4555
11.650	4.4460
11.624	4.4187
11.598	4.3832
11.572	4.3299
11.546	4.2724
11.520	4.1883
11.495	4.1024
11.469	4.0522
11.444	4.0349
11.419	3.9832
11.394	3.9797
11.369	4.0299
11.344	4.0813
11.319	4.1078
11.294	4.1137
11.270	4.1050
11.245	4.0927
11.221	4.0197
11.197	3.9714
11.173	3.8876
11.149	3.7990
11.125	3.7327
11.101	3.6650
11.077	3.6167
11.054	3.5764
11.030	3.5546
11.007	3.5537
10.983	3.5383
10.960	3.5262
10.937	3.5129
10.914	3.4864
10.891	3.4821
10.868	3.5129
10.846	3.5134
10.823	3.5011
10.800	3.5129
10.778	3.5546
10.755	3.5717
10.733	3.5859
10.711	3.6266
10.689	3.6626
10.667	3.6583
10.645	3.6787
10.623	3.7133
10.602	3.7313
10.580	3.7426
10.558	3.7592
10.537	3.7971
10.516	3.8516
10.494	3.8914
10.473	3.9155
10.452	3.9482
10.431	3.9851
10.410	4.0169
10.389	4.0581
10.368	4.0983
10.348	4.1315
10.327	4.1694
10.306	4.2276
10.286	4.2840
10.266	4.3209
10.245	4.3685
10.225	4.4247
10.205	4.4455
10.185	4.5241
10.165	4.5852
10.145	4.6231
10.125	4.6719
10.106	4.7354
10.086	4.7979
10.066	4.8306
10.047	4.8666
10.027	4.9277
10.008	4.9561
9.9887	4.9414
9.9695	4.9684
9.9504	4.9968
9.9313	4.9755
9.9123	4.9440
9.8934	4.9442
9.8746	4.9701
9.8558	4.9407
9.8371	4.9170
9.8185	4.9011
9.7999	4.8789
9.7814	4.8839
9.7630	4.8974
9.7447	4.8751
9.7264	4.8824
9.7082	4.9019
9.6900	4.9253
9.6719	4.9319
9.6539	4.9487
9.6360	4.9348
9.6181	4.9298
9.6003	4.9485
9.5825	4.9341
9.5649	4.9082
9.5472	4.9265
9.5297	4.9073
9.5122	4.8969
9.4948	4.9097
9.4774	4.9262
9.4601	4.9442
9.4429	4.9791
9.4257	5.0179
9.4086	5.0901
9.3916	5.1588
9.3746	5.2057
9.3577	5.2538
9.3408	5.3139
9.3240	5.3482
9.3073	5.3717
9.2906	5.3651
9.2740	5.3525
9.2574	5.3317
9.2409	5.3231
9.2245	5.2907
9.2081	5.2587
9.1918	5.2341
9.1755	5.2282
9.1593	5.2118
9.1431	5.1886
9.1270	5.1605
9.1110	5.1432
9.0950	5.1455
9.0791	5.1209
9.0632	5.1202
9.0474	5.0915
9.0316	5.0413
9.0159	5.0309
9.0003	5.0117
8.9847	4.9809
8.9691	4.9717
8.9536	4.9767
8.9382	4.9367
8.9228	4.9019
8.9075	4.8992
8.8922	4.8843
8.8770	4.8848
8.8618	4.8827
8.8467	4.8749
8.8316	4.8786
8.8166	4.8739
8.8016	4.8692
8.7867	4.8540
8.7718	4.8462
8.7570	4.8642
8.7422	4.9063
8.7275	4.9547
8.7129	4.9930
8.6982	5.0177
8.6837	5.0186
8.6692	4.9736
8.6547	4.9097
8.6403	4.8476
8.6259	4.8363
8.6116	4.9087
8.5973	5.0503
8.5830	5.1839
8.5688	5.2545
8.5547	5.2995
8.5406	5.3414
8.5266	5.3539
8.5126	5.3691
8.4986	5.3842
8.4847	5.4082
8.4708	5.4356
8.4570	5.5055
8.4432	5.5709
8.4295	5.6144
8.4158	5.6760
8.4022	5.7577
8.3886	5.8318
8.3750	5.9213
8.3615	6.0118
8.3481	6.1023
8.3347	6.2098
8.3213	6.3017
8.3079	6.3983
8.2946	6.4902
8.2814	6.5754
8.2682	6.6488
8.2550	6.7123
8.2419	6.7824
8.2288	6.8269
8.2158	6.8601
8.2028	6.8601
8.1898	6.8497
8.1769	6.8212
8.1640	6.7748
8.1512	6.7028
8.1384	6.6128
8.1256	6.5385
8.1129	6.4625
8.1002	6.3950
8.0876	6.3343
8.0750	6.2870
8.0624	6.2529
8.0499	6.2320
8.0374	6.2273
8.0250	6.2444
8.0126	6.2586
8.0002	6.2529
7.9879	6.2508
7.9756	6.2628
7.9634	6.2766
7.9512	6.2794
7.9390	6.2903
7.9268	6.2896
7.9147	6.3031
7.9027	6.3353
7.8906	6.3696
7.8786	6.3940
7.8667	6.4298
7.8548	6.4655
7.8429	6.4949
7.8310	6.5411
7.8192	6.5939
7.8075	6.6479
7.7957	6.7149
7.7840	6.7864
7.7723	6.8622
7.7607	6.9316
7.7491	7.0109
7.7375	7.1002
7.7260	7.1803
7.7145	7.2480
7.7031	7.3110
7.6916	7.3650
7.6802	7.4173
7.6689	7.4604
7.6575	7.5061
7.6462	7.5397
7.6350	7.5719
7.6238	7.6065
7.6126	7.6338
7.6014	7.7020
7.5903	7.7728
7.5792	7.8322
7.5681	7.8902
7.5571	7.9556
7.5461	8.0314
7.5351	8.1053
7.5242	8.1673
7.5133	8.2189
7.5024	8.2791
7.4916	8.3279
7.4807	8.3658
7.4700	8.3961
7.4592	8.4238
7.4485	8.4572
7.4378	8.5029
7.4272	8.5351
7.4165	8.5448
7.4059	8.5820
7.3954	8.6248
7.3848	8.6329
7.3743	8.6357
7.3639	8.6310
7.3534	8.6101
7.3430	8.5910
7.3326	8.5689
7.3223	8.5313
7.3119	8.4920
7.3016	8.4524
7.2914	8.4055
7.2811	8.3743
7.2709	8.3577
7.2607	8.3402
7.2506	8.3196
7.2404	8.2767
7.2303	8.2417
7.2203	8.2054
7.2102	8.1649
7.2002	8.1218
7.1902	8.0820
7.1803	8.0551
7.1703	8.0371
7.1604	8.0167
7.1506	8.0051
7.1407	8.0356
7.1309	8.1029
7.1211	8.1619
7.1113	8.2336
7.1016	8.3212
7.0919	8.3703
7.0822	8.3899
7.0725	8.3999
7.0629	8.4013
7.0533	8.3672
7.0437	8.3113
7.0341	8.2630
7.0246	8.2225
7.0151	8.2057
7.0056	8.1531
6.9962	8.0773
6.9867	8.0304
6.9773	8.0063
6.9679	7.9485
6.9586	7.9033
6.9493	7.9002
6.9400	7.9049
6.9307	7.9002
6.9214	7.8947
6.9122	7.9234
6.9030	7.9546
6.8938	7.9527
6.8847	7.9715
6.8755	8.0063
6.8664	8.0228
6.8573	8.0555
6.8483	8.1247
6.8393	8.2007
6.8302	8.2563
6.8213	8.3094
6.8123	8.3766
6.8034	8.4321
6.7944	8.4633
6.7855	8.5031
6.7767	8.5888
6.7678	8.6817
6.7590	8.7501
6.7502	8.8100
6.7414	8.8986
6.7327	8.9805
6.7239	9.0601
6.7152	9.1506
6.7065	9.2666
6.6979	9.3860
6.6892	9.5119
6.6806	9.6531
6.6720	9.7900
6.6634	9.9354
6.6549	10.104
6.6464	10.242
6.6378	10.352
6.6294	10.519
6.6209	10.706
6.6124	10.846
6.6040	10.996
6.5956	11.169
6.5872	11.329
6.5789	11.456
6.5705	11.600
6.5622	11.786
6.5539	11.960
6.5456	12.146
6.5374	12.343
6.5292	12.533
6.5209	12.734
6.5128	12.954
6.5046	13.154
6.4964	13.309
6.4883	13.496
6.4802	13.688
6.4721	13.856
6.4640	14.012
6.4560	14.153
6.4480	14.270
6.4399	14.365
6.4320	14.399
6.4240	14.396
6.4160	14.343
6.4081	14.326
6.4002	14.334
6.3923	14.273
6.3844	14.172
6.3766	14.051
6.3687	13.914
6.3609	13.787
6.3531	13.630
6.3454	13.471
6.3376	13.346
6.3299	13.220
6.3221	13.081
6.3144	12.963
6.3068	12.849
6.2991	12.754
6.2914	12.663
6.2838	12.576
6.2762	12.509
6.2686	12.456
6.2611	12.381
6.2535	12.319
6.2460	12.271
6.2385	12.235
6.2310	12.198
6.2235	12.167
6.2160	12.162
6.2086	12.179
6.2011	12.202
6.1937	12.222
6.1863	12.266
6.1790	12.372
6.1716	12.473
6.1643	12.567
6.1570	12.673
6.1496	12.781
6.1424	12.886
6.1351	12.999
6.1278	13.113
6.1206	13.173
6.1134	13.219
6.1062	13.319
6.0990	13.402
6.0918	13.478
6.0847	13.536
6.0776	13.559
6.0704	13.607
6.0633	13.677
6.0563	13.688
6.0492	13.681
6.0421	13.763
6.0351	13.839
6.0281	13.872
6.0211	13.903
6.0141	13.922
6.0071	13.939
6.0002	13.943
5.9932	13.921
5.9863	13.913
5.9794	13.903
5.9725	13.868
5.9657	13.861
5.9588	13.873
5.9520	13.860
5.9451	13.869
5.9383	13.856
5.9315	13.899
5.9247	13.983
5.9180	14.056
5.9112	14.164
5.9045	14.262
5.8978	14.326
5.8911	14.423
5.8844	14.509
5.8777	14.610
5.8711	14.732
5.8644	14.836
5.8578	14.931
5.8512	15.018
5.8446	15.134
5.8380	15.240
5.8314	15.309
5.8249	15.370
5.8184	15.460
5.8118	15.552
5.8053	15.635
5.7988	15.723
5.7923	15.805
5.7859	15.881
5.7794	15.960
5.7730	15.990
5.7666	16.009
5.7602	16.093
5.7538	16.166
5.7474	16.202
5.7410	16.265
5.7347	16.329
5.7283	16.372
5.7220	16.404
5.7157	16.453
5.7094	16.489
5.7031	16.526
5.6969	16.563
5.6906	16.594
5.6844	16.611
5.6782	16.612
5.6719	16.610
5.6657	16.597
5.6596	16.583
5.6534	16.554
5.6472	16.506
5.6411	16.468
5.6349	16.442
5.6288	16.405
5.6227	16.356
5.6166	16.309
5.6106	16.240
5.6045	16.119
5.5984	15.989
5.5924	15.835
5.5864	15.583
5.5804	15.321
5.5744	15.183
5.5684	15.180
5.5624	15.221
5.5564	15.345
5.5505	15.588
5.5445	15.883
5.5386	16.177
5.5327	16.451
5.5268	16.692
5.5209	16.937
5.5151	17.182
5.5092	17.416
5.5033	17.652
5.4975	17.884
5.4917	18.122
5.4859	18.386
5.4801	18.653
5.4743	18.930
5.4685	19.191
5.4628	19.439
5.4570	19.673
5.4513	19.858
5.4455	20.004
5.4398	20.113
5.4341	20.197
5.4284	20.233
5.4228	20.238
5.4171	20.244
5.4114	20.212
5.4058	20.153
5.4002	20.076
5.3945	19.969
5.3889	19.850
5.3833	19.732
5.3778	19.645
5.3722	19.573
5.3666	19.527
5.3611	19.520
5.3555	19.521
5.3500	19.540
5.3445	19.606
5.3390	19.700
5.3335	19.781
5.3280	19.872
5.3225	19.986
5.3171	20.101
5.3116	20.199
5.3062	20.315
5.3008	20.445
5.2954	20.588
5.2900	20.741
5.2846	20.911
5.2792	21.094
5.2738	21.281
5.2684	21.492
5.2631	21.714
5.2578	21.946
5.2524	22.182
5.2471	22.434
5.2418	22.691
5.2365	22.952
5.2312	23.225
5.2260	23.483
5.2207	23.720
5.2154	23.927
5.2102	24.130
5.2050	24.319
5.1998	24.466
5.1945	24.596
5.1893	24.710
5.1842	24.816
5.1790	24.924
5.1738	25.035
5.1686	25.137
5.1635	25.233
5.1584	25.342
5.1532	25.438
5.1481	25.522
5.1430	25.603
5.1379	25.693
5.1328	25.796
5.1277	25.894
5.1227	25.981
5.1176	26.057
5.1126	26.130
5.1075	26.191
5.1025	26.226
5.0975	26.241
5.0925	26.258
5.0875	26.280
5.0825	26.308
5.0775	26.339
5.0726	26.376
5.0676	26.407
5.0627	26.461
5.0577	26.529
5.0528	26.596
5.0479	26.655
5.0430	26.713
5.0380	26.784
5.0332	26.850
5.0283	26.890
5.0234	26.919
5.0185	26.956
5.0137	26.994
5.0088	27.050
5.0040	27.151
4.9992	27.251
4.9944	27.333
4.9896	27.435
4.9848	27.570
4.9800	27.726
4.9752	27.888
4.9704	28.075
4.9657	28.289
4.9609	28.490
4.9562	28.657
4.9514	28.808
4.9467	28.953
4.9420	29.085
4.9373	29.223
4.9326	29.372
4.9279	29.542
4.9232	29.736
4.9186	29.964
4.9139	30.221
4.9092	30.509
4.9046	30.801
4.9000	31.090
4.8953	31.360
4.8907	31.621
4.8861	31.871
4.8815	32.097
4.8769	32.317
4.8723	32.526
4.8678	32.689
4.8632	32.880
4.8586	33.099
4.8541	33.301
4.8495	33.505
4.8450	33.715
4.8405	33.919
4.8360	34.107
4.8315	34.304
4.8270	34.493
4.8225	34.677
4.8180	34.840
4.8135	35.002
4.8090	35.177
4.8046	35.340
4.8001	35.498
4.7957	35.648
4.7913	35.821
4.7868	35.999
4.7824	36.184
4.7780	36.386
4.7736	36.590
4.7692	36.811
4.7648	37.022
4.7605	37.225
4.7561	37.448
4.7517	37.657
4.7474	37.878
4.7431	38.103
4.7387	38.294
4.7344	38.486
4.7301	38.665
4.7258	38.840
4.7215	39.006
4.7172	39.152
4.7129	39.289
4.7086	39.411
4.7043	39.494
4.7000	39.557
4.6958	39.633
4.6915	39.708
4.6873	39.782
4.6831	39.862
4.6788	39.971
4.6746	40.109
4.6704	40.267
4.6662	40.432
4.6620	40.587
4.6578	40.765
4.6536	40.958
4.6495	41.149
4.6453	41.347
4.6411	41.541
4.6370	41.738
4.6328	41.923
4.6287	42.098
4.6246	42.285
4.6205	42.483
4.6163	42.666
4.6122	42.840
4.6081	43.045
4.6040	43.259
4.6000	43.472
4.5959	43.680
4.5918	43.875
4.5877	44.086
4.5837	44.291
4.5796	44.479
4.5756	44.676
4.5716	44.895
4.5675	45.103
4.5635	45.290
4.5595	45.467
4.5555	45.632
4.5515	45.777
4.5475	45.923
4.5435	46.084
4.5395	46.216
4.5356	46.322
4.5316	46.443
4.5276	46.569
4.5237	46.678
4.5197	46.767
4.5158	46.840
4.5119	46.893
4.5080	46.946
4.5040	47.006
4.5001	47.051
4.4962	47.106
4.4923	47.178
4.4884	47.232
4.4846	47.291
4.4807	47.337
4.4768	47.386
4.4730	47.442
4.4691	47.501
4.4652	47.572
4.4614	47.662
4.4576	47.783
4.4537	47.905
4.4499	48.014
4.4461	48.139
4.4423	48.259
4.4385	48.380
4.4347	48.517
4.4309	48.665
4.4271	48.821
4.4233	48.978
4.4196	49.152
4.4158	49.348
4.4120	49.526
4.4083	49.709
4.4045	49.885
4.4008	50.042
4.3971	50.214
4.3934	50.398
4.3896	50.555
4.3859	50.707
4.3822	50.856
4.3785	51.004
4.3748	51.156
4.3711	51.302
4.3674	51.425
4.3638	51.542
4.3601	51.661
4.3564	51.774
4.3528	51.876
4.3491	51.954
4.3455	52.042
4.3418	52.132
4.3382	52.217
4.3346	52.295
4.3310	52.363
4.3273	52.440
4.3237	52.519
4.3201	52.586
4.3165	52.643
4.3129	52.698
4.3094	52.756
4.3058	52.815
4.3022	52.855
4.2986	52.897
4.2951	52.966
4.2915	53.016
4.2880	53.054
4.2844	53.113
4.2809	53.198
4.2774	53.274
4.2738	53.339
4.2703	53.402
4.2668	53.438
4.2633	53.503
4.2598	53.565
4.2563	53.626
4.2528	53.680
4.2493	53.714
4.2458	53.751
4.2424	53.799
4.2389	53.847
4.2354	53.870
4.2320	53.914
4.2285	53.969
4.2251	54.013
4.2216	54.076
4.2182	54.119
4.2148	54.163
4.2113	54.189
4.2079	54.222
4.2045	54.248
4.2011	54.287
4.1977	54.320
4.1943	54.346
4.1909	54.373
4.1875	54.382
4.1841	54.417
4.1808	54.441
4.1774	54.451
4.1740	54.475
4.1707	54.516
4.1673	54.523
4.1640	54.523
4.1606	54.545
4.1573	54.564
4.1540	54.589
4.1506	54.602
4.1473	54.626
4.1440	54.640
4.1407	54.627
4.1374	54.631
4.1341	54.631
4.1308	54.623
4.1275	54.618
4.1242	54.617
4.1209	54.601
4.1177	54.573
4.1144	54.549
4.1111	54.527
4.1079	54.519
4.1046	54.492
4.1014	54.456
4.0981	54.389
4.0949	54.325
4.0917	54.264
4.0884	54.191
4.0852	54.120
4.0820	54.021
4.0788	53.898
4.0756	53.783
4.0724	53.648
4.0692	53.495
4.0660	53.339
4.0628	53.158
4.0596	52.958
4.0565	52.738
4.0533	52.475
4.0501	52.176
4.0470	51.833
4.0438	51.423
4.0406	50.962
4.0375	50.466
4.0344	49.933
4.0312	49.373
4.0281	48.827
4.0250	48.286
4.0218	47.758
4.0187	47.253
4.0156	46.730
4.0125	46.174
4.0094	45.563
4.0063	44.866
4.0032	44.131
4.0001	43.369
3.9970	42.600
3.9940	41.876
3.9909	41.222
3.9878	40.651
3.9847	40.205
3.9817	39.895
3.9786	39.706
3.9756	39.623
3.9725	39.623
3.9695	39.667
3.9665	39.780
3.9634	39.981
3.9604	40.234
3.9574	40.553
3.9544	40.943
3.9513	41.381
3.9483	41.838
3.9453	42.336
3.9423	42.821
3.9393	43.299
3.9363	43.722
3.9333	44.056
3.9304	44.326
3.9274	44.583
3.9244	44.868
3.9214	45.127
3.9185	45.392
3.9155	45.667
3.9126	45.899
3.9096	46.111
3.9067	46.280
3.9037	46.396
3.9008	46.501
3.8979	46.629
3.8949	46.729
3.8920	46.808
3.8891	46.908
3.8862	47.024
3.8833	47.139
3.8804	47.268
3.8775	47.418
3.8746	47.581
3.8717	47.759
3.8688	47.977
3.8659	48.210
3.8630	48.431
3.8601	48.635
3.8573	48.767
3.8544	48.844
3.8515	48.885
3.8487	48.884
3.8458	48.830
3.8430	48.756
3.8401	48.703
3.8373	48.655
3.8344	48.615
3.8316	48.615
3.8288	48.632
3.8259	48.687
3.8231	48.768
3.8203	48.845
3.8175	48.968
3.8147	49.143
3.8119	49.322
3.8091	49.549
3.8063	49.825
3.8035	50.111
3.8007	50.419
3.7979	50.760
3.7951	51.113
3.7924	51.449
3.7896	51.750
3.7868	52.025
3.7841	52.274
3.7813	52.495
3.7785	52.700
3.7758	52.891
3.7730	53.092
3.7703	53.268
3.7676	53.423
3.7648	53.567
3.7621	53.680
3.7594	53.788
3.7566	53.896
3.7539	53.956
3.7512	53.999
3.7485	54.040
3.7458	54.037
3.7431	54.029
3.7404	54.018
3.7377	54.002
3.7350	54.003
3.7323	53.993
3.7296	53.982
3.7269	53.964
3.7242	53.931
3.7216	53.931
3.7189	53.941
3.7162	53.934
3.7136	53.925
3.7109	53.923
3.7083	53.910
3.7056	53.873
3.7030	53.836
3.7003	53.828
3.6977	53.807
3.6950	53.790
3.6924	53.781
3.6898	53.757
3.6872	53.722
3.6845	53.694
3.6819	53.664
3.6793	53.621
3.6767	53.595
3.6741	53.566
3.6715	53.499
3.6689	53.444
3.6663	53.431
3.6637	53.402
3.6611	53.352
3.6585	53.315
3.6560	53.266
3.6534	53.211
3.6508	53.149
3.6482	53.110
3.6457	53.066
3.6431	53.011
3.6406	52.946
3.6380	52.893
3.6355	52.854
3.6329	52.795
3.6304	52.746
3.6278	52.692
3.6253	52.614
3.6227	52.540
3.6202	52.462
3.6177	52.408
3.6152	52.347
3.6127	52.249
3.6101	52.175
3.6076	52.128
3.6051	52.045
3.6026	51.937
3.6001	51.853
3.5976	51.779
3.5951	51.676
3.5926	51.568
3.5901	51.474
3.5876	51.357
3.5852	51.236
3.5827	51.091
3.5802	50.935
3.5777	50.779
3.5753	50.632
3.5728	50.504
3.5704	50.370
3.5679	50.192
3.5654	50.062
3.5630	49.939
3.5605	49.799
3.5581	49.657
3.5557	49.511
3.5532	49.379
3.5508	49.239
3.5484	49.090
3.5459	48.929
3.5435	48.746
3.5411	48.550
3.5387	48.304
3.5363	48.059
3.5338	47.767
3.5314	47.465
3.5290	47.129
3.5266	46.764
3.5242	46.385
3.5218	45.985
3.5195	45.562
3.5171	45.138
3.5147	44.753
3.5123	44.387
3.5099	44.034
3.5075	43.688
3.5052	43.344
3.5028	43.021
3.5004	42.750
3.4981	42.487
3.4957	42.225
3.4934	41.977
3.4910	41.763
3.4887	41.570
3.4863	41.368
3.4840	41.140
3.4816	40.915
3.4793	40.744
3.4770	40.643
3.4746	40.578
3.4723	40.612
3.4700	40.704
3.4677	40.824
3.4653	40.959
3.4630	41.083
3.4607	41.218
3.4584	41.336
3.4561	41.433
3.4538	41.515
3.4515	41.593
3.4492	41.678
3.4469	41.741
3.4446	41.780
3.4423	41.832
3.4400	41.879
3.4378	41.935
3.4355	41.969
3.4332	41.981
3.4309	41.999
3.4287	42.019
3.4264	42.012
3.4241	41.972
3.4219	41.896
3.4196	41.845
3.4174	41.829
3.4151	41.791
3.4129	41.721
3.4106	41.704
3.4084	41.736
3.4061	41.707
3.4039	41.695
3.4017	41.700
3.3994	41.661
3.3972	41.632
3.3950	41.599
3.3928	41.536
3.3906	41.491
3.3883	41.437
3.3861	41.357
3.3839	41.252
3.3817	41.133
3.3795	41.068
3.3773	40.965
3.3751	40.858
3.3729	40.763
3.3707	40.660
3.3685	40.547
3.3663	40.474
3.3641	40.413
3.3620	40.273
3.3598	40.141
3.3576	40.022
3.3554	39.875
3.3533	39.758
3.3511	39.689
3.3489	39.641
3.3468	39.657
3.3446	39.747
3.3425	39.859
3.3403	40.019
3.3382	40.198
3.3360	40.341
3.3339	40.441
3.3317	40.514
3.3296	40.554
3.3274	40.576
3.3253	40.561
3.3232	40.543
3.3210	40.566
3.3189	40.582
3.3168	40.587
3.3147	40.647
3.3126	40.757
3.3104	40.867
3.3083	40.991
3.3062	41.089
3.3041	41.202
3.3020	41.296
3.2999	41.301
3.2978	41.307
3.2957	41.328
3.2936	41.317
3.2915	41.301
3.2894	41.257
3.2874	41.175
3.2853	41.113
3.2832	41.063
3.2811	40.989
3.2790	40.897
3.2770	40.824
3.2749	40.731
3.2728	40.634
3.2708	40.573
3.2687	40.481
3.2666	40.367
3.2646	40.279
3.2625	40.172
3.2605	40.055
3.2584	39.958
3.2564	39.860
3.2543	39.750
3.2523	39.637
3.2503	39.550
3.2482	39.424
3.2462	39.275
3.2442	39.160
3.2421	39.044
3.2401	38.936
3.2381	38.826
3.2361	38.700
3.2340	38.571
3.2320	38.443
3.2300	38.296
3.2280	38.145
3.2260	37.982
3.2240	37.857
3.2220	37.750
3.2200	37.622
3.2180	37.462
3.2160	37.275
3.2140	37.145
3.2120	36.994
3.2100	36.807
3.2080	36.662
3.2060	36.526
3.2040	36.370
3.2021	36.199
3.2001	36.018
3.1981	35.859
3.1961	35.707
3.1942	35.557
3.1922	35.405
3.1902	35.247
3.1883	35.071
3.1863	34.876
3.1844	34.711
3.1824	34.572
3.1805	34.373
3.1785	34.202
3.1766	34.042
3.1746	33.863
3.1727	33.707
3.1707	33.564
3.1688	33.382
3.1669	33.195
3.1649	33.020
3.1630	32.823
3.1611	32.625
3.1591	32.428
3.1572	32.264
3.1553	32.081
3.1534	31.894
3.1515	31.703
3.1495	31.516
3.1476	31.336
3.1457	31.144
3.1438	30.928
3.1419	30.725
3.1400	30.537
3.1381	30.360
3.1362	30.166
3.1343	29.977
3.1324	29.765
3.1305	29.585
3.1286	29.396
3.1268	29.208
3.1249	29.019
3.1230	28.829
3.1211	28.609
3.1192	28.389
3.1174	28.217
3.1155	28.031
3.1136	27.827
3.1117	27.642
3.1099	27.446
3.1080	27.259
3.1061	27.057
3.1043	26.852
3.1024	26.684
3.1006	26.518
3.0987	26.324
3.0969	26.147
3.0950	25.969
3.0932	25.788
3.0913	25.585
3.0895	25.396
3.0876	25.215
3.0858	25.006
3.0840	24.849
3.0821	24.704
3.0803	24.515
3.0785	24.364
3.0766	24.197
3.0748	24.027
3.0730	23.869
3.0712	23.692
3.0694	23.495
3.0675	23.344
3.0657	23.183
3.0639	23.002
3.0621	22.842
3.0603	22.722
3.0585	22.577
3.0567	22.406
3.0549	22.241
3.0531	22.083
3.0513	21.929
3.0495	21.800
3.0477	21.625
3.0459	21.471
3.0441	21.323
3.0423	21.168
3.0406	21.021
3.0388	20.858
3.0370	20.729
3.0352	20.587
3.0334	20.410
3.0317	20.263
3.0299	20.119
3.0281	19.983
3.0264	19.852
3.0246	19.717
3.0228	19.557
3.0211	19.412
3.0193	19.255
3.0176	19.091
3.0158	18.968
3.0140	18.846
3.0123	18.693
3.0105	18.522
3.0088	18.392
3.0070	18.281
3.0053	18.157
3.0036	18.001
3.0018	17.862
3.0001	17.745
2.9984	17.637
2.9966	17.523
2.9949	17.404
2.9932	17.277
2.9914	17.142
2.9897	17.028
2.9880	16.924
2.9863	16.824
2.9845	16.743
2.9828	16.651
2.9811	16.555
2.9794	16.458
2.9777	16.367
2.9760	16.287
2.9743	16.193
2.9726	16.119
2.9709	16.053
2.9692	15.964
2.9675	15.839
2.9658	15.780
2.9641	15.739
2.9624	15.710
2.9607	15.638
2.9590	15.572
2.9573	15.490
2.9556	15.441
2.9539	15.409
2.9523	15.351
2.9506	15.287
2.9489	15.259
2.9472	15.230
2.9455	15.198
2.9439	15.180
2.9422	15.140
2.9405	15.083
2.9389	15.041
2.9372	15.030
2.9355	15.026
2.9339	15.024
2.9322	15.017
2.9306	14.993
2.9289	14.964
2.9272	14.949
2.9256	14.932
2.9239	14.914
2.9223	14.937
2.9207	14.945
2.9190	14.946
2.9174	14.967
2.9157	14.980
2.9141	14.978
2.9124	15.016
2.9108	15.055
2.9092	15.090
2.9075	15.120
2.9059	15.146
2.9043	15.191
2.9027	15.263
2.9010	15.293
2.8994	15.345
2.8978	15.435
2.8962	15.517
2.8946	15.582
2.8929	15.641
2.8913	15.749
2.8897	15.852
2.8881	15.911
2.8865	15.990
2.8849	16.081
2.8833	16.157
2.8817	16.219
2.8801	16.288
2.8785	16.372
2.8769	16.451
2.8753	16.485
2.8737	16.547
2.8721	16.601
2.8705	16.670
2.8689	16.709
2.8673	16.747
2.8658	16.769
2.8642	16.784
2.8626	16.776
2.8610	16.805
2.8594	16.824
2.8579	16.826
2.8563	16.826
2.8547	16.814
2.8531	16.791
2.8516	16.796
2.8500	16.777
2.8484	16.710
2.8469	16.659
2.8453	16.642
2.8437	16.621
2.8422	16.580
2.8406	16.524
2.8391	16.468
2.8375	16.435
2.8360	16.372
2.8344	16.302
2.8329	16.245
2.8313	16.187
2.8298	16.154
2.8282	16.117
2.8267	16.068
2.8252	16.008
2.8236	15.971
2.8221	15.950
2.8205	15.905
2.8190	15.843
2.8175	15.809
2.8159	15.786
2.8144	15.797
2.8129	15.793
2.8114	15.775
2.8098	15.759
2.8083	15.787
2.8068	15.809
2.8053	15.821
2.8038	15.835
2.8022	15.855
2.8007	15.918
2.7992	15.986
2.7977	16.057
2.7962	16.119
2.7947	16.151
2.7932	16.222
2.7917	16.263
2.7902	16.258
2.7887	16.234
2.7872	16.163
2.7857	16.056
2.7842	15.822
2.7827	15.420
2.7812	14.909
2.7797	14.368
2.7782	13.882
2.7767	13.515
2.7752	13.365
2.7738	13.405
2.7723	13.479
2.7708	13.362
2.7693	12.993
2.7678	12.453
2.7664	11.828
2.7649	11.236
2.7634	10.791
2.7619	10.508
2.7605	10.387
2.7590	10.361
2.7575	10.374
2.7561	10.353
2.7546	10.315
2.7531	10.313
2.7517	10.375
2.7502	10.483
2.7488	10.732
2.7473	11.182
2.7458	11.697
2.7444	12.209
2.7429	12.689
2.7415	13.147
2.7400	13.609
2.7386	14.077
2.7371	14.520
2.7357	14.921
2.7343	15.336
2.7328	15.767
2.7314	16.236
2.7299	16.773
2.7285	17.389
2.7271	18.073
2.7256	18.763
2.7242	19.517
2.7228	20.350
2.7213	21.228
2.7199	22.218
2.7185	23.388
2.7171	24.701
2.7156	26.115
2.7142	27.589
2.7128	29.044
2.7114	30.427
2.7100	31.817
2.7085	33.184
2.7071	34.487
2.7057	35.780
2.7043	37.082
2.7029	38.384
2.7015	39.680
2.7001	41.017
2.6987	42.333
2.6973	43.584
2.6959	44.808
2.6945	46.010
2.6931	47.230
2.6917	48.418
2.6903	49.496
2.6889	50.445
2.6875	51.307
2.6861	52.008
2.6847	52.559
2.6833	53.068
2.6819	53.462
2.6805	53.699
2.6791	53.880
2.6778	54.066
2.6764	54.209
2.6750	54.412
2.6736	54.589
2.6722	54.653
2.6709	54.620
2.6695	54.741
2.6681	54.937
2.6667	54.990
2.6654	55.075
2.6640	55.248
2.6626	55.424
2.6613	55.544
2.6599	55.646
2.6585	55.796
2.6572	55.926
2.6558	55.984
2.6545	56.100
2.6531	56.205
2.6517	56.301
2.6504	56.414
2.6490	56.500
2.6477	56.550
2.6463	56.542
2.6450	56.572
2.6436	56.680
2.6423	56.731
2.6409	56.793
2.6396	56.818
2.6382	56.820
2.6369	56.847
2.6356	56.838
2.6342	56.781
2.6329	56.805
2.6315	56.783
2.6302	56.757
2.6289	56.794
2.6275	56.800
2.6262	56.789
2.6249	56.880
2.6236	56.920
2.6222	56.934
2.6209	56.894
2.6196	56.920
2.6183	57.025
2.6169	57.048
2.6156	57.096
2.6143	57.172
2.6130	57.204
2.6117	57.278
2.6103	57.316
2.6090	57.319
2.6077	57.332
2.6064	57.305
2.6051	57.314
2.6038	57.440
2.6025	57.564
2.6012	57.647
2.5999	57.712
2.5986	57.777
2.5973	57.808
2.5960	57.727
2.5947	57.612
2.5934	57.775
2.5921	57.997
2.5908	58.064
2.5895	58.041
2.5882	58.042
2.5869	58.086
2.5856	58.133
2.5843	58.081
2.5830	58.100
2.5817	58.207
2.5805	58.212
2.5792	58.190
2.5779	58.184
2.5766	58.167
2.5753	58.176
2.5741	58.143
2.5728	58.111
2.5715	58.120
2.5702	58.067
2.5690	58.089
2.5677	58.155
2.5664	58.144
2.5651	58.108
2.5639	58.042
2.5626	58.007
2.5613	58.042
2.5601	58.087
2.5588	58.136
2.5575	58.133
2.5563	58.115
2.5550	58.141
2.5538	58.133
2.5525	58.095
2.5513	58.126
2.5500	58.171
2.5487	58.162
2.5475	58.153
2.5462	58.183
2.5450	58.183
2.5437	58.144
2.5425	58.131
2.5413	58.140
2.5400	58.149
2.5388	58.146
2.5375	58.142
2.5363	58.108
2.5350	58.104
2.5338	58.119
2.5326	58.156
2.5313	58.159
2.5301	58.141
2.5289	58.158
2.5276	58.155
2.5264	58.152
2.5252	58.185
2.5239	58.234
2.5227	58.221
2.5215	58.212
2.5202	58.242
2.5190	58.230
2.5178	58.253
2.5166	58.320
2.5154	58.311
2.5141	58.293
2.5129	58.319
2.5117	58.356
2.5105	58.313
2.5093	58.293
2.5081	58.297
2.5068	58.301
2.5056	58.311
2.5044	58.353
2.5032	58.337
2.5020	58.348
2.5008	58.354
2.4996	58.350
2.4984	58.351
2.4972	58.360
2.4960	58.367
2.4948	58.381
2.4936	58.418
2.4924	58.441
2.4912	58.499
2.4900	58.522
2.4888	58.514
2.4876	58.563
2.4864	58.609
2.4852	58.657
2.4840	58.681
2.4828	58.706
2.4816	58.724
2.4805	58.728
2.4793	58.756
2.4781	58.802
2.4769	58.817
2.4757	58.850
2.4745	58.885
2.4734	58.898
2.4722	58.910
2.4710	58.958
2.4698	59.007
2.4686	59.045
2.4675	59.042
2.4663	59.063
2.4651	59.107
2.4640	59.112
2.4628	59.135
2.4616	59.148
2.4604	59.123
2.4593	59.133
2.4581	59.127
2.4569	59.091
2.4558	59.056
2.4546	59.074
2.4535	59.083
2.4523	59.098
2.4511	59.101
2.4500	59.093
2.4488	59.051
2.4477	59.037
2.4465	59.046
2.4454	59.023
2.4442	58.985
2.4431	58.965
2.4419	58.914
2.4408	58.875
2.4396	58.900
2.4385	58.884
2.4373	58.873
2.4362	58.863
2.4350	58.826
2.4339	58.828
2.4327	58.818
2.4316	58.782
2.4305	58.768
2.4293	58.784
2.4282	58.814
2.4270	58.823
2.4259	58.818
2.4248	58.854
2.4236	58.842
2.4225	58.837
2.4214	58.886
2.4202	58.898
2.4191	58.889
2.4180	58.879
2.4169	58.875
2.4157	58.909
2.4146	58.875
2.4135	58.845
2.4124	58.867
2.4112	58.856
2.4101	58.828
2.4090	58.826
2.4079	58.825
2.4068	58.807
2.4056	58.777
2.4045	58.770
2.4034	58.779
2.4023	58.754
2.4012	58.720
2.4001	58.735
2.3990	58.715
2.3979	58.701
2.3967	58.692
2.3956	58.708
2.3945	58.706
2.3934	58.665
2.3923	58.633
2.3912	58.654
2.3901	58.637
2.3890	58.598
2.3879	58.529
2.3868	58.471
2.3857	58.407
2.3846	58.340
2.3835	58.255
2.3824	58.195
2.3813	58.121
2.3802	58.047
2.3791	57.970
2.3781	57.816
2.3770	57.726
2.3759	57.619
2.3748	57.475
2.3737	57.333
2.3726	57.204
2.3715	57.059
2.3704	56.909
2.3694	56.715
2.3683	56.495
2.3672	56.296
2.3661	56.103
2.3650	55.877
2.3640	55.641
2.3629	55.454
2.3618	55.273
2.3607	55.056
2.3597	54.855
2.3586	54.675
2.3575	54.459
2.3564	54.255
2.3554	54.108
2.3543	53.950
2.3532	53.784
2.3522	53.676
2.3511	53.576
2.3500	53.483
2.3490	53.380
2.3479	53.334
2.3468	53.320
2.3458	53.303
2.3447	53.286
2.3436	53.329
2.3426	53.406
2.3415	53.466
2.3405	53.571
2.3394	53.624
2.3384	53.693
2.3373	53.821
2.3363	53.923
2.3352	54.032
2.3342	54.182
2.3331	54.305
2.3321	54.418
2.3310	54.596
2.3300	54.744
2.3289	54.840
2.3279	54.929
2.3268	55.038
2.3258	55.148
2.3247	55.231
2.3237	55.341
2.3226	55.421
2.3216	55.513
2.3206	55.602
2.3195	55.663
2.3185	55.757
2.3175	55.847
2.3164	55.951
2.3154	56.064
2.3144	56.161
2.3133	56.279
2.3123	56.394
2.3113	56.481
2.3102	56.596
2.3092	56.754
2.3082	56.952
2.3071	57.114
2.3061	57.244
2.3051	57.408
2.3041	57.577
2.3030	57.718
2.3020	57.848
2.3010	57.977
2.3000	58.142
2.2990	58.308
2.2979	58.480
2.2969	58.653
2.2959	58.896
2.2949	59.101
2.2939	59.323
2.2929	59.549
2.2918	59.731
2.2908	59.896
2.2898	60.087
2.2888	60.264
2.2878	60.478
2.2868	60.636
2.2858	60.729
2.2848	60.870
2.2838	60.960
2.2828	61.039
2.2818	61.152
2.2808	61.242
2.2798	61.335
2.2787	61.382
2.2777	61.352
2.2767	61.298
2.2757	61.264
2.2747	61.201
2.2738	61.150
2.2728	61.107
2.2718	61.018
2.2708	60.926
2.2698	60.823
2.2688	60.684
2.2678	60.570
2.2668	60.416
2.2658	60.273
2.2648	60.161
2.2638	60.068
2.2628	59.958
2.2618	59.821
2.2609	59.714
2.2599	59.679
2.2589	59.611
2.2579	59.530
2.2569	59.516
2.2559	59.563
2.2550	59.621
2.2540	59.678
2.2530	59.745
2.2520	59.952
2.2510	60.146
2.2501	60.364
2.2491	60.640
2.2481	60.823
2.2471	61.016
2.2462	61.297
2.2452	61.611
2.2442	61.888
2.2433	62.150
2.2423	62.395
2.2413	62.626
2.2403	62.841
2.2394	63.052
2.2384	63.226
2.2374	63.369
2.2365	63.472
2.2355	63.581
2.2345	63.686
2.2336	63.851
2.2326	63.991
2.2317	64.060
2.2307	64.094
2.2297	64.125
2.2288	64.177
2.2278	64.225
2.2269	64.290
2.2259	64.309
2.2250	64.350
2.2240	64.362
2.2231	64.362
2.2221	64.398
2.2211	64.350
2.2202	64.270
2.2192	64.258
2.2183	64.248
2.2173	64.171
2.2164	64.046
2.2155	63.958
2.2145	63.842
2.2136	63.708
2.2126	63.543
2.2117	63.403
2.2107	63.271
2.2098	63.103
2.2088	62.886
2.2079	62.676
2.2070	62.500
2.2060	62.390
2.2051	62.301
2.2041	62.183
2.2032	62.098
2.2023	62.103
2.2013	62.109
2.2004	62.093
2.1995	62.066
2.1985	62.091
2.1976	62.154
2.1967	62.171
2.1957	62.165
2.1948	62.216
2.1939	62.299
2.1930	62.378
2.1920	62.487
2.1911	62.615
2.1902	62.724
2.1893	62.826
2.1883	62.950
2.1874	63.080
2.1865	63.267
2.1856	63.474
2.1846	63.644
2.1837	63.801
2.1828	63.980
2.1819	64.150
2.1810	64.262
2.1800	64.376
2.1791	64.555
2.1782	64.783
2.1773	64.951
2.1764	65.004
2.1755	65.102
2.1746	65.271
2.1736	65.423
2.1727	65.485
2.1718	65.570
2.1709	65.688
2.1700	65.836
2.1691	65.987
2.1682	65.992
2.1673	66.073
2.1664	66.173
2.1655	66.231
2.1646	66.277
2.1637	66.349
2.1628	66.456
2.1619	66.488
2.1610	66.454
2.1601	66.474
2.1592	66.590
2.1583	66.663
2.1574	66.623
2.1565	66.607
2.1556	66.619
2.1547	66.619
2.1538	66.676
2.1529	66.766
2.1520	66.809
2.1511	66.787
2.1502	66.818
2.1493	66.836
2.1484	66.788
2.1475	66.779
2.1466	66.834
2.1458	66.882
2.1449	66.880
2.1440	66.902
2.1431	66.987
2.1422	66.999
2.1413	66.957
2.1404	66.966
2.1396	67.006
2.1387	67.035
2.1378	67.009
2.1369	67.043
2.1360	67.086
2.1352	67.072
2.1343	67.064
2.1334	67.064
2.1325	67.149
2.1316	67.157
2.1308	67.078
2.1299	67.103
2.1290	67.145
2.1281	67.099
2.1273	67.081
2.1264	67.168
2.1255	67.285
2.1247	67.239
2.1238	67.220
2.1229	67.246
2.1220	67.259
2.1212	67.264
2.1203	67.255
2.1194	67.256
2.1186	67.215
2.1177	67.228
2.1168	67.281
2.1160	67.285
2.1151	67.351
2.1143	67.362
2.1134	67.302
2.1125	67.378
2.1117	67.408
2.1108	67.348
2.1100	67.404
2.1091	67.465
2.1082	67.473
2.1074	67.427
2.1065	67.404
2.1057	67.451
2.1048	67.497
2.1040	67.515
2.1031	67.432
2.1023	67.442
2.1014	67.615
2.1005	67.634
2.0997	67.522
2.0988	67.568
2.0980	67.647
2.0971	67.687
2.0963	67.662
2.0955	67.646
2.0946	67.667
2.0938	67.683
2.0929	67.638
2.0921	67.646
2.0912	67.741
2.0904	67.724
2.0895	67.681
2.0887	67.732
2.0879	67.768
2.0870	67.746
2.0862	67.749
2.0853	67.762
2.0845	67.724
2.0837	67.745
2.0828	67.782
2.0820	67.750
2.0812	67.727
2.0803	67.745
2.0795	67.755
2.0760	67.755
2.0720	67.755
2.0680	67.884
2.0640	68.074
2.0600	67.823
2.0560	67.884
2.0520	67.729
2.0480	67.641
2.0440	67.487
2.0400	67.332
2.0360	67.152
2.0320	67.042
2.0280	66.677
2.0240	66.363
2.0200	66.200
2.0160	66.141
2.0120	65.779
2.0080	65.663
2.0040	65.641
2.0000	65.397
1.9960	65.133
1.9920	65.005
1.9880	65.168
1.9840	65.353
1.9800	65.146
1.9760	65.068
1.9720	65.287
1.9680	65.230
1.9640	65.209
1.9600	64.919
1.9560	64.884
1.9520	64.735
1.9480	64.679
1.9440	64.495
1.9400	64.459
1.9360	64.592
1.9320	64.535
1.9280	64.454
1.9240	64.438
1.9200	64.811
1.9160	64.847
1.9120	65.034
1.9080	64.847
1.9040	64.905
1.9000	65.011
1.8960	64.997
1.8920	64.626
1.8880	64.649
1.8840	64.428
1.8800	64.570
1.8760	64.490
1.8720	64.521
1.8680	64.727
1.8640	64.649
1.8600	64.694
1.8560	64.480
1.8520	64.460
1.8480	64.342
1.8440	64.787
1.8400	65.075
1.8360	65.246
1.8320	65.295
1.8280	64.801
1.8240	64.719
1.8200	64.424
1.8160	63.920
1.8120	63.936
1.8080	63.882
1.8040	63.865
1.8000	63.865
1.7960	63.774
1.7920	63.882
1.7880	63.667
1.7840	63.488
1.7800	63.686
1.7760	63.578
1.7720	63.381
1.7680	63.228
1.7640	63.139
1.7600	63.059
1.7560	63.095
1.7520	63.113
1.7480	62.474
1.7440	62.275
1.7400	62.470
1.7360	62.949
1.7320	63.201
1.7280	63.128
1.7240	62.767
1.7200	62.569
1.7160	62.213
1.7120	62.716
1.7080	62.259
1.7040	62.360
1.7000	61.750
1.6960	61.818
1.6920	61.572
1.6880	61.676
1.6840	61.314
1.6800	61.361
1.6760	61.413
1.6720	61.423
1.6680	61.140
1.6640	60.835
1.6600	60.528
1.6560	60.337
1.6520	60.083
1.6480	60.235
1.6440	60.606
1.6400	59.953
1.6360	59.953
1.6320	60.106
1.6280	59.914
1.6240	59.634
1.6200	59.444
1.6160	58.710
1.6120	58.483
1.6080	58.601
1.6040	58.849
1.6000	58.899
1.5960	58.481
1.5920	58.360
1.5880	58.221
1.5840	58.271
1.5800	58.289
1.5760	58.118
1.5720	57.750
1.5680	56.928
1.5640	56.505
1.5600	56.180
1.5560	56.087
1.5520	56.097
1.5480	56.464
1.5440	56.060
1.5400	55.472
1.5360	55.892
1.5320	56.212
1.5280	55.902
1.5240	55.671
1.5200	55.306
1.5160	55.213
1.5120	55.531
1.5080	55.774
1.5040	55.788
1.5000	55.447
1.4960	54.904
1.4920	54.033
1.4880	53.940
1.4840	53.760
1.4800	53.490
1.4760	53.223
1.4720	53.089
1.4680	53.448
1.4640	53.539
1.4600	52.999
1.4560	52.864
1.4520	52.641
1.4480	52.152
1.4440	51.969
1.4400	51.838
1.4360	51.655
1.4320	51.653
1.4280	51.475
1.4240	50.985
1.4200	50.314
1.4160	49.326
1.4120	48.181
1.4080	47.553
1.4040	47.209
1.4000	46.762
1.3960	46.893
1.3920	47.460
1.3880	47.671
1.3840	47.631
1.3800	47.937
1.3760	48.143
1.3720	47.730
1.3680	47.898
1.3640	48.001
1.3600	47.762
1.3560	47.408
1.3520	47.169
1.3480	46.716
1.3440	46.461
1.3400	46.180
1.3360	45.991
1.3320	45.775
1.3280	45.583
1.3240	45.094
1.3200	45.033
1.3160	44.558
1.3120	44.432
1.3080	43.986
1.3040	43.556
1.3000	43.289
1.2960	43.021
1.2920	42.860
1.2880	42.484
1.2840	42.302
1.2800	42.099
1.2760	41.857
1.2720	41.585
1.2680	41.326
1.2640	40.856
1.2600	40.947
1.2560	40.878
1.2520	40.696
1.2480	40.297
1.2440	39.913
1.2400	39.560
1.2360	39.321
1.2320	39.081
1.2280	38.939
1.2240	38.537
1.2200	38.323
1.2160	37.933
1.2120	37.567
1.2080	37.171
1.2040	36.810
1.2000	36.629
1.1960	36.247
1.1920	35.977
1.1880	35.696
1.1840	35.397
1.1800	35.278
1.1760	34.923
1.1720	34.776
1.1680	34.598
1.1640	34.250
1.1600	34.145
1.1560	34.016
1.1520	34.136
1.1480	34.178
1.1440	34.025
1.1400	33.781
1.1360	33.524
1.1320	33.080
1.1280	33.107
1.1240	32.917
1.1200	32.835
1.1160	32.681
1.1120	32.751
1.1080	32.542
1.1040	32.435
1.1000	32.256
1.0960	32.333
1.0920	32.083
1.0880	32.072
1.0840	32.139
1.0800	31.760
1.0760	31.566
1.0720	31.471
1.0680	31.258
1.0640	31.113
1.0600	30.854
1.0560	30.834
1.0520	30.784
1.0480	30.568
1.0440	30.624
1.0400	30.658
1.0360	30.602
1.0320	30.783
1.0280	30.412
1.0240	30.190
1.0200	30.280
1.0160	30.305
1.0120	29.862
1.0080	29.960
1.0040	29.827
1.0000	29.436
0.99600	29.697
0.99200	29.195
0.98800	29.203
0.98400	29.085
0.98000	29.264
0.97600	28.976
0.97200	28.761
0.96800	28.548
0.96400	28.460
0.96000	28.187
0.95600	28.029
0.95200	27.871
0.94800	27.871
0.94400	27.691
0.94000	27.646
0.93600	27.242
0.93200	27.264
0.92800	26.954
0.92400	26.876
0.92000	26.596
0.91600	26.654
0.91200	26.544
0.90800	26.408
0.90400	26.276
0.90000	26.229
0.89600	26.029
0.89200	25.850
0.88800	25.782
0.88400	25.734
0.88000	25.724
0.87600	25.517
0.87200	25.662
0.86800	25.531
0.86400	25.593
0.86000	25.708
0.85600	25.516
0.85200	25.355
0.84800	25.471
0.84400	25.326
0.84000	25.326
0.83600	25.521
0.83200	25.355
0.82800	25.607
0.82400	25.544
0.82000	25.760
0.81600	25.581
0.81200	25.478
0.80800	25.789
0.80400	25.747
0.80000	25.685
0.79900	25.685
0.79800	25.685
0.79700	25.759
0.79600	25.903
0.79500	25.903
0.79400	25.975
0.79300	25.759
0.79200	25.880
0.79100	25.854
0.79000	25.803
0.78900	25.685
0.78800	25.639
0.78700	25.662
0.78600	25.593
0.78500	25.393
0.78400	25.780
0.78300	25.780
0.78200	25.570
0.78100	25.373
0.78000	25.488
0.77900	25.558
0.77800	25.414
0.77700	25.465
0.77600	25.302
0.77500	25.253
0.77400	25.253
0.77300	25.253
0.77200	25.227
0.77100	25.134
0.77000	24.877
0.76900	24.925
0.76800	25.131
0.76700	25.073
0.76600	25.073
0.76500	24.863
0.76400	25.073
0.76300	24.954
0.76200	24.814
0.76100	25.045
0.76000	24.789
0.75900	24.818
0.75800	24.915
0.75700	24.818
0.75600	24.811
0.75500	24.512
0.75400	24.724
0.75300	24.454
0.75200	24.476
0.75100	24.283
0.75000	24.239
0.74900	24.230
0.74800	24.230
0.74700	24.327
0.74600	23.896
0.74500	24.230
0.74400	24.492
0.74300	24.003
0.74200	24.276
0.74100	24.618
0.74000	24.327
0.73900	24.026
0.73800	23.928
0.73700	23.745
0.73600	23.964
0.73500	23.939
0.73400	23.831
0.73300	23.999
0.73200	24.137
0.73100	24.005
0.73000	23.750
0.72900	23.880
0.72800	23.750
0.72700	23.923
0.72600	23.794
0.72500	23.794
0.72400	23.610
0.72300	23.610
0.72200	23.639
0.72100	23.631
0.72000	23.549
0.71900	23.773
0.71800	23.697
0.71700	23.771
0.71600	23.684
0.71500	23.553
0.71400	23.553
0.71300	23.404
0.71200	23.714
0.71100	23.564
0.71000	23.455
0.70900	23.390
0.70800	23.629
0.70700	23.304
0.70600	23.249
0.70500	23.270
0.70400	23.335
0.70300	23.268
0.70200	23.268
0.70100	23.076
0.70000	23.280
0.69900	23.574
0.69800	23.340
0.69700	23.519
0.69600	23.330
0.69500	23.274
0.69400	23.174
0.69300	23.252
0.69200	23.187
0.69100	23.274
0.69000	23.352
0.68900	23.519
0.68800	23.374
0.68700	23.374
0.68600	23.274
0.68500	23.418
0.68400	23.274
0.68300	23.274
0.68200	23.252
0.68100	23.452
0.68000	23.419
0.67900	23.340
0.67800	23.218
0.67700	23.074
0.67600	23.174
0.67500	23.340
0.67400	23.340
0.67300	23.441
0.67200	23.252
0.67100	23.284
0.67000	23.464
0.66900	23.284
0.66800	23.262
0.66700	23.262
0.66600	23.441
0.66500	23.619
0.66400	23.652
0.66300	23.330
0.66200	23.529
0.66100	23.328
0.66000	23.385
0.65900	23.498
0.65800	23.599
0.65700	23.452
0.65600	23.542
0.65500	23.564
0.65400	23.519
0.65300	23.475
0.65200	23.274
0.65100	23.330
0.65000	23.186
0.64900	23.022
0.64800	23.221
0.64700	23.463
0.64600	23.700
0.64500	23.699
0.64400	23.700
0.64300	23.655
0.64200	23.843
0.64100	23.519
0.64000	23.778
0.63900	23.835
0.63800	23.464
0.63700	23.352
0.63600	23.286
0.63500	23.352
0.63400	23.274
0.63300	23.352
0.63200	23.430
0.63100	23.843
0.63000	23.775
0.62900	23.530
0.62800	23.408
0.62700	23.608
0.62600	23.930
0.62500	23.843
0.62400	23.921
0.62300	23.952
0.62200	23.807
0.62100	24.083
0.62000	24.067
0.61900	24.330
0.61800	24.448
0.61700	24.174
0.61600	24.206
0.61500	24.159
0.61400	24.167
0.61300	24.075
0.61200	24.462
0.61100	24.509
0.61000	24.283
0.60900	24.260
0.60800	24.136
0.60700	24.034
0.60600	23.877
0.60500	23.956
0.60400	23.956
0.60300	24.104
0.60200	24.174
0.60100	24.187
0.60000	24.431
0.59900	24.399
0.59800	24.044
0.59700	24.367
0.59600	24.543
0.59500	24.433
0.59400	24.399
0.59300	24.591
0.59200	24.546
0.59100	24.522
0.59000	24.208
0.58900	24.450
0.58800	24.650
0.58700	24.601
0.58600	24.650
0.58500	24.663
0.58400	24.454
0.58300	24.505
0.58200	24.605
0.58100	24.786
0.58000	24.965
0.57900	24.808
0.57800	24.680
0.57700	24.687
0.57600	24.687
0.57500	24.916
0.57400	24.970
0.57300	25.027
0.57200	24.812
0.57100	25.010
0.57000	24.913
0.56900	24.989
0.56800	25.192
0.56700	25.187
0.56600	25.416
0.56500	25.391
0.56400	25.241
0.56300	25.339
0.56200	25.314
0.56100	25.314
0.56000	25.518
0.55900	25.409
0.55800	25.409
0.55700	25.657
0.55600	25.613
0.55500	25.568
0.55400	25.613
0.55300	25.612
0.55200	25.582
0.55100	25.650
0.55000	25.321
0.54900	25.556
0.54800	25.519
0.54700	25.397
0.54600	25.610
0.54500	25.856
0.54400	25.864
0.54300	26.104
0.54200	26.027
0.54100	25.725
0.54000	25.826
0.53900	25.786
0.53800	25.912
0.53700	25.740
0.53600	25.740
0.53500	25.818
0.53400	25.864
0.53300	25.633
0.53200	25.673
0.53100	25.452
0.53000	25.497
0.52900	25.411
0.52800	25.546
0.52700	25.724
0.52600	25.624
0.52500	25.524
0.52400	25.468
0.52300	25.501
0.52200	25.725
0.52100	25.602
0.52000	25.536
0.51900	25.412
0.51800	25.446
0.51700	25.569
0.51600	25.747
0.51500	25.614
0.51400	25.345
0.51300	25.367
0.51200	25.233
0.51100	25.211
0.51000	25.099
0.50900	25.055
0.50800	25.166
0.50700	25.300
0.50600	25.276
0.50500	25.109
0.50400	25.153
0.50300	24.960
0.50200	24.974
0.50100	25.166
0.50000	24.984
0.49900	24.663
0.49800	24.706
0.49700	24.727
0.49600	24.641
0.49500	24.504
0.49400	24.260
0.49300	24.525
0.49200	24.431
0.49100	24.539
0.49000	24.634
0.48900	24.531
0.48800	24.449
0.48700	24.525
0.48600	24.364
0.48500	24.222
0.48400	24.124
0.48300	24.187
0.48200	24.082
0.48100	23.981
0.48000	24.063
0.47900	24.003
0.47800	23.963
0.47700	23.736
0.47600	23.512
0.47500	23.472
0.47400	23.798
0.47300	23.346
0.47200	23.306
0.47100	23.246
0.47000	23.145
0.46900	22.906
0.46800	23.125
0.46700	22.843
0.46600	22.660
0.46500	22.824
0.46400	22.737
0.46300	22.756
0.46200	22.610
0.46100	22.411
0.46000	22.013
0.45900	23.195
0.45800	23.109
0.45700	22.962
0.45600	22.897
0.45500	22.634
0.45400	22.715
0.45300	22.539
0.45200	22.407
0.45100	22.333
0.45000	22.426
0.44900	22.379
0.44800	22.320
0.44700	22.339
0.44600	22.240
0.44500	22.133
0.44400	22.136
0.44300	21.504
0.44200	21.466
0.44100	21.668
0.44000	21.556
0.43900	21.591
0.43800	21.661
0.43700	21.535
0.43600	21.539
0.43500	21.574
0.43400	21.465
0.43300	21.130
0.43200	21.146
0.43100	21.197
0.43000	20.916
0.42900	20.855
0.42800	20.700
0.42700	20.378
0.42600	20.563
0.42500	20.311
0.42400	20.238
0.42300	20.538
0.42200	20.136
0.42100	19.949
0.42000	19.957
0.41900	19.767
0.41800	19.707
0.41700	19.426
0.41600	19.421
0.41500	19.412
0.41400	19.259
0.41300	18.986
0.41200	18.727
0.41100	18.660
0.41000	18.444
0.40900	18.594
0.40800	18.740
0.40700	18.542
0.40600	18.243
0.40500	18.112
0.40400	18.150
0.40300	18.150
0.40200	18.162
0.40100	18.087
0.40000	17.987
