Name: Clinozoisite Ca2Al3(SiO4)3(OH)
Type:  Mineral
Class:   Silicates 
Subclass:   Sorosilicates (Epidote Group)
Particle Size: Fine  (less than 2  Micrometers)
Sample No.:  clinozo.1
Owner:  JHU
Wavelength Range:  IR
Origin:  Sample from Baja California, Mexico via Smithsonian (sample 
no. NMNH 112513-2.
Description: The sample was one large (2.5 cm x 2 cm x 2 cm) crystal 
with good crystal faces, weighing 19 g.  It was dark gray in color, 
with <<1% limonitic surface contamination, which was easily removed.  
Under the microscope the sample appears to be pure and free from 
alteration.

Measurement:  Transmission 
First Column:  X
Second Column:  Y  
X Units:  Wavelength (micrometers)
Y Units:  Transmittance (percent)
First X Value:  25.0442
Last X Value:  2.079
Number of X Values:  2287
Additional Information: clinoz1a.txt

25.044	28.328
24.924	25.898
24.805	23.344
24.686	21.547
24.569	20.226
24.454	19.113
24.339	18.441
24.225	18.750
24.112	19.816
24.001	20.879
23.890	22.344
23.781	24.078
23.672	25.133
23.564	25.844
23.458	26.601
23.352	26.961
23.247	27.555
23.144	28.184
23.041	29.098
22.939	30.392
22.838	31.992
22.738	33.510
22.638	34.822
22.540	35.658
22.442	35.515
22.345	34.258
22.250	32.008
22.154	28.984
22.060	25.494
21.967	22.316
21.874	20.601
21.782	20.604
21.691	22.277
21.601	25.391
21.511	29.135
21.422	32.221
21.334	33.924
21.247	34.158
21.160	33.133
21.074	31.887
20.988	31.103
20.904	30.914
20.820	31.703
20.737	33.176
20.654	34.752
20.572	36.004
20.491	36.680
20.410	36.801
20.330	36.572
20.251	36.400
20.172	36.332
20.094	36.330
20.016	36.154
19.939	35.562
19.863	34.117
19.787	32.121
19.712	29.814
19.637	27.236
19.563	24.807
19.489	22.824
19.416	21.305
19.344	20.434
19.272	20.332
19.201	20.759
19.130	21.570
19.059	22.801
18.990	23.957
18.920	24.829
18.851	25.160
18.783	25.023
18.715	24.392
18.648	23.353
18.581	22.020
18.515	20.508
18.449	19.281
18.384	18.473
18.319	17.930
18.254	17.521
18.190	17.258
18.126	16.965
18.063	16.441
18.001	15.891
17.938	15.529
17.876	15.426
17.815	15.525
17.754	16.005
17.693	16.699
17.633	17.317
17.573	17.797
17.514	18.105
17.455	18.414
17.396	18.763
17.338	19.361
17.280	20.309
17.223	21.629
17.166	23.438
17.109	25.488
17.053	27.552
16.997	29.418
16.942	30.829
16.886	31.564
16.832	31.642
16.777	31.189
16.723	30.704
16.669	30.740
16.616	31.820
16.563	34.103
16.510	37.187
16.458	40.587
16.406	44.032
16.354	46.904
16.302	48.949
16.251	50.291
16.200	50.841
16.150	50.660
16.100	49.833
16.050	48.390
16.000	46.200
15.951	43.385
15.902	40.207
15.854	36.793
15.805	33.449
15.757	30.395
15.710	27.696
15.662	25.247
15.615	23.119
15.568	21.239
15.521	19.563
15.475	18.313
15.429	17.546
15.383	17.220
15.338	17.497
15.292	18.359
15.248	19.587
15.203	20.876
15.158	22.063
15.114	22.955
15.070	23.430
15.027	23.621
14.983	23.603
14.940	23.635
14.897	23.939
14.854	24.527
14.812	25.242
14.770	25.900
14.728	26.645
14.686	27.619
14.645	28.893
14.603	30.623
14.562	32.793
14.521	35.204
14.481	37.647
14.441	39.913
14.400	41.782
14.361	43.338
14.321	44.877
14.281	46.548
14.242	48.580
14.203	51.011
14.164	53.613
14.126	56.297
14.087	58.978
14.049	61.514
14.011	63.805
13.973	65.828
13.936	67.555
13.899	68.839
13.861	69.747
13.824	70.268
13.788	70.227
13.751	69.615
13.715	68.638
13.679	67.527
13.643	66.910
13.607	67.368
13.571	68.881
13.536	71.059
13.500	73.370
13.465	75.393
13.430	76.985
13.396	78.244
13.361	79.212
13.327	79.818
13.293	80.217
13.259	80.602
13.225	80.937
13.191	81.186
13.158	81.410
13.124	81.666
13.091	81.832
13.058	81.944
13.026	82.064
12.993	82.052
12.960	82.049
12.928	82.054
12.896	82.000
12.864	81.928
12.832	81.797
12.800	81.534
12.769	81.354
12.737	81.322
12.706	81.179
12.675	80.792
12.644	80.424
12.614	79.991
12.583	79.342
12.552	78.639
12.522	77.959
12.492	77.198
12.462	76.412
12.432	75.606
12.402	74.748
12.373	73.907
12.343	73.135
12.314	72.252
12.285	71.297
12.256	70.280
12.227	69.156
12.198	67.814
12.169	66.308
12.141	64.564
12.113	62.455
12.084	59.993
12.056	57.200
12.028	54.135
12.000	50.821
11.973	47.494
11.945	44.282
11.918	41.492
11.890	39.484
11.863	38.336
11.836	38.082
11.809	38.521
11.782	39.197
11.755	39.715
11.729	39.629
11.702	38.711
11.676	37.040
11.650	34.853
11.624	32.493
11.598	30.319
11.572	28.655
11.546	27.738
11.520	27.510
11.495	27.625
11.469	27.471
11.444	26.502
11.419	24.569
11.394	21.889
11.369	18.884
11.344	15.997
11.319	13.655
11.294	11.941
11.270	10.778
11.245	10.155
11.221	10.028
11.197	10.197
11.173	10.565
11.149	11.083
11.125	11.644
11.101	12.184
11.077	12.673
11.054	13.125
11.030	13.462
11.007	13.727
10.983	14.034
10.960	14.404
10.937	14.909
10.914	15.592
10.891	16.333
10.868	16.916
10.846	17.189
10.823	16.987
10.800	16.164
10.778	14.846
10.755	13.210
10.733	11.421
10.711	9.6709
10.689	8.1626
10.667	6.9551
10.645	5.9844
10.623	5.1977
10.602	4.5820
10.580	4.1426
10.558	3.8350
10.537	3.6431
10.516	3.4971
10.494	3.4517
10.473	3.5322
10.452	3.6758
10.431	3.9053
10.410	4.2764
10.389	4.7349
10.368	5.2451
10.348	5.7988
10.327	6.3989
10.306	7.0351
10.286	7.7627
10.266	8.5781
10.245	9.5566
10.225	10.723
10.205	12.141
10.185	13.773
10.165	15.592
10.145	17.604
10.125	19.765
10.106	22.004
10.086	24.293
10.066	26.570
10.047	28.802
10.027	30.999
10.008	33.134
9.9887	35.153
9.9695	37.094
9.9504	38.915
9.9313	40.608
9.9123	42.187
9.8934	43.596
9.8746	44.797
9.8558	45.769
9.8371	46.472
9.8185	46.908
9.7999	47.002
9.7814	46.664
9.7630	45.845
9.7447	44.575
9.7264	42.780
9.7082	40.405
9.6900	37.489
9.6719	34.126
9.6539	30.601
9.6360	27.461
9.6181	25.223
9.6003	24.165
9.5825	24.335
9.5649	25.571
9.5472	27.559
9.5297	29.987
9.5122	32.553
9.4948	35.009
9.4774	37.232
9.4601	39.128
9.4429	40.617
9.4257	41.668
9.4086	42.248
9.3916	42.358
9.3746	41.993
9.3577	41.152
9.3408	39.944
9.3240	38.518
9.3073	36.961
9.2906	35.386
9.2740	33.918
9.2574	32.635
9.2409	31.557
9.2245	30.580
9.2081	29.534
9.1918	28.323
9.1755	27.030
9.1593	25.752
9.1431	24.539
9.1270	23.431
9.1110	22.398
9.0950	21.495
9.0791	20.854
9.0632	20.475
9.0474	20.344
9.0316	20.379
9.0159	20.499
9.0003	20.546
8.9847	20.400
8.9691	20.042
8.9536	19.461
8.9382	18.708
8.9228	17.918
8.9075	17.236
8.8922	16.753
8.8770	16.607
8.8618	16.869
8.8467	17.600
8.8316	18.851
8.8166	20.667
8.8016	23.021
8.7867	25.837
8.7718	29.022
8.7570	32.402
8.7422	35.799
8.7275	39.108
8.7129	42.229
8.6982	45.097
8.6837	47.752
8.6692	50.201
8.6547	52.478
8.6403	54.578
8.6259	56.520
8.6116	58.313
8.5973	59.944
8.5830	61.436
8.5688	62.804
8.5547	64.094
8.5406	65.286
8.5266	66.405
8.5126	67.485
8.4986	68.482
8.4847	69.405
8.4708	70.279
8.4570	71.134
8.4432	71.911
8.4295	72.645
8.4158	73.405
8.4022	74.145
8.3886	74.800
8.3750	75.505
8.3615	76.233
8.3481	76.952
8.3347	77.692
8.3213	78.462
8.3079	79.135
8.2946	79.814
8.2814	80.484
8.2682	81.086
8.2550	81.635
8.2419	82.191
8.2288	82.724
8.2158	83.193
8.2028	83.669
8.1898	84.184
8.1769	84.669
8.1640	85.080
8.1512	85.503
8.1384	85.926
8.1256	86.279
8.1129	86.645
8.1002	87.018
8.0876	87.344
8.0750	87.648
8.0624	87.955
8.0499	88.213
8.0374	88.467
8.0250	88.725
8.0126	88.952
8.0002	89.188
7.9879	89.426
7.9756	89.636
7.9634	89.816
7.9512	90.027
7.9390	90.266
7.9268	90.445
7.9147	90.632
7.9027	90.859
7.8906	91.056
7.8786	91.249
7.8667	91.473
7.8548	91.670
7.8429	91.800
7.8310	91.947
7.8192	92.126
7.8075	92.269
7.7957	92.374
7.7840	92.498
7.7723	92.582
7.7607	92.697
7.7491	92.817
7.7375	92.916
7.7260	93.042
7.7145	93.177
7.7031	93.310
7.6916	93.409
7.6802	93.518
7.6689	93.652
7.6575	93.786
7.6462	93.904
7.6350	94.048
7.6238	94.202
7.6126	94.318
7.6014	94.472
7.5903	94.659
7.5792	94.766
7.5681	94.835
7.5571	94.922
7.5461	94.997
7.5351	95.046
7.5242	95.135
7.5133	95.263
7.5024	95.352
7.4916	95.438
7.4807	95.543
7.4700	95.601
7.4592	95.633
7.4485	95.683
7.4378	95.715
7.4272	95.762
7.4165	95.835
7.4059	95.900
7.3954	95.960
7.3848	96.051
7.3743	96.111
7.3639	96.156
7.3534	96.225
7.3430	96.290
7.3326	96.331
7.3223	96.411
7.3119	96.495
7.3016	96.569
7.2914	96.652
7.2811	96.721
7.2709	96.749
7.2607	96.724
7.2506	96.730
7.2404	96.776
7.2303	96.833
7.2203	96.869
7.2102	96.849
7.2002	96.824
7.1902	96.829
7.1803	96.875
7.1703	96.891
7.1604	96.856
7.1506	96.876
7.1407	96.916
7.1309	96.903
7.1211	96.933
7.1113	97.011
7.1016	97.038
7.0919	97.057
7.0822	97.136
7.0725	97.208
7.0629	97.244
7.0533	97.314
7.0437	97.376
7.0341	97.392
7.0246	97.429
7.0151	97.508
7.0056	97.574
6.9962	97.605
6.9867	97.644
6.9773	97.632
6.9679	97.634
6.9586	97.655
6.9493	97.656
6.9400	97.663
6.9307	97.693
6.9214	97.713
6.9122	97.715
6.9030	97.736
6.8938	97.771
6.8847	97.786
6.8755	97.762
6.8664	97.761
6.8573	97.811
6.8483	97.845
6.8393	97.889
6.8302	97.926
6.8213	97.925
6.8123	97.915
6.8034	97.909
6.7944	97.876
6.7855	97.837
6.7767	97.851
6.7678	97.850
6.7590	97.865
6.7502	97.898
6.7414	97.911
6.7327	97.894
6.7239	97.862
6.7152	97.859
6.7065	97.900
6.6979	97.947
6.6892	98.009
6.6806	98.070
6.6720	98.085
6.6634	98.102
6.6549	98.130
6.6464	98.143
6.6378	98.162
6.6294	98.207
6.6209	98.246
6.6124	98.302
6.6040	98.307
6.5956	98.246
6.5872	98.188
6.5789	98.132
6.5705	98.067
6.5622	98.007
6.5539	97.988
6.5456	97.990
6.5374	98.007
6.5292	97.995
6.5209	97.939
6.5128	97.878
6.5046	97.784
6.4964	97.733
6.4883	97.697
6.4802	97.710
6.4721	97.719
6.4640	97.716
6.4560	97.722
6.4480	97.674
6.4399	97.616
6.4320	97.568
6.4240	97.508
6.4160	97.481
6.4081	97.496
6.4002	97.519
6.3923	97.533
6.3844	97.497
6.3766	97.458
6.3687	97.413
6.3609	97.342
6.3531	97.257
6.3454	97.197
6.3376	97.138
6.3299	97.075
6.3221	97.017
6.3144	96.981
6.3068	96.947
6.2991	96.877
6.2914	96.783
6.2838	96.695
6.2762	96.608
6.2686	96.521
6.2611	96.417
6.2535	96.287
6.2460	96.170
6.2385	96.033
6.2310	95.883
6.2235	95.715
6.2160	95.505
6.2086	95.286
6.2011	95.054
6.1937	94.747
6.1863	94.446
6.1790	94.230
6.1716	94.092
6.1643	93.993
6.1570	93.937
6.1496	93.909
6.1424	93.882
6.1351	93.813
6.1278	93.774
6.1206	93.751
6.1134	93.712
6.1062	93.720
6.0990	93.761
6.0918	93.798
6.0847	93.863
6.0776	93.983
6.0704	94.083
6.0633	94.178
6.0563	94.336
6.0492	94.554
6.0421	94.786
6.0351	95.027
6.0281	95.306
6.0211	95.515
6.0141	95.669
6.0071	95.799
6.0002	95.914
5.9932	96.027
5.9863	96.204
5.9794	96.340
5.9725	96.465
5.9657	96.591
5.9588	96.676
5.9520	96.738
5.9451	96.831
5.9383	96.910
5.9315	96.965
5.9247	97.063
5.9180	97.186
5.9112	97.266
5.9045	97.309
5.8978	97.375
5.8911	97.446
5.8844	97.498
5.8777	97.560
5.8711	97.628
5.8644	97.728
5.8578	97.793
5.8512	97.824
5.8446	97.824
5.8380	97.816
5.8314	97.816
5.8249	97.835
5.8184	97.849
5.8118	97.921
5.8053	97.986
5.7988	98.012
5.7923	98.014
5.7859	98.012
5.7794	97.981
5.7730	97.934
5.7666	97.949
5.7602	97.966
5.7538	97.994
5.7474	98.045
5.7410	98.063
5.7347	98.087
5.7283	98.079
5.7220	98.062
5.7157	98.032
5.7094	98.002
5.7031	98.004
5.6969	97.994
5.6906	97.949
5.6844	97.936
5.6782	97.938
5.6719	97.914
5.6657	97.880
5.6596	97.866
5.6534	97.853
5.6472	97.879
5.6411	97.903
5.6349	97.922
5.6288	97.937
5.6227	97.951
5.6166	97.967
5.6106	97.973
5.6045	97.981
5.5984	97.987
5.5924	97.985
5.5864	98.000
5.5804	98.025
5.5744	98.035
5.5684	98.060
5.5624	98.090
5.5564	98.114
5.5505	98.146
5.5445	98.169
5.5386	98.184
5.5327	98.223
5.5268	98.253
5.5209	98.273
5.5151	98.295
5.5092	98.299
5.5033	98.351
5.4975	98.377
5.4917	98.372
5.4859	98.423
5.4801	98.446
5.4743	98.465
5.4685	98.497
5.4628	98.537
5.4570	98.562
5.4513	98.593
5.4455	98.626
5.4398	98.646
5.4341	98.648
5.4284	98.646
5.4228	98.659
5.4171	98.650
5.4114	98.646
5.4058	98.651
5.4002	98.647
5.3945	98.615
5.3889	98.624
5.3833	98.637
5.3778	98.620
5.3722	98.600
5.3666	98.561
5.3611	98.542
5.3555	98.571
5.3500	98.587
5.3445	98.556
5.3390	98.544
5.3335	98.571
5.3280	98.565
5.3225	98.575
5.3171	98.584
5.3116	98.591
5.3062	98.586
5.3008	98.579
5.2954	98.568
5.2900	98.551
5.2846	98.528
5.2792	98.571
5.2738	98.577
5.2684	98.561
5.2631	98.563
5.2578	98.540
5.2524	98.507
5.2471	98.489
5.2418	98.486
5.2365	98.462
5.2312	98.439
5.2260	98.417
5.2207	98.410
5.2154	98.387
5.2102	98.376
5.2050	98.399
5.1998	98.374
5.1945	98.363
5.1893	98.363
5.1842	98.348
5.1790	98.360
5.1738	98.382
5.1686	98.408
5.1635	98.382
5.1584	98.396
5.1532	98.408
5.1481	98.411
5.1430	98.420
5.1379	98.432
5.1328	98.447
5.1277	98.463
5.1227	98.480
5.1176	98.478
5.1126	98.433
5.1075	98.418
5.1025	98.406
5.0975	98.367
5.0925	98.355
5.0875	98.341
5.0825	98.360
5.0775	98.361
5.0726	98.359
5.0676	98.317
5.0627	98.312
5.0577	98.292
5.0528	98.252
5.0479	98.227
5.0430	98.227
5.0380	98.213
5.0332	98.215
5.0283	98.210
5.0234	98.212
5.0185	98.194
5.0137	98.169
5.0088	98.152
5.0040	98.130
4.9992	98.088
4.9944	98.051
4.9896	98.002
4.9848	97.939
4.9800	97.884
4.9752	97.859
4.9704	97.841
4.9657	97.804
4.9609	97.757
4.9562	97.692
4.9514	97.617
4.9467	97.545
4.9420	97.469
4.9373	97.381
4.9326	97.334
4.9279	97.334
4.9232	97.321
4.9186	97.301
4.9139	97.286
4.9092	97.257
4.9046	97.232
4.9000	97.234
4.8953	97.228
4.8907	97.221
4.8861	97.235
4.8815	97.223
4.8769	97.200
4.8723	97.184
4.8678	97.147
4.8632	97.098
4.8586	97.078
4.8541	97.076
4.8495	97.091
4.8450	97.133
4.8405	97.210
4.8360	97.243
4.8315	97.305
4.8270	97.361
4.8225	97.422
4.8180	97.447
4.8135	97.492
4.8090	97.550
4.8046	97.574
4.8001	97.612
4.7957	97.645
4.7913	97.663
4.7868	97.683
4.7824	97.712
4.7780	97.737
4.7736	97.731
4.7692	97.746
4.7648	97.780
4.7605	97.809
4.7561	97.819
4.7517	97.860
4.7474	97.907
4.7431	97.927
4.7387	97.954
4.7344	97.994
4.7301	97.995
4.7258	97.978
4.7215	97.995
4.7172	97.991
4.7129	97.957
4.7086	97.948
4.7043	97.959
4.7000	97.942
4.6958	97.950
4.6915	97.938
4.6873	97.899
4.6831	97.890
4.6788	97.892
4.6746	97.904
4.6704	97.900
4.6662	97.914
4.6620	97.899
4.6578	97.892
4.6536	97.891
4.6495	97.863
4.6453	97.823
4.6411	97.815
4.6370	97.851
4.6328	97.855
4.6287	97.845
4.6246	97.866
4.6205	97.864
4.6163	97.819
4.6122	97.805
4.6081	97.814
4.6040	97.801
4.6000	97.799
4.5959	97.805
4.5918	97.793
4.5877	97.785
4.5837	97.799
4.5796	97.816
4.5756	97.801
4.5716	97.822
4.5675	97.815
4.5635	97.767
4.5595	97.735
4.5555	97.742
4.5515	97.757
4.5475	97.781
4.5435	97.798
4.5395	97.828
4.5356	97.808
4.5316	97.808
4.5276	97.780
4.5237	97.746
4.5197	97.751
4.5158	97.740
4.5119	97.710
4.5080	97.727
4.5040	97.770
4.5001	97.761
4.4962	97.735
4.4923	97.705
4.4884	97.707
4.4846	97.729
4.4807	97.729
4.4768	97.711
4.4730	97.715
4.4691	97.730
4.4652	97.712
4.4614	97.680
4.4576	97.647
4.4537	97.619
4.4499	97.565
4.4461	97.561
4.4423	97.588
4.4385	97.604
4.4347	97.593
4.4309	97.590
4.4271	97.600
4.4233	97.584
4.4196	97.590
4.4158	97.580
4.4120	97.576
4.4083	97.576
4.4045	97.561
4.4008	97.537
4.3971	97.512
4.3934	97.502
4.3896	97.475
4.3859	97.463
4.3822	97.495
4.3785	97.515
4.3748	97.500
4.3711	97.486
4.3674	97.475
4.3638	97.453
4.3601	97.416
4.3564	97.402
4.3528	97.400
4.3491	97.378
4.3455	97.357
4.3418	97.343
4.3382	97.311
4.3346	97.302
4.3310	97.309
4.3273	97.313
4.3237	97.323
4.3201	97.318
4.3165	97.268
4.3129	97.247
4.3094	97.239
4.3058	97.202
4.3022	97.167
4.2986	97.145
4.2951	97.173
4.2915	97.173
4.2880	97.166
4.2844	97.168
4.2809	97.151
4.2774	97.110
4.2738	97.081
4.2703	97.054
4.2668	97.028
4.2633	97.037
4.2598	97.060
4.2563	97.043
4.2528	97.036
4.2493	96.998
4.2458	96.989
4.2424	96.976
4.2389	96.997
4.2354	97.006
4.2320	96.951
4.2285	96.938
4.2251	96.942
4.2216	96.921
4.2182	96.879
4.2148	96.876
4.2113	96.852
4.2079	96.845
4.2045	96.846
4.2011	96.850
4.1977	96.817
4.1943	96.799
4.1909	96.757
4.1875	96.710
4.1841	96.695
4.1808	96.658
4.1774	96.668
4.1740	96.691
4.1707	96.731
4.1673	96.757
4.1640	96.751
4.1606	96.756
4.1573	96.690
4.1540	96.639
4.1506	96.638
4.1473	96.609
4.1440	96.576
4.1407	96.575
4.1374	96.604
4.1341	96.600
4.1308	96.578
4.1275	96.561
4.1242	96.551
4.1209	96.530
4.1177	96.539
4.1144	96.529
4.1111	96.529
4.1079	96.559
4.1046	96.573
4.1014	96.526
4.0981	96.485
4.0949	96.437
4.0917	96.409
4.0884	96.374
4.0852	96.366
4.0820	96.360
4.0788	96.371
4.0756	96.364
4.0724	96.338
4.0692	96.315
4.0660	96.301
4.0628	96.280
4.0596	96.280
4.0565	96.264
4.0533	96.256
4.0501	96.204
4.0470	96.188
4.0438	96.198
4.0406	96.200
4.0375	96.200
4.0344	96.181
4.0312	96.178
4.0281	96.122
4.0250	96.076
4.0218	96.054
4.0187	95.997
4.0156	95.991
4.0125	96.038
4.0094	96.050
4.0063	96.024
4.0032	96.020
4.0001	96.009
3.9970	95.949
3.9940	95.895
3.9909	95.867
3.9878	95.830
3.9847	95.825
3.9817	95.845
3.9786	95.830
3.9756	95.791
3.9725	95.778
3.9695	95.757
3.9665	95.750
3.9634	95.744
3.9604	95.745
3.9574	95.721
3.9544	95.716
3.9513	95.692
3.9483	95.658
3.9453	95.656
3.9423	95.630
3.9393	95.594
3.9363	95.594
3.9333	95.594
3.9304	95.626
3.9274	95.667
3.9244	95.676
3.9214	95.656
3.9185	95.630
3.9155	95.593
3.9126	95.529
3.9096	95.483
3.9067	95.491
3.9037	95.492
3.9008	95.470
3.8979	95.412
3.8949	95.369
3.8920	95.339
3.8891	95.307
3.8862	95.299
3.8833	95.295
3.8804	95.248
3.8775	95.219
3.8746	95.223
3.8717	95.180
3.8688	95.136
3.8659	95.118
3.8630	95.119
3.8601	95.095
3.8573	95.102
3.8544	95.102
3.8515	95.080
3.8487	95.055
3.8458	95.022
3.8430	95.002
3.8401	94.969
3.8373	94.934
3.8344	94.907
3.8316	94.901
3.8288	94.910
3.8259	94.925
3.8231	94.912
3.8203	94.885
3.8175	94.844
3.8147	94.797
3.8119	94.793
3.8091	94.775
3.8063	94.746
3.8035	94.735
3.8007	94.711
3.7979	94.669
3.7951	94.651
3.7924	94.641
3.7896	94.605
3.7868	94.572
3.7841	94.543
3.7813	94.497
3.7785	94.449
3.7758	94.423
3.7730	94.412
3.7703	94.410
3.7676	94.396
3.7648	94.366
3.7621	94.331
3.7594	94.269
3.7566	94.215
3.7539	94.174
3.7512	94.141
3.7485	94.148
3.7458	94.139
3.7431	94.160
3.7404	94.147
3.7377	94.135
3.7350	94.138
3.7323	94.138
3.7296	94.114
3.7269	94.092
3.7242	94.050
3.7216	94.023
3.7189	93.977
3.7162	93.940
3.7136	93.912
3.7109	93.898
3.7083	93.867
3.7056	93.862
3.7030	93.864
3.7003	93.828
3.6977	93.821
3.6950	93.826
3.6924	93.787
3.6898	93.746
3.6872	93.700
3.6845	93.638
3.6819	93.596
3.6793	93.537
3.6767	93.513
3.6741	93.474
3.6715	93.428
3.6689	93.405
3.6663	93.373
3.6637	93.361
3.6611	93.342
3.6585	93.340
3.6560	93.304
3.6534	93.267
3.6508	93.266
3.6482	93.246
3.6457	93.219
3.6431	93.229
3.6406	93.242
3.6380	93.230
3.6355	93.207
3.6329	93.145
3.6304	93.077
3.6278	93.017
3.6253	92.975
3.6227	92.929
3.6202	92.912
3.6177	92.883
3.6152	92.825
3.6127	92.831
3.6101	92.797
3.6076	92.758
3.6051	92.709
3.6026	92.641
3.6001	92.606
3.5976	92.593
3.5951	92.590
3.5926	92.565
3.5901	92.580
3.5876	92.611
3.5852	92.623
3.5827	92.604
3.5802	92.583
3.5777	92.617
3.5753	92.588
3.5728	92.539
3.5704	92.502
3.5679	92.446
3.5654	92.379
3.5630	92.313
3.5605	92.317
3.5581	92.285
3.5557	92.230
3.5532	92.208
3.5508	92.166
3.5484	92.101
3.5459	92.066
3.5435	92.073
3.5411	92.092
3.5387	92.055
3.5363	92.037
3.5338	92.031
3.5314	92.040
3.5290	92.035
3.5266	92.032
3.5242	92.028
3.5218	92.035
3.5195	92.034
3.5171	91.995
3.5147	91.941
3.5123	91.913
3.5099	91.916
3.5075	91.875
3.5052	91.861
3.5028	91.824
3.5004	91.766
3.4981	91.741
3.4957	91.725
3.4934	91.731
3.4910	91.695
3.4887	91.674
3.4863	91.650
3.4840	91.614
3.4816	91.534
3.4793	91.469
3.4770	91.402
3.4746	91.373
3.4723	91.332
3.4700	91.357
3.4677	91.361
3.4653	91.358
3.4630	91.330
3.4607	91.291
3.4584	91.264
3.4561	91.250
3.4538	91.207
3.4515	91.156
3.4492	91.153
3.4469	91.102
3.4446	91.054
3.4423	91.041
3.4400	91.013
3.4378	90.979
3.4355	90.947
3.4332	90.939
3.4309	90.914
3.4287	90.884
3.4264	90.875
3.4241	90.834
3.4219	90.763
3.4196	90.713
3.4174	90.656
3.4151	90.566
3.4129	90.486
3.4106	90.420
3.4084	90.354
3.4061	90.274
3.4039	90.226
3.4017	90.181
3.3994	90.131
3.3972	90.061
3.3950	89.986
3.3928	89.888
3.3906	89.826
3.3883	89.740
3.3861	89.660
3.3839	89.612
3.3817	89.568
3.3795	89.496
3.3773	89.424
3.3751	89.410
3.3729	89.356
3.3707	89.301
3.3685	89.250
3.3663	89.201
3.3641	89.154
3.3620	89.080
3.3598	88.967
3.3576	88.871
3.3554	88.804
3.3533	88.764
3.3511	88.663
3.3489	88.613
3.3468	88.564
3.3446	88.472
3.3425	88.424
3.3403	88.407
3.3382	88.406
3.3360	88.366
3.3339	88.318
3.3317	88.277
3.3296	88.216
3.3274	88.144
3.3253	88.064
3.3232	87.984
3.3210	87.884
3.3189	87.843
3.3168	87.789
3.3147	87.699
3.3126	87.662
3.3104	87.660
3.3083	87.633
3.3062	87.569
3.3041	87.500
3.3020	87.429
3.2999	87.361
3.2978	87.328
3.2957	87.284
3.2936	87.283
3.2915	87.256
3.2894	87.178
3.2874	87.117
3.2853	87.004
3.2832	86.936
3.2811	86.912
3.2790	86.823
3.2770	86.754
3.2749	86.724
3.2728	86.686
3.2708	86.660
3.2687	86.575
3.2666	86.498
3.2646	86.401
3.2625	86.297
3.2605	86.248
3.2584	86.174
3.2564	86.088
3.2543	86.065
3.2523	86.035
3.2503	85.959
3.2482	85.873
3.2462	85.802
3.2442	85.766
3.2421	85.725
3.2401	85.637
3.2381	85.547
3.2361	85.500
3.2340	85.431
3.2320	85.332
3.2300	85.244
3.2280	85.164
3.2260	85.099
3.2240	85.043
3.2220	84.963
3.2200	84.875
3.2180	84.819
3.2160	84.727
3.2140	84.605
3.2120	84.471
3.2100	84.400
3.2080	84.299
3.2060	84.236
3.2040	84.135
3.2021	84.033
3.2001	83.931
3.1981	83.795
3.1961	83.703
3.1942	83.614
3.1922	83.588
3.1902	83.529
3.1883	83.456
3.1863	83.374
3.1844	83.303
3.1824	83.219
3.1805	83.129
3.1785	83.049
3.1766	82.960
3.1746	82.834
3.1727	82.749
3.1707	82.707
3.1688	82.594
3.1669	82.478
3.1649	82.341
3.1630	82.227
3.1611	82.110
3.1591	82.015
3.1572	81.937
3.1553	81.779
3.1534	81.676
3.1515	81.549
3.1495	81.382
3.1476	81.231
3.1457	81.091
3.1438	80.962
3.1419	80.807
3.1400	80.650
3.1381	80.452
3.1362	80.260
3.1343	80.103
3.1324	79.954
3.1305	79.843
3.1286	79.703
3.1268	79.542
3.1249	79.403
3.1230	79.212
3.1211	79.016
3.1192	78.859
3.1174	78.658
3.1155	78.492
3.1136	78.362
3.1117	78.253
3.1099	78.150
3.1080	77.979
3.1061	77.791
3.1043	77.586
3.1024	77.378
3.1006	77.177
3.0987	77.029
3.0969	76.910
3.0950	76.789
3.0932	76.646
3.0913	76.469
3.0895	76.251
3.0876	76.002
3.0858	75.814
3.0840	75.622
3.0821	75.441
3.0803	75.322
3.0785	75.228
3.0766	75.064
3.0748	74.879
3.0730	74.696
3.0712	74.528
3.0694	74.317
3.0675	74.119
3.0657	73.963
3.0639	73.813
3.0621	73.619
3.0603	73.466
3.0585	73.294
3.0567	73.085
3.0549	72.816
3.0531	72.584
3.0513	72.369
3.0495	72.102
3.0477	71.857
3.0459	71.511
3.0441	71.126
3.0423	70.746
3.0406	70.284
3.0388	69.761
3.0370	69.273
3.0352	68.720
3.0334	68.154
3.0317	67.567
3.0299	66.970
3.0281	66.238
3.0264	65.398
3.0246	64.544
3.0228	63.638
3.0211	62.688
3.0193	61.678
3.0176	60.603
3.0158	59.474
3.0140	58.367
3.0123	57.238
3.0105	56.052
3.0088	54.880
3.0070	53.816
3.0053	52.790
3.0036	51.824
3.0018	50.958
3.0001	50.168
2.9984	49.447
2.9966	48.856
2.9949	48.344
2.9932	47.938
2.9914	47.619
2.9897	47.329
2.9880	47.088
2.9863	46.928
2.9845	46.898
2.9828	46.989
2.9811	47.126
2.9794	47.367
2.9777	47.742
2.9760	48.191
2.9743	48.700
2.9726	49.341
2.9709	50.087
2.9692	50.927
2.9675	51.857
2.9658	52.813
2.9641	53.824
2.9624	54.947
2.9607	56.024
2.9590	57.111
2.9573	58.181
2.9556	59.287
2.9539	60.314
2.9523	61.306
2.9506	62.250
2.9489	63.221
2.9472	64.078
2.9455	64.842
2.9439	65.558
2.9422	66.213
2.9405	66.816
2.9389	67.433
2.9372	67.961
2.9355	68.388
2.9339	68.814
2.9322	69.174
2.9306	69.437
2.9289	69.650
2.9272	69.860
2.9256	70.040
2.9239	70.144
2.9223	70.250
2.9207	70.348
2.9190	70.435
2.9174	70.496
2.9157	70.489
2.9141	70.513
2.9124	70.599
2.9108	70.644
2.9092	70.735
2.9075	70.820
2.9059	70.935
2.9043	71.051
2.9027	71.148
2.9010	71.279
2.8994	71.385
2.8978	71.559
2.8962	71.743
2.8946	71.993
2.8929	72.242
2.8913	72.480
2.8897	72.738
2.8881	72.984
2.8865	73.188
2.8849	73.446
2.8833	73.631
2.8817	73.804
2.8801	74.032
2.8785	74.208
2.8769	74.415
2.8753	74.641
2.8737	74.825
2.8721	74.958
2.8705	75.106
2.8689	75.282
2.8673	75.446
2.8658	75.627
2.8642	75.818
2.8626	76.039
2.8610	76.242
2.8594	76.422
2.8579	76.614
2.8563	76.740
2.8547	76.848
2.8531	76.938
2.8516	77.058
2.8500	77.122
2.8484	77.227
2.8469	77.394
2.8453	77.529
2.8437	77.676
2.8422	77.789
2.8406	77.926
2.8391	78.048
2.8375	78.098
2.8360	78.133
2.8344	78.188
2.8329	78.278
2.8313	78.332
2.8298	78.330
2.8282	78.412
2.8267	78.463
2.8252	78.510
2.8236	78.583
2.8221	78.774
2.8205	78.938
2.8190	79.169
2.8175	79.356
2.8159	79.482
2.8144	79.609
2.8129	79.731
2.8114	79.759
2.8098	79.828
2.8083	79.953
2.8068	80.024
2.8053	80.110
2.8038	80.242
2.8022	80.395
2.8007	80.602
2.7992	80.743
2.7977	80.933
2.7962	81.125
2.7947	81.270
2.7932	81.445
2.7917	81.588
2.7902	81.711
2.7887	81.911
2.7872	82.129
2.7857	82.334
2.7842	82.474
2.7827	82.597
2.7812	82.717
2.7797	82.867
2.7782	82.980
2.7767	83.051
2.7752	83.200
2.7738	83.414
2.7723	83.605
2.7708	83.728
2.7693	83.853
2.7678	84.004
2.7664	84.160
2.7649	84.360
2.7634	84.531
2.7619	84.668
2.7605	84.863
2.7590	85.035
2.7575	85.184
2.7561	85.328
2.7546	85.463
2.7531	85.590
2.7517	85.782
2.7502	85.977
2.7488	86.088
2.7473	86.192
2.7458	86.298
2.7444	86.334
2.7429	86.420
2.7415	86.467
2.7400	86.598
2.7386	86.685
2.7371	86.828
2.7357	86.902
2.7343	87.016
2.7328	87.137
2.7314	87.137
2.7299	87.137
2.7285	87.145
2.7271	87.176
2.7256	87.203
2.7242	87.251
2.7228	87.295
2.7213	87.302
2.7199	87.356
2.7185	87.306
2.7171	87.270
2.7156	87.223
2.7142	87.166
2.7128	87.145
2.7114	87.122
2.7100	87.192
2.7085	87.328
2.7071	87.399
2.7057	87.453
2.7043	87.449
2.7029	87.473
2.7015	87.429
2.7001	87.406
2.6987	87.411
2.6973	87.442
2.6959	87.407
2.6945	87.394
2.6931	87.422
2.6917	87.454
2.6903	87.477
2.6889	87.450
2.6875	87.398
2.6861	87.386
2.6847	87.380
2.6833	87.406
2.6819	87.426
2.6805	87.390
2.6791	87.441
2.6778	87.434
2.6764	87.371
2.6750	87.386
2.6736	87.343
2.6722	87.368
2.6709	87.343
2.6695	87.337
2.6681	87.309
2.6667	87.270
2.6654	87.262
2.6640	87.278
2.6626	87.258
2.6613	87.183
2.6599	87.097
2.6585	87.125
2.6572	87.097
2.6558	87.009
2.6545	86.988
2.6531	86.962
2.6517	86.969
2.6504	86.997
2.6490	86.949
2.6477	86.945
2.6463	86.876
2.6450	86.847
2.6436	86.759
2.6423	86.680
2.6409	86.708
2.6396	86.711
2.6382	86.742
2.6369	86.711
2.6356	86.680
2.6342	86.704
2.6329	86.684
2.6315	86.649
2.6302	86.676
2.6289	86.668
2.6275	86.618
2.6262	86.566
2.6249	86.558
2.6236	86.533
2.6222	86.437
2.6209	86.317
2.6196	86.239
2.6183	86.239
2.6169	86.316
2.6156	86.312
2.6143	86.266
2.6130	86.305
2.6117	86.274
2.6103	86.247
2.6090	86.208
2.6077	86.110
2.6064	86.048
2.6051	86.105
2.6038	86.078
2.6025	86.048
2.6012	86.008
2.5999	85.919
2.5986	85.879
2.5973	85.860
2.5960	85.812
2.5947	85.808
2.5934	85.842
2.5921	85.896
2.5908	85.941
2.5895	85.918
2.5882	85.986
2.5869	85.976
2.5856	85.941
2.5843	85.922
2.5830	85.904
2.5817	85.863
2.5805	85.830
2.5792	85.722
2.5779	85.638
2.5766	85.609
2.5753	85.607
2.5741	85.539
2.5728	85.523
2.5715	85.593
2.5702	85.590
2.5690	85.521
2.5677	85.480
2.5664	85.312
2.5651	85.179
2.5639	85.127
2.5626	85.246
2.5613	85.318
2.5601	85.410
2.5588	85.511
2.5575	85.433
2.5563	85.402
2.5550	85.408
2.5538	85.404
2.5525	85.306
2.5513	85.312
2.5500	85.301
2.5487	85.258
2.5475	85.160
2.5462	85.101
2.5450	85.076
2.5437	85.031
2.5425	85.064
2.5413	85.136
2.5400	85.150
2.5388	85.121
2.5375	85.035
2.5363	84.902
2.5350	84.832
2.5338	84.777
2.5326	84.791
2.5313	84.838
2.5301	84.840
2.5289	84.836
2.5276	84.847
2.5264	84.867
2.5252	84.730
2.5239	84.642
2.5227	84.572
2.5215	84.463
2.5202	84.517
2.5190	84.601
2.5178	84.580
2.5166	84.572
2.5154	84.590
2.5141	84.593
2.5129	84.537
2.5117	84.580
2.5105	84.625
2.5093	84.605
2.5081	84.582
2.5068	84.564
2.5056	84.543
2.5044	84.490
2.5032	84.426
2.5020	84.363
2.5008	84.289
2.4996	84.244
2.4984	84.222
2.4972	84.261
2.4960	84.215
2.4948	84.252
2.4936	84.314
2.4924	84.213
2.4912	84.230
2.4900	84.250
2.4888	84.246
2.4876	84.179
2.4864	84.144
2.4852	84.179
2.4840	84.136
2.4828	84.031
2.4816	84.031
2.4805	83.996
2.4793	83.986
2.4781	84.051
2.4769	84.039
2.4757	83.916
2.4745	83.945
2.4734	83.933
2.4722	83.871
2.4710	83.824
2.4698	83.783
2.4686	83.744
2.4675	83.674
2.4663	83.679
2.4651	83.750
2.4640	83.664
2.4628	83.586
2.4616	83.611
2.4604	83.515
2.4593	83.597
2.4581	83.625
2.4569	83.586
2.4558	83.566
2.4546	83.525
2.4535	83.461
2.4523	83.463
2.4511	83.566
2.4500	83.636
2.4488	83.613
2.4477	83.539
2.4465	83.531
2.4454	83.383
2.4442	83.218
2.4431	83.246
2.4419	83.267
2.4408	83.220
2.4396	83.199
2.4385	83.181
2.4373	83.213
2.4362	83.267
2.4350	83.230
2.4339	83.156
2.4327	83.093
2.4316	83.008
2.4305	83.054
2.4293	83.004
2.4282	82.994
2.4270	82.908
2.4259	82.918
2.4248	83.051
2.4236	83.121
2.4225	83.090
2.4214	83.095
2.4202	83.093
2.4191	83.125
2.4180	83.144
2.4169	83.004
2.4157	82.918
2.4146	82.965
2.4135	82.929
2.4124	82.845
2.4112	82.861
2.4101	82.996
2.4090	83.035
2.4079	82.970
2.4068	82.945
2.4056	82.877
2.4045	82.783
2.4034	82.644
2.4023	82.547
2.4012	82.500
2.4001	82.408
2.3990	82.345
2.3979	82.359
2.3967	82.353
2.3956	82.355
2.3945	82.316
2.3934	82.260
2.3923	82.281
2.3912	82.297
2.3901	82.273
2.3890	82.285
2.3879	82.324
2.3868	82.250
2.3857	82.152
2.3846	82.090
2.3835	82.095
2.3824	82.103
2.3813	82.125
2.3802	82.211
2.3791	82.054
2.3781	82.031
2.3770	82.058
2.3759	81.963
2.3748	81.914
2.3737	81.963
2.3726	81.980
2.3715	81.797
2.3704	81.855
2.3694	81.853
2.3683	81.713
2.3672	81.629
2.3661	81.781
2.3650	81.812
2.3640	81.687
2.3629	81.679
2.3618	81.736
2.3607	81.658
2.3597	81.517
2.3586	81.533
2.3575	81.531
2.3564	81.486
2.3554	81.533
2.3543	81.562
2.3532	81.535
2.3522	81.572
2.3511	81.572
2.3500	81.527
2.3490	81.441
2.3479	81.414
2.3468	81.385
2.3458	81.361
2.3447	81.347
2.3436	81.336
2.3426	81.320
2.3415	81.379
2.3405	81.314
2.3394	81.316
2.3384	81.301
2.3373	81.187
2.3363	81.129
2.3352	81.049
2.3342	81.070
2.3331	81.064
2.3321	81.000
2.3310	81.000
2.3300	80.906
2.3289	80.851
2.3279	80.845
2.3268	80.994
2.3258	81.023
2.3247	81.017
2.3237	81.023
2.3226	81.043
2.3216	81.043
2.3206	80.953
2.3195	80.922
2.3185	80.924
2.3175	80.918
2.3164	81.010
2.3154	81.078
2.3144	80.961
2.3133	80.945
2.3123	80.890
2.3113	80.851
2.3102	80.812
2.3092	80.744
2.3082	80.718
2.3071	80.695
2.3061	80.689
2.3051	80.828
2.3041	80.869
2.3030	80.906
2.3020	80.816
2.3010	80.879
2.3000	80.890
2.2990	80.851
2.2979	80.814
2.2969	80.838
2.2959	80.804
2.2949	80.689
2.2939	80.650
2.2929	80.648
2.2918	80.539
2.2908	80.422
2.2898	80.429
2.2888	80.408
2.2878	80.461
2.2868	80.525
2.2858	80.672
2.2848	80.603
2.2838	80.574
2.2828	80.595
2.2818	80.492
2.2808	80.353
2.2798	80.338
2.2787	80.383
2.2777	80.197
2.2767	80.252
2.2757	80.328
2.2747	80.187
2.2738	80.254
2.2728	80.429
2.2718	80.400
2.2708	80.369
2.2698	80.314
2.2688	80.203
2.2678	80.220
2.2668	80.158
2.2658	80.111
2.2648	80.056
2.2638	80.070
2.2628	80.019
2.2618	79.961
2.2609	79.968
2.2599	80.010
2.2589	79.978
2.2579	80.078
2.2569	80.189
2.2559	80.150
2.2550	79.955
2.2540	79.767
2.2530	79.758
2.2520	79.728
2.2510	79.713
2.2501	79.695
2.2491	79.734
2.2481	79.875
2.2471	79.986
2.2462	80.025
2.2452	79.914
2.2442	79.937
2.2433	79.937
2.2423	79.728
2.2413	79.554
2.2403	79.463
2.2394	79.367
2.2384	79.322
2.2374	79.299
2.2365	79.371
2.2355	79.463
2.2345	79.578
2.2336	79.720
2.2326	79.918
2.2317	79.843
2.2307	79.765
2.2297	79.703
2.2288	79.595
2.2278	79.336
2.2269	79.220
2.2259	79.273
2.2250	79.275
2.2240	79.236
2.2231	79.095
2.2221	79.049
2.2211	79.047
2.2202	79.135
2.2192	79.119
2.2183	79.158
2.2173	79.220
2.2164	79.226
2.2155	79.312
2.2145	79.297
2.2136	79.211
2.2126	79.205
2.2117	79.250
2.2107	79.267
2.2098	79.228
2.2088	79.043
2.2079	78.992
2.2070	78.838
2.2060	78.695
2.2051	78.611
2.2041	78.619
2.2032	78.705
2.2023	78.742
2.2013	78.828
2.2004	78.994
2.1995	78.922
2.1985	78.970
2.1976	78.869
2.1967	78.875
2.1957	78.848
2.1948	78.723
2.1939	78.761
2.1930	78.648
2.1920	78.488
2.1911	78.598
2.1902	78.613
2.1893	78.621
2.1883	78.570
2.1874	78.676
2.1865	78.863
2.1856	78.804
2.1846	78.754
2.1837	78.621
2.1828	78.660
2.1819	78.558
2.1810	78.402
2.1800	78.394
2.1791	78.265
2.1782	78.179
2.1773	78.211
2.1764	78.223
2.1755	78.109
2.1746	78.246
2.1736	78.207
2.1727	78.203
2.1718	78.367
2.1709	78.531
2.1700	78.426
2.1691	78.285
2.1682	78.367
2.1673	78.492
2.1664	78.511
2.1655	78.508
2.1646	78.445
2.1637	78.386
2.1628	78.304
2.1619	78.238
2.1610	78.098
2.1601	78.105
2.1592	78.066
2.1583	78.218
2.1574	78.164
2.1565	78.211
2.1556	78.261
2.1547	78.144
2.1538	78.113
2.1529	77.976
2.1520	77.828
2.1511	77.844
2.1502	77.687
2.1493	77.598
2.1484	77.558
2.1475	77.496
2.1466	77.535
2.1458	77.508
2.1449	77.582
2.1440	77.570
2.1431	77.551
2.1422	77.590
2.1413	77.504
2.1404	77.519
2.1396	77.473
2.1387	77.554
2.1378	77.582
2.1369	77.429
2.1360	77.379
2.1352	77.422
2.1343	77.312
2.1334	77.515
2.1325	77.613
2.1316	77.473
2.1308	77.453
2.1299	77.539
2.1290	77.535
2.1281	77.422
2.1273	77.500
2.1264	77.496
2.1255	77.351
2.1247	77.363
2.1238	77.324
2.1229	77.234
2.1220	77.312
2.1212	77.281
2.1203	77.359
2.1194	77.375
2.1186	77.223
2.1177	77.219
2.1168	77.117
2.1160	77.125
2.1151	77.172
2.1143	76.992
2.1134	76.945
2.1125	77.062
2.1117	77.226
2.1108	77.054
2.1100	76.883
2.1091	76.929
2.1082	76.894
2.1074	76.867
2.1065	76.848
2.1057	76.769
2.1048	76.801
2.1040	76.875
2.1031	76.898
2.1023	76.867
2.1014	76.875
2.1005	76.894
2.0997	76.789
2.0988	76.812
2.0980	76.812
2.0971	76.625
2.0963	76.570
2.0955	76.679
2.0946	76.660
2.0938	76.531
2.0929	76.664
2.0921	76.777
2.0912	76.676
2.0904	76.535
2.0895	76.492
2.0887	76.625
2.0879	76.648
2.0870	76.832
2.0862	76.828
2.0853	76.695
2.0845	76.918
2.0837	76.754
2.0828	76.562
2.0820	76.554
2.0812	76.601
2.0803	76.539
2.0795	76.679
