Name: Norite
Type: Rocks
Class: Igneous
Subclass: Mafic
Particle Size: 0-75 micrometers
Sample No.: Norite.H2
Owner: JHU
Wavelength range: All
Origin: from Nye, Montana, via Ward's Scientific (Cat. No. W-40)

Description: Sample from which powder is derived is dark greenish-gray, 
medium-grained granular rock composed of olivine, pyroxene, plagioclase 
laths (< 3 mm), opaques, and a few bronze colored mica grains 
(phlogopite?).


Measurement: Directional (10 degree) hemispherical reflectance
First Column: X
Second Column: Y
X Units: Wavelength (micrometers)
Y Units: Reflectance (percent)
First X Value: 14.0112
Last X Value: 0.4000
Number of X Values: 2844
Additional information: norite2a.txt

14.011	2.9662
13.973	1.4925
13.936	2.6850
13.899	3.9319
13.861	1.9575
13.824	1.9613
13.788	2.3925
13.751	1.6594
13.715	0.6825
13.679	1.8309
13.643	2.6813
13.607	3.0496
13.571	2.7506
13.536	2.0981
13.500	2.4206
13.465	1.6097
13.430	1.5750
13.396	2.0250
13.361	2.2050
13.327	2.9681
13.293	2.6831
13.259	1.9143
13.225	2.0574
13.191	2.2857
13.158	2.1155
13.124	1.7850
13.091	2.2350
13.058	2.4211
13.026	2.1675
12.993	2.1862
12.960	2.6377
12.928	2.5847
12.896	2.4225
12.864	2.7614
12.832	3.1950
12.800	3.4212
12.769	3.4284
12.737	2.9184
12.706	2.6067
12.675	3.0140
12.644	3.3169
12.614	3.4999
12.583	3.6216
12.552	4.0050
12.522	3.9443
12.492	3.9940
12.462	4.1899
12.432	4.3218
12.402	4.4147
12.373	4.5893
12.343	4.8103
12.314	4.8564
12.285	4.9732
12.256	5.1080
12.227	4.9842
12.198	5.0553
12.169	4.9078
12.141	4.8115
12.113	4.7412
12.084	4.6995
12.056	4.8028
12.028	4.6671
12.000	4.4224
11.973	4.4259
11.945	4.5084
11.918	4.3810
11.890	4.1582
11.863	4.1231
11.836	4.1484
11.809	4.0402
11.782	3.8798
11.755	3.9787
11.729	4.0327
11.702	3.9366
11.676	3.8587
11.650	3.8855
11.624	3.8335
11.598	3.8016
11.572	4.0137
11.546	4.0950
11.520	4.0596
11.495	4.0418
11.469	3.8433
11.444	3.8091
11.419	3.8288
11.394	3.8623
11.369	3.9333
11.344	3.8405
11.319	3.7207
11.294	3.7392
11.270	3.6766
11.245	3.5798
11.221	3.4877
11.197	3.4111
11.173	3.3110
11.149	3.1917
11.125	3.0719
11.101	2.8816
11.077	2.8236
11.054	2.9013
11.030	2.9044
11.007	2.7633
10.983	2.7054
10.960	2.7429
10.937	2.8172
10.914	2.7618
10.891	2.7283
10.868	2.8005
10.846	2.8236
10.823	2.7649
10.800	2.7647
10.778	2.9421
10.755	2.9536
10.733	2.8542
10.711	2.8797
10.689	2.9878
10.667	2.9400
10.645	2.8655
10.623	2.8078
10.602	2.7933
10.580	2.8453
10.558	2.9221
10.537	2.8671
10.516	2.8020
10.494	2.8652
10.473	2.9189
10.452	2.8509
10.431	2.8533
10.410	2.8434
10.389	2.8860
10.368	2.9117
10.348	2.9498
10.327	2.9072
10.306	2.8956
10.286	2.9587
10.266	2.9724
10.245	2.9608
10.225	2.8521
10.205	2.6810
10.185	2.6894
10.165	2.7530
10.145	2.7368
10.125	2.7223
10.106	2.7007
10.086	2.6678
10.066	2.7579
10.047	2.8737
10.027	2.8282
10.008	2.6883
9.9887	2.6620
9.9695	2.6536
9.9504	2.6452
9.9313	2.6756
9.9123	2.7187
9.8934	2.7855
9.8746	2.8912
9.8558	2.7686
9.8371	2.7708
9.8185	2.8870
9.7999	2.9145
9.7814	2.8880
9.7630	2.8725
9.7447	2.9133
9.7264	2.9829
9.7082	2.9653
9.6900	2.9662
9.6719	3.1085
9.6539	3.1369
9.6360	3.0441
9.6181	2.9655
9.6003	2.9149
9.5825	3.0319
9.5649	3.0732
9.5472	3.0506
9.5297	3.0919
9.5122	3.1073
9.4948	3.0994
9.4774	3.0963
9.4601	3.0649
9.4429	3.0413
9.4257	2.9620
9.4086	2.9221
9.3916	3.0321
9.3746	3.1114
9.3577	3.0371
9.3408	2.9075
9.3240	2.8985
9.3073	2.9418
9.2906	2.8807
9.2740	2.8478
9.2574	2.9363
9.2409	2.9137
9.2245	2.8643
9.2081	2.9460
9.1918	2.8919
9.1755	2.8706
9.1593	2.9431
9.1431	2.9728
9.1270	2.8852
9.1110	2.8598
9.0950	2.8509
9.0791	2.8387
9.0632	2.8690
9.0474	2.8465
9.0316	2.8034
9.0159	2.7307
9.0003	2.6608
8.9847	2.6268
8.9691	2.5795
8.9536	2.5163
8.9382	2.4499
8.9228	2.3724
8.9075	2.2706
8.8922	2.2397
8.8770	2.2008
8.8618	2.2193
8.8467	2.2172
8.8316	2.0847
8.8166	1.9348
8.8016	1.9174
8.7867	1.9620
8.7718	1.9193
8.7570	1.8150
8.7422	1.7602
8.7275	1.7327
8.7129	1.7070
8.6982	1.6936
8.6837	1.7046
8.6692	1.6732
8.6547	1.7735
8.6403	1.8522
8.6259	1.7119
8.6116	1.6467
8.5973	1.6891
8.5830	1.6974
8.5688	1.6777
8.5547	1.6542
8.5406	1.6711
8.5266	1.6392
8.5126	1.6382
8.4986	1.6720
8.4847	1.6350
8.4708	1.5942
8.4570	1.6714
8.4432	1.7306
8.4295	1.7184
8.4158	1.7883
8.4022	1.8199
8.3886	1.8021
8.3750	1.7899
8.3615	1.8408
8.3481	1.9135
8.3347	1.9047
8.3213	1.8982
8.3079	1.8761
8.2946	1.8729
8.2814	1.8823
8.2682	1.8398
8.2550	1.7826
8.2419	1.7431
8.2288	1.7836
8.2158	1.8089
8.2028	1.7834
8.1898	1.7914
8.1769	1.8520
8.1640	1.8673
8.1512	1.8670
8.1384	1.8909
8.1256	1.8797
8.1129	1.8811
8.1002	1.9638
8.0876	2.0327
8.0750	2.0555
8.0624	2.1241
8.0499	2.2244
8.0374	2.2594
8.0250	2.3119
8.0126	2.4309
8.0002	2.5767
7.9879	2.6358
7.9756	2.6725
7.9634	2.7468
7.9512	2.8268
7.9390	2.9388
7.9268	3.0389
7.9147	3.1439
7.9027	3.2205
7.8906	3.2606
7.8786	3.3228
7.8667	3.5133
7.8548	3.6642
7.8429	3.7174
7.8310	3.7812
7.8192	3.8845
7.8075	4.0106
7.7957	4.1447
7.7840	4.2823
7.7723	4.4198
7.7607	4.5117
7.7491	4.6127
7.7375	4.7602
7.7260	4.8956
7.7145	5.0205
7.7031	5.1420
7.6916	5.2455
7.6802	5.3906
7.6689	5.4755
7.6575	5.5652
7.6462	5.7342
7.6350	5.8685
7.6238	5.9986
7.6126	6.0733
7.6014	6.1650
7.5903	6.2662
7.5792	6.3935
7.5681	6.5044
7.5571	6.6156
7.5461	6.7298
7.5351	6.8573
7.5242	6.9539
7.5133	7.0603
7.5024	7.1829
7.4916	7.2750
7.4807	7.4107
7.4700	7.5490
7.4592	7.6350
7.4485	7.7426
7.4378	7.8992
7.4272	7.9645
7.4165	8.0628
7.4059	8.1881
7.3954	8.3128
7.3848	8.4347
7.3743	8.5620
7.3639	8.7131
7.3534	8.8476
7.3430	8.9571
7.3326	9.0921
7.3223	9.2049
7.3119	9.2824
7.3016	9.3930
7.2914	9.5426
7.2811	9.5868
7.2709	9.6945
7.2607	9.8472
7.2506	9.9613
7.2404	10.095
7.2303	10.150
7.2203	10.216
7.2102	10.305
7.2002	10.448
7.1902	10.582
7.1803	10.615
7.1703	10.655
7.1604	10.794
7.1506	10.892
7.1407	11.036
7.1309	11.117
7.1211	11.119
7.1113	11.221
7.1016	11.333
7.0919	11.417
7.0822	11.535
7.0725	11.616
7.0629	11.635
7.0533	11.647
7.0437	11.695
7.0341	11.867
7.0246	11.965
7.0151	12.049
7.0056	12.177
6.9962	12.236
6.9867	12.251
6.9773	12.323
6.9679	12.426
6.9586	12.448
6.9493	12.593
6.9400	12.713
6.9307	12.784
6.9214	12.876
6.9122	12.882
6.9030	12.924
6.8938	13.049
6.8847	13.137
6.8755	13.162
6.8664	13.045
6.8573	13.140
6.8483	13.372
6.8393	13.515
6.8302	13.547
6.8213	13.595
6.8123	13.712
6.8034	13.774
6.7944	13.696
6.7855	13.676
6.7767	13.791
6.7678	13.837
6.7590	13.875
6.7502	13.934
6.7414	14.004
6.7327	13.973
6.7239	13.903
6.7152	13.887
6.7065	13.885
6.6979	13.946
6.6892	13.912
6.6806	13.788
6.6720	13.838
6.6634	13.973
6.6549	14.012
6.6464	13.849
6.6378	13.660
6.6294	13.761
6.6209	13.919
6.6124	13.939
6.6040	13.963
6.5956	13.921
6.5872	13.877
6.5789	13.817
6.5705	13.749
6.5622	13.811
6.5539	13.826
6.5456	13.859
6.5374	13.969
6.5292	14.008
6.5209	13.897
6.5128	13.892
6.5046	13.812
6.4964	13.603
6.4883	13.568
6.4802	13.697
6.4721	13.807
6.4640	13.837
6.4560	13.787
6.4480	13.739
6.4399	13.668
6.4320	13.549
6.4240	13.353
6.4160	13.072
6.4081	13.111
6.4002	13.324
6.3923	13.352
6.3844	13.268
6.3766	13.122
6.3687	12.966
6.3609	12.914
6.3531	12.759
6.3454	12.519
6.3376	12.452
6.3299	12.439
6.3221	12.307
6.3144	12.184
6.3068	12.078
6.2991	11.956
6.2914	11.790
6.2838	11.608
6.2762	11.465
6.2686	11.379
6.2611	11.307
6.2535	11.194
6.2460	11.072
6.2385	11.020
6.2310	10.967
6.2235	10.896
6.2160	10.819
6.2086	10.797
6.2011	10.809
6.1937	10.726
6.1863	10.550
6.1790	10.572
6.1716	10.681
6.1643	10.605
6.1570	10.477
6.1496	10.443
6.1424	10.377
6.1351	10.313
6.1278	10.273
6.1206	10.151
6.1134	10.051
6.1062	10.142
6.0990	10.221
6.0918	10.207
6.0847	10.192
6.0776	10.118
6.0704	10.041
6.0633	10.134
6.0563	10.115
6.0492	9.9852
6.0421	10.147
6.0351	10.304
6.0281	10.284
6.0211	10.248
6.0141	10.245
6.0071	10.326
6.0002	10.447
5.9932	10.458
5.9863	10.481
5.9794	10.596
5.9725	10.618
5.9657	10.611
5.9588	10.731
5.9520	10.842
5.9451	11.027
5.9383	11.179
5.9315	11.600
5.9247	12.230
5.9180	12.773
5.9112	13.286
5.9045	13.670
5.8978	13.988
5.8911	14.452
5.8844	14.761
5.8777	15.044
5.8711	15.525
5.8644	15.854
5.8578	16.142
5.8512	16.394
5.8446	16.611
5.8380	16.775
5.8314	16.861
5.8249	16.855
5.8184	17.019
5.8118	17.325
5.8053	17.548
5.7988	17.697
5.7923	17.761
5.7859	17.852
5.7794	17.966
5.7730	17.959
5.7666	17.864
5.7602	18.125
5.7538	18.407
5.7474	18.461
5.7410	18.575
5.7347	18.697
5.7283	18.808
5.7220	18.858
5.7157	18.901
5.7094	18.923
5.7031	19.115
5.6969	19.249
5.6906	19.256
5.6844	19.369
5.6782	19.452
5.6719	19.510
5.6657	19.616
5.6596	19.633
5.6534	19.688
5.6472	19.739
5.6411	19.709
5.6349	19.841
5.6288	20.039
5.6227	20.163
5.6166	20.225
5.6106	20.334
5.6045	20.405
5.5984	20.533
5.5924	20.693
5.5864	20.741
5.5804	20.759
5.5744	20.930
5.5684	21.148
5.5624	21.259
5.5564	21.347
5.5505	21.436
5.5445	21.573
5.5386	21.694
5.5327	21.757
5.5268	21.806
5.5209	21.877
5.5151	21.943
5.5092	21.976
5.5033	22.025
5.4975	22.127
5.4917	22.191
5.4859	22.190
5.4801	22.109
5.4743	22.175
5.4685	22.266
5.4628	22.261
5.4570	22.366
5.4513	22.479
5.4455	22.514
5.4398	22.542
5.4341	22.584
5.4284	22.593
5.4228	22.549
5.4171	22.673
5.4114	22.800
5.4058	22.845
5.4002	22.950
5.3945	23.041
5.3889	23.127
5.3833	23.199
5.3778	23.265
5.3722	23.324
5.3666	23.411
5.3611	23.431
5.3555	23.469
5.3500	23.458
5.3445	23.489
5.3390	23.579
5.3335	23.592
5.3280	23.591
5.3225	23.596
5.3171	23.535
5.3116	23.486
5.3062	23.498
5.3008	23.497
5.2954	23.432
5.2900	23.379
5.2846	23.353
5.2792	23.320
5.2738	23.320
5.2684	23.323
5.2631	23.274
5.2578	23.251
5.2524	23.289
5.2471	23.229
5.2418	23.167
5.2365	23.128
5.2312	23.149
5.2260	23.178
5.2207	23.167
5.2154	23.111
5.2102	23.116
5.2050	23.153
5.1998	23.128
5.1945	23.137
5.1893	23.166
5.1842	23.188
5.1790	23.220
5.1738	23.258
5.1686	23.337
5.1635	23.414
5.1584	23.473
5.1532	23.542
5.1481	23.631
5.1430	23.737
5.1379	23.833
5.1328	23.949
5.1277	24.077
5.1227	24.153
5.1176	24.257
5.1126	24.385
5.1075	24.453
5.1025	24.483
5.0975	24.570
5.0925	24.704
5.0875	24.823
5.0825	24.883
5.0775	24.968
5.0726	25.144
5.0676	25.240
5.0627	25.275
5.0577	25.362
5.0528	25.445
5.0479	25.539
5.0430	25.660
5.0380	25.777
5.0332	25.888
5.0283	25.983
5.0234	26.046
5.0185	26.092
5.0137	26.215
5.0088	26.332
5.0040	26.385
4.9992	26.451
4.9944	26.520
4.9896	26.571
4.9848	26.654
4.9800	26.751
4.9752	26.802
4.9704	26.774
4.9657	26.837
4.9609	27.006
4.9562	27.100
4.9514	27.160
4.9467	27.237
4.9420	27.332
4.9373	27.402
4.9326	27.463
4.9279	27.520
4.9232	27.527
4.9186	27.579
4.9139	27.658
4.9092	27.703
4.9046	27.780
4.9000	27.854
4.8953	27.920
4.8907	27.973
4.8861	28.020
4.8815	28.060
4.8769	28.143
4.8723	28.199
4.8678	28.236
4.8632	28.278
4.8586	28.326
4.8541	28.431
4.8495	28.517
4.8450	28.635
4.8405	28.685
4.8360	28.721
4.8315	28.822
4.8270	28.940
4.8225	29.013
4.8180	29.107
4.8135	29.214
4.8090	29.314
4.8046	29.431
4.8001	29.557
4.7957	29.659
4.7913	29.686
4.7868	29.722
4.7824	29.848
4.7780	29.987
4.7736	30.056
4.7692	30.119
4.7648	30.158
4.7605	30.187
4.7561	30.253
4.7517	30.325
4.7474	30.376
4.7431	30.412
4.7387	30.458
4.7344	30.521
4.7301	30.578
4.7258	30.635
4.7215	30.706
4.7172	30.755
4.7129	30.820
4.7086	30.859
4.7043	30.890
4.7000	30.934
4.6958	31.008
4.6915	31.084
4.6873	31.124
4.6831	31.202
4.6788	31.249
4.6746	31.296
4.6704	31.393
4.6662	31.474
4.6620	31.591
4.6578	31.689
4.6536	31.763
4.6495	31.869
4.6453	31.973
4.6411	32.110
4.6370	32.283
4.6328	32.395
4.6287	32.422
4.6246	32.449
4.6205	32.620
4.6163	32.778
4.6122	32.857
4.6081	32.890
4.6040	32.955
4.6000	33.110
4.5959	33.223
4.5918	33.245
4.5877	33.294
4.5837	33.364
4.5796	33.437
4.5756	33.507
4.5716	33.574
4.5675	33.662
4.5635	33.713
4.5595	33.753
4.5555	33.796
4.5515	33.824
4.5475	33.914
4.5435	33.962
4.5395	33.973
4.5356	34.022
4.5316	34.116
4.5276	34.178
4.5237	34.173
4.5197	34.201
4.5158	34.237
4.5119	34.241
4.5080	34.237
4.5040	34.244
4.5001	34.286
4.4962	34.295
4.4923	34.325
4.4884	34.319
4.4846	34.270
4.4807	34.305
4.4768	34.331
4.4730	34.339
4.4691	34.370
4.4652	34.395
4.4614	34.392
4.4576	34.346
4.4537	34.353
4.4499	34.340
4.4461	34.356
4.4423	34.373
4.4385	34.379
4.4347	34.375
4.4309	34.363
4.4271	34.312
4.4233	34.311
4.4196	34.338
4.4158	34.369
4.4120	34.368
4.4083	34.366
4.4045	34.347
4.4008	34.384
4.3971	34.422
4.3934	34.424
4.3896	34.407
4.3859	34.439
4.3822	34.501
4.3785	34.528
4.3748	34.526
4.3711	34.512
4.3674	34.588
4.3638	34.698
4.3601	34.691
4.3564	34.687
4.3528	34.786
4.3491	34.873
4.3455	34.905
4.3418	34.989
4.3382	35.052
4.3346	35.080
4.3310	35.167
4.3273	35.289
4.3237	35.367
4.3201	35.457
4.3165	35.570
4.3129	35.629
4.3094	35.713
4.3058	35.795
4.3022	35.876
4.2986	36.018
4.2951	36.079
4.2915	36.096
4.2880	36.176
4.2844	36.266
4.2809	36.358
4.2774	36.484
4.2738	36.594
4.2703	36.661
4.2668	36.755
4.2633	36.865
4.2598	36.956
4.2563	37.059
4.2528	37.104
4.2493	37.130
4.2458	37.154
4.2424	37.164
4.2389	37.284
4.2354	37.386
4.2320	37.414
4.2285	37.451
4.2251	37.555
4.2216	37.627
4.2182	37.713
4.2148	37.807
4.2113	37.883
4.2079	37.974
4.2045	38.066
4.2011	38.140
4.1977	38.185
4.1943	38.230
4.1909	38.324
4.1875	38.364
4.1841	38.391
4.1808	38.486
4.1774	38.574
4.1740	38.574
4.1707	38.585
4.1673	38.647
4.1640	38.730
4.1606	38.800
4.1573	38.859
4.1540	38.925
4.1506	38.972
4.1473	38.990
4.1440	39.029
4.1407	39.109
4.1374	39.161
4.1341	39.194
4.1308	39.207
4.1275	39.217
4.1242	39.260
4.1209	39.343
4.1177	39.410
4.1144	39.423
4.1111	39.476
4.1079	39.517
4.1046	39.614
4.1014	39.690
4.0981	39.662
4.0949	39.675
4.0917	39.722
4.0884	39.786
4.0852	39.835
4.0820	39.839
4.0788	39.875
4.0756	39.937
4.0724	39.955
4.0692	40.010
4.0660	40.066
4.0628	40.113
4.0596	40.151
4.0565	40.157
4.0533	40.139
4.0501	40.162
4.0470	40.218
4.0438	40.311
4.0406	40.340
4.0375	40.361
4.0344	40.388
4.0312	40.386
4.0281	40.394
4.0250	40.431
4.0218	40.456
4.0187	40.465
4.0156	40.501
4.0125	40.557
4.0094	40.595
4.0063	40.599
4.0032	40.589
4.0001	40.611
3.9970	40.660
3.9940	40.729
3.9909	40.728
3.9878	40.725
3.9847	40.785
3.9817	40.775
3.9786	40.735
3.9756	40.756
3.9725	40.750
3.9695	40.755
3.9665	40.787
3.9634	40.819
3.9604	40.851
3.9574	40.930
3.9544	40.957
3.9513	40.921
3.9483	40.896
3.9453	40.882
3.9423	40.858
3.9393	40.859
3.9363	40.859
3.9333	40.840
3.9304	40.881
3.9274	40.927
3.9244	40.916
3.9214	40.907
3.9185	40.912
3.9155	40.876
3.9126	40.823
3.9096	40.862
3.9067	40.893
3.9037	40.916
3.9008	40.912
3.8979	40.882
3.8949	40.852
3.8920	40.865
3.8891	40.890
3.8862	40.876
3.8833	40.842
3.8804	40.789
3.8775	40.776
3.8746	40.792
3.8717	40.754
3.8688	40.761
3.8659	40.743
3.8630	40.735
3.8601	40.720
3.8573	40.679
3.8544	40.640
3.8515	40.660
3.8487	40.665
3.8458	40.648
3.8430	40.607
3.8401	40.567
3.8373	40.547
3.8344	40.564
3.8316	40.535
3.8288	40.452
3.8259	40.491
3.8231	40.529
3.8203	40.487
3.8175	40.471
3.8147	40.428
3.8119	40.419
3.8091	40.390
3.8063	40.356
3.8035	40.332
3.8007	40.359
3.7979	40.294
3.7951	40.201
3.7924	40.159
3.7896	40.164
3.7868	40.199
3.7841	40.148
3.7813	40.058
3.7785	40.019
3.7758	40.004
3.7730	39.976
3.7703	39.944
3.7676	39.921
3.7648	39.895
3.7621	39.903
3.7594	39.841
3.7566	39.777
3.7539	39.754
3.7512	39.746
3.7485	39.716
3.7458	39.701
3.7431	39.636
3.7404	39.549
3.7377	39.525
3.7350	39.514
3.7323	39.502
3.7296	39.489
3.7269	39.442
3.7242	39.390
3.7216	39.380
3.7189	39.369
3.7162	39.297
3.7136	39.256
3.7109	39.230
3.7083	39.199
3.7056	39.152
3.7030	39.134
3.7003	39.104
3.6977	39.032
3.6950	39.012
3.6924	38.985
3.6898	38.907
3.6872	38.852
3.6845	38.799
3.6819	38.735
3.6793	38.707
3.6767	38.681
3.6741	38.674
3.6715	38.641
3.6689	38.579
3.6663	38.537
3.6637	38.553
3.6611	38.522
3.6585	38.445
3.6560	38.347
3.6534	38.304
3.6508	38.287
3.6482	38.222
3.6457	38.191
3.6431	38.134
3.6406	38.076
3.6380	38.006
3.6355	37.942
3.6329	37.941
3.6304	37.923
3.6278	37.866
3.6253	37.806
3.6227	37.764
3.6202	37.686
3.6177	37.560
3.6152	37.532
3.6127	37.501
3.6101	37.433
3.6076	37.348
3.6051	37.288
3.6026	37.357
3.6001	37.333
3.5976	37.165
3.5951	37.063
3.5926	37.023
3.5901	36.973
3.5876	36.968
3.5852	36.927
3.5827	36.862
3.5802	36.771
3.5777	36.665
3.5753	36.602
3.5728	36.543
3.5704	36.474
3.5679	36.384
3.5654	36.330
3.5630	36.270
3.5605	36.206
3.5581	36.138
3.5557	36.087
3.5532	35.970
3.5508	35.873
3.5484	35.845
3.5459	35.818
3.5435	35.736
3.5411	35.652
3.5387	35.560
3.5363	35.489
3.5338	35.437
3.5314	35.360
3.5290	35.268
3.5266	35.165
3.5242	35.070
3.5218	34.997
3.5195	34.917
3.5171	34.860
3.5147	34.766
3.5123	34.706
3.5099	34.643
3.5075	34.545
3.5052	34.451
3.5028	34.358
3.5004	34.277
3.4981	34.162
3.4957	34.070
3.4934	34.060
3.4910	33.953
3.4887	33.804
3.4863	33.786
3.4840	33.742
3.4816	33.647
3.4793	33.532
3.4770	33.462
3.4746	33.358
3.4723	33.235
3.4700	33.167
3.4677	33.068
3.4653	33.000
3.4630	32.911
3.4607	32.819
3.4584	32.772
3.4561	32.678
3.4538	32.526
3.4515	32.391
3.4492	32.283
3.4469	32.197
3.4446	32.139
3.4423	32.054
3.4400	31.925
3.4378	31.876
3.4355	31.796
3.4332	31.621
3.4309	31.527
3.4287	31.442
3.4264	31.346
3.4241	31.254
3.4219	31.140
3.4196	30.972
3.4174	30.854
3.4151	30.785
3.4129	30.698
3.4106	30.532
3.4084	30.427
3.4061	30.449
3.4039	30.369
3.4017	30.167
3.3994	30.024
3.3972	29.927
3.3950	29.811
3.3928	29.710
3.3906	29.618
3.3883	29.521
3.3861	29.419
3.3839	29.310
3.3817	29.131
3.3795	28.990
3.3773	28.945
3.3751	28.819
3.3729	28.705
3.3707	28.553
3.3685	28.434
3.3663	28.328
3.3641	28.206
3.3620	28.077
3.3598	27.932
3.3576	27.875
3.3554	27.743
3.3533	27.594
3.3511	27.499
3.3489	27.358
3.3468	27.220
3.3446	27.082
3.3425	27.001
3.3403	26.913
3.3382	26.757
3.3360	26.628
3.3339	26.534
3.3317	26.461
3.3296	26.326
3.3274	26.177
3.3253	25.996
3.3232	25.836
3.3210	25.732
3.3189	25.589
3.3168	25.472
3.3147	25.382
3.3126	25.253
3.3104	25.189
3.3083	25.049
3.3062	24.909
3.3041	24.756
3.3020	24.671
3.2999	24.610
3.2978	24.452
3.2957	24.317
3.2936	24.203
3.2915	24.091
3.2894	23.997
3.2874	23.923
3.2853	23.806
3.2832	23.671
3.2811	23.573
3.2790	23.463
3.2770	23.331
3.2749	23.241
3.2728	23.185
3.2708	23.050
3.2687	22.900
3.2666	22.770
3.2646	22.669
3.2625	22.537
3.2605	22.348
3.2584	22.274
3.2564	22.204
3.2543	22.056
3.2523	21.949
3.2503	21.816
3.2482	21.722
3.2462	21.662
3.2442	21.500
3.2421	21.332
3.2401	21.226
3.2381	21.147
3.2361	21.089
3.2340	20.934
3.2320	20.792
3.2300	20.714
3.2280	20.579
3.2260	20.434
3.2240	20.361
3.2220	20.290
3.2200	20.190
3.2180	20.081
3.2160	19.905
3.2140	19.792
3.2120	19.724
3.2100	19.590
3.2080	19.455
3.2060	19.364
3.2040	19.267
3.2021	19.184
3.2001	19.048
3.1981	18.949
3.1961	18.893
3.1942	18.693
3.1922	18.508
3.1902	18.505
3.1883	18.437
3.1863	18.291
3.1844	18.165
3.1824	18.148
3.1805	18.050
3.1785	17.868
3.1766	17.758
3.1746	17.706
3.1727	17.535
3.1707	17.378
3.1688	17.314
3.1669	17.221
3.1649	17.073
3.1630	16.966
3.1611	16.954
3.1591	16.903
3.1572	16.866
3.1553	16.733
3.1534	16.623
3.1515	16.495
3.1495	16.311
3.1476	16.236
3.1457	16.141
3.1438	16.032
3.1419	15.923
3.1400	15.872
3.1381	15.733
3.1362	15.633
3.1343	15.652
3.1324	15.620
3.1305	15.422
3.1286	15.267
3.1268	15.263
3.1249	15.214
3.1230	15.122
3.1211	15.106
3.1192	15.044
3.1174	15.014
3.1155	14.967
3.1136	14.828
3.1117	14.704
3.1099	14.720
3.1080	14.733
3.1061	14.639
3.1043	14.617
3.1024	14.629
3.1006	14.480
3.0987	14.346
3.0969	14.361
3.0950	14.335
3.0932	14.318
3.0913	14.311
3.0895	14.274
3.0876	14.202
3.0858	14.147
3.0840	14.083
3.0821	13.992
3.0803	13.905
3.0785	13.877
3.0766	13.870
3.0748	13.875
3.0730	13.817
3.0712	13.713
3.0694	13.685
3.0675	13.668
3.0657	13.694
3.0639	13.742
3.0621	13.593
3.0603	13.512
3.0585	13.504
3.0567	13.485
3.0549	13.448
3.0531	13.475
3.0513	13.512
3.0495	13.408
3.0477	13.380
3.0459	13.401
3.0441	13.381
3.0423	13.416
3.0406	13.420
3.0388	13.332
3.0370	13.310
3.0352	13.338
3.0334	13.324
3.0317	13.302
3.0299	13.350
3.0281	13.305
3.0264	13.306
3.0246	13.243
3.0228	13.102
3.0211	13.035
3.0193	13.061
3.0176	13.045
3.0158	13.011
3.0140	12.990
3.0123	12.955
3.0105	12.962
3.0088	13.010
3.0070	12.969
3.0053	12.938
3.0036	12.949
3.0018	12.939
3.0001	12.821
2.9984	12.761
2.9966	12.775
2.9949	12.702
2.9932	12.655
2.9914	12.706
2.9897	12.669
2.9880	12.643
2.9863	12.695
2.9845	12.623
2.9828	12.551
2.9811	12.541
2.9794	12.541
2.9777	12.430
2.9760	12.356
2.9743	12.379
2.9726	12.361
2.9709	12.316
2.9692	12.295
2.9675	12.266
2.9658	12.191
2.9641	12.207
2.9624	12.188
2.9607	12.128
2.9590	12.170
2.9573	12.111
2.9556	12.052
2.9539	12.068
2.9523	12.044
2.9506	12.018
2.9489	12.060
2.9472	11.979
2.9455	11.929
2.9439	11.961
2.9422	12.023
2.9405	11.986
2.9389	11.983
2.9372	11.981
2.9355	12.008
2.9339	12.039
2.9322	12.046
2.9306	12.008
2.9289	11.944
2.9272	12.047
2.9256	12.104
2.9239	12.121
2.9223	12.228
2.9207	12.257
2.9190	12.165
2.9174	12.073
2.9157	12.072
2.9141	12.143
2.9124	12.203
2.9108	12.203
2.9092	12.198
2.9075	12.162
2.9059	12.235
2.9043	12.229
2.9027	12.208
2.9010	12.265
2.8994	12.262
2.8978	12.237
2.8962	12.266
2.8946	12.272
2.8929	12.246
2.8913	12.215
2.8897	12.175
2.8881	12.173
2.8865	12.163
2.8849	12.261
2.8833	12.333
2.8817	12.326
2.8801	12.280
2.8785	12.279
2.8769	12.295
2.8753	12.251
2.8737	12.334
2.8721	12.416
2.8705	12.422
2.8689	12.438
2.8673	12.401
2.8658	12.460
2.8642	12.449
2.8626	12.434
2.8610	12.479
2.8594	12.443
2.8579	12.445
2.8563	12.503
2.8547	12.609
2.8531	12.503
2.8516	12.385
2.8500	12.408
2.8484	12.507
2.8469	12.534
2.8453	12.555
2.8437	12.479
2.8422	12.444
2.8406	12.351
2.8391	12.302
2.8375	12.260
2.8360	12.228
2.8344	12.242
2.8329	12.254
2.8313	12.209
2.8298	12.113
2.8282	12.123
2.8267	12.099
2.8252	12.162
2.8236	12.293
2.8221	12.230
2.8205	12.252
2.8190	12.404
2.8175	12.514
2.8159	12.544
2.8144	12.569
2.8129	12.719
2.8114	12.838
2.8098	12.720
2.8083	12.692
2.8068	12.786
2.8053	12.888
2.8038	12.897
2.8022	12.927
2.8007	13.033
2.7992	13.070
2.7977	13.109
2.7962	13.250
2.7947	13.328
2.7932	13.329
2.7917	13.328
2.7902	13.400
2.7887	13.449
2.7872	13.373
2.7857	13.364
2.7842	13.571
2.7827	13.777
2.7812	13.811
2.7797	13.758
2.7782	13.801
2.7767	13.882
2.7752	14.000
2.7738	14.119
2.7723	14.175
2.7708	14.060
2.7693	14.108
2.7678	14.276
2.7664	14.458
2.7649	14.521
2.7634	14.500
2.7619	14.561
2.7605	14.835
2.7590	15.030
2.7575	15.065
2.7561	14.989
2.7546	15.094
2.7531	15.389
2.7517	15.631
2.7502	15.855
2.7488	16.008
2.7473	16.263
2.7458	16.558
2.7444	16.698
2.7429	16.728
2.7415	16.845
2.7400	17.024
2.7386	17.209
2.7371	17.569
2.7357	17.847
2.7343	18.085
2.7328	18.426
2.7314	18.668
2.7299	18.998
2.7285	19.400
2.7271	19.771
2.7256	20.009
2.7242	20.163
2.7228	20.548
2.7213	20.854
2.7199	21.181
2.7185	22.014
2.7171	23.003
2.7156	23.734
2.7142	24.447
2.7128	25.180
2.7114	25.610
2.7100	26.243
2.7085	27.160
2.7071	28.090
2.7057	28.771
2.7043	29.340
2.7029	29.999
2.7015	30.525
2.7001	31.128
2.6987	31.765
2.6973	32.353
2.6959	32.769
2.6945	33.041
2.6931	33.574
2.6917	34.502
2.6903	35.174
2.6889	35.770
2.6875	36.431
2.6861	37.284
2.6847	38.232
2.6833	39.287
2.6819	40.381
2.6805	41.139
2.6791	41.526
2.6778	41.969
2.6764	42.190
2.6750	42.749
2.6736	43.303
2.6722	43.453
2.6709	42.930
2.6695	43.028
2.6681	43.624
2.6667	43.425
2.6654	43.511
2.6640	43.963
2.6626	44.630
2.6613	44.737
2.6599	44.697
2.6585	44.824
2.6572	45.159
2.6558	45.127
2.6545	45.161
2.6531	45.111
2.6517	45.154
2.6504	45.466
2.6490	45.674
2.6477	45.679
2.6463	45.569
2.6450	45.508
2.6436	45.673
2.6423	45.750
2.6409	45.831
2.6396	45.886
2.6382	45.910
2.6369	46.092
2.6356	46.167
2.6342	46.003
2.6329	46.010
2.6315	45.793
2.6302	45.515
2.6289	45.992
2.6275	46.080
2.6262	45.771
2.6249	46.126
2.6236	46.353
2.6222	46.288
2.6209	45.914
2.6196	45.819
2.6183	46.063
2.6169	45.905
2.6156	46.035
2.6143	46.386
2.6130	46.422
2.6117	46.455
2.6103	46.415
2.6090	46.376
2.6077	46.380
2.6064	46.156
2.6051	45.848
2.6038	46.084
2.6025	46.413
2.6012	46.587
2.5999	46.639
2.5986	46.767
2.5973	46.621
2.5960	45.904
2.5947	45.160
2.5934	45.685
2.5921	46.451
2.5908	46.640
2.5895	46.512
2.5882	46.401
2.5869	46.375
2.5856	46.474
2.5843	46.248
2.5830	46.191
2.5817	46.453
2.5805	46.461
2.5792	46.614
2.5779	46.550
2.5766	46.471
2.5753	46.655
2.5741	46.536
2.5728	46.433
2.5715	46.660
2.5702	46.529
2.5690	46.474
2.5677	46.684
2.5664	46.761
2.5651	46.657
2.5639	46.480
2.5626	46.358
2.5613	46.309
2.5601	46.435
2.5588	46.749
2.5575	46.854
2.5563	46.815
2.5550	46.877
2.5538	46.791
2.5525	46.680
2.5513	46.620
2.5500	46.591
2.5487	46.742
2.5475	46.720
2.5462	46.721
2.5450	46.652
2.5437	46.579
2.5425	46.609
2.5413	46.745
2.5400	46.840
2.5388	46.755
2.5375	46.547
2.5363	46.554
2.5350	46.735
2.5338	46.666
2.5326	46.554
2.5313	46.631
2.5301	46.741
2.5289	46.770
2.5276	46.724
2.5264	46.669
2.5252	46.512
2.5239	46.493
2.5227	46.620
2.5215	46.745
2.5202	46.680
2.5190	46.598
2.5178	46.519
2.5166	46.601
2.5154	46.579
2.5141	46.622
2.5129	46.676
2.5117	46.641
2.5105	46.667
2.5093	46.607
2.5081	46.563
2.5068	46.611
2.5056	46.616
2.5044	46.548
2.5032	46.573
2.5020	46.661
2.5008	46.654
2.4996	46.586
2.4984	46.553
2.4972	46.668
2.4960	46.708
2.4948	46.682
2.4936	46.598
2.4924	46.519
2.4912	46.473
2.4900	46.568
2.4888	46.608
2.4876	46.486
2.4864	46.318
2.4852	46.343
2.4840	46.422
2.4828	46.480
2.4816	46.543
2.4805	46.511
2.4793	46.394
2.4781	46.396
2.4769	46.429
2.4757	46.509
2.4745	46.503
2.4734	46.377
2.4722	46.280
2.4710	46.300
2.4698	46.340
2.4686	46.365
2.4675	46.336
2.4663	46.386
2.4651	46.452
2.4640	46.449
2.4628	46.308
2.4616	46.247
2.4604	46.281
2.4593	46.386
2.4581	46.326
2.4569	46.241
2.4558	46.231
2.4546	46.236
2.4535	46.096
2.4523	46.198
2.4511	46.280
2.4500	46.235
2.4488	46.237
2.4477	46.305
2.4465	46.383
2.4454	46.363
2.4442	46.268
2.4431	46.265
2.4419	46.257
2.4408	46.291
2.4396	46.406
2.4385	46.328
2.4373	46.192
2.4362	46.281
2.4350	46.335
2.4339	46.298
2.4327	46.209
2.4316	46.153
2.4305	46.168
2.4293	46.205
2.4282	46.070
2.4270	46.015
2.4259	46.062
2.4248	46.073
2.4236	46.132
2.4225	46.172
2.4214	46.101
2.4202	46.170
2.4191	46.109
2.4180	46.002
2.4169	46.052
2.4157	46.204
2.4146	46.259
2.4135	46.214
2.4124	46.206
2.4112	46.128
2.4101	46.033
2.4090	45.986
2.4079	46.083
2.4068	46.173
2.4056	46.066
2.4045	46.013
2.4034	46.014
2.4023	46.103
2.4012	46.078
2.4001	46.078
2.3990	46.122
2.3979	46.037
2.3967	45.925
2.3956	46.095
2.3945	46.169
2.3934	46.104
2.3923	46.142
2.3912	46.166
2.3901	46.062
2.3890	46.059
2.3879	46.259
2.3868	46.422
2.3857	46.318
2.3846	46.153
2.3835	46.058
2.3824	46.127
2.3813	46.205
2.3802	46.119
2.3791	46.118
2.3781	46.212
2.3770	46.269
2.3759	46.229
2.3748	46.284
2.3737	46.263
2.3726	46.120
2.3715	46.137
2.3704	46.197
2.3694	46.192
2.3683	46.121
2.3672	46.009
2.3661	46.085
2.3650	46.199
2.3640	46.099
2.3629	46.008
2.3618	46.039
2.3607	46.073
2.3597	46.187
2.3586	46.180
2.3575	46.147
2.3564	45.987
2.3554	45.888
2.3543	45.904
2.3532	45.914
2.3522	45.985
2.3511	45.972
2.3500	45.953
2.3490	45.911
2.3479	45.854
2.3468	45.797
2.3458	45.661
2.3447	45.481
2.3436	45.558
2.3426	45.679
2.3415	45.631
2.3405	45.588
2.3394	45.668
2.3384	45.575
2.3373	45.409
2.3363	45.386
2.3352	45.541
2.3342	45.522
2.3331	45.477
2.3321	45.400
2.3310	45.290
2.3300	45.231
2.3289	45.133
2.3279	45.107
2.3268	45.209
2.3258	45.203
2.3247	45.189
2.3237	45.179
2.3226	45.097
2.3216	45.035
2.3206	45.042
2.3195	45.085
2.3185	45.160
2.3175	45.129
2.3164	45.160
2.3154	45.071
2.3144	45.088
2.3133	45.143
2.3123	45.228
2.3113	45.174
2.3102	45.123
2.3092	45.180
2.3082	45.145
2.3071	45.068
2.3061	45.079
2.3051	45.118
2.3041	45.108
2.3030	45.175
2.3020	45.302
2.3010	45.285
2.3000	45.213
2.2990	45.226
2.2979	45.266
2.2969	45.203
2.2959	45.210
2.2949	45.145
2.2939	45.110
2.2929	45.050
2.2918	45.103
2.2908	45.215
2.2898	45.210
2.2888	45.164
2.2878	45.236
2.2868	45.269
2.2858	45.241
2.2848	45.162
2.2838	45.035
2.2828	45.062
2.2818	45.188
2.2808	45.288
2.2798	45.123
2.2787	45.072
2.2777	45.081
2.2767	44.977
2.2757	45.097
2.2747	45.187
2.2738	45.072
2.2728	45.071
2.2718	45.095
2.2708	44.996
2.2698	44.928
2.2688	44.953
2.2678	44.947
2.2668	44.903
2.2658	44.828
2.2648	44.965
2.2638	44.938
2.2628	44.712
2.2618	44.761
2.2609	44.728
2.2599	44.747
2.2589	44.771
2.2579	44.676
2.2569	44.576
2.2559	44.570
2.2550	44.616
2.2540	44.566
2.2530	44.426
2.2520	44.365
2.2510	44.493
2.2501	44.556
2.2491	44.601
2.2481	44.515
2.2471	44.363
2.2462	44.393
2.2452	44.459
2.2442	44.299
2.2433	44.219
2.2423	44.277
2.2413	44.340
2.2403	44.270
2.2394	44.062
2.2384	44.041
2.2374	44.196
2.2365	44.307
2.2355	44.316
2.2345	44.161
2.2336	44.201
2.2326	44.248
2.2317	44.098
2.2307	44.026
2.2297	43.970
2.2288	44.032
2.2278	44.048
2.2269	44.028
2.2259	44.063
2.2250	44.079
2.2240	44.022
2.2231	44.010
2.2221	44.017
2.2211	43.985
2.2202	43.954
2.2192	43.971
2.2183	43.889
2.2173	43.811
2.2164	43.799
2.2155	43.729
2.2145	43.680
2.2136	43.787
2.2126	43.731
2.2117	43.640
2.2107	43.724
2.2098	43.610
2.2088	43.491
2.2079	43.456
2.2070	43.439
2.2060	43.405
2.2051	43.307
2.2041	43.374
2.2032	43.353
2.2023	43.291
2.2013	43.325
2.2004	43.369
2.1995	43.265
2.1985	43.145
2.1976	43.213
2.1967	43.301
2.1957	43.280
2.1948	43.138
2.1939	43.037
2.1930	43.068
2.1920	43.099
2.1911	43.039
2.1902	42.958
2.1893	42.988
2.1883	42.994
2.1874	42.963
2.1865	42.907
2.1856	42.899
2.1846	43.001
2.1837	42.965
2.1828	42.806
2.1819	42.785
2.1810	42.778
2.1800	42.752
2.1791	42.770
2.1782	42.647
2.1773	42.570
2.1764	42.599
2.1755	42.561
2.1746	42.509
2.1736	42.475
2.1727	42.441
2.1718	42.508
2.1709	42.492
2.1700	42.405
2.1691	42.316
2.1682	42.279
2.1673	42.239
2.1664	42.240
2.1655	42.291
2.1646	42.218
2.1637	42.167
2.1628	42.128
2.1619	42.136
2.1610	42.169
2.1601	42.146
2.1592	42.098
2.1583	42.061
2.1574	41.949
2.1565	41.920
2.1556	41.968
2.1547	41.972
2.1538	41.991
2.1529	41.944
2.1520	41.974
2.1511	41.871
2.1502	41.792
2.1493	41.690
2.1484	41.745
2.1475	41.781
2.1466	41.675
2.1458	41.580
2.1449	41.641
2.1440	41.609
2.1431	41.615
2.1422	41.567
2.1413	41.467
2.1404	41.371
2.1396	41.299
2.1387	41.386
2.1378	41.343
2.1369	41.363
2.1360	41.334
2.1352	41.312
2.1343	41.341
2.1334	41.196
2.1325	41.152
2.1316	41.202
2.1308	41.237
2.1299	41.035
2.1290	40.986
2.1281	41.149
2.1273	41.171
2.1264	41.021
2.1255	40.943
2.1247	40.919
2.1238	40.835
2.1229	40.705
2.1220	40.768
2.1212	40.831
2.1203	40.717
2.1194	40.668
2.1186	40.626
2.1177	40.552
2.1168	40.711
2.1160	40.917
2.1151	40.913
2.1143	40.579
2.1134	40.309
2.1125	40.414
2.1117	40.579
2.1108	40.485
2.1100	40.385
2.1091	40.300
2.1082	40.264
2.1074	40.460
2.1065	40.414
2.1057	40.173
2.1048	40.146
2.1040	40.244
2.1031	40.266
2.1023	40.224
2.1014	40.117
2.1005	40.094
2.0997	40.059
2.0988	40.069
2.0980	40.055
2.0971	39.955
2.0963	39.897
2.0955	39.773
2.0946	39.890
2.0938	40.114
2.0929	40.034
2.0921	39.909
2.0912	39.830
2.0904	39.790
2.0895	39.728
2.0887	39.793
2.0879	39.842
2.0870	39.709
2.0862	39.667
2.0853	39.744
2.0845	39.640
2.0837	39.621
2.0828	39.581
2.0820	39.578
2.0812	39.545
2.0803	39.557
2.0795	39.464
2.0760	39.464
2.0720	39.461
2.0680	39.217
2.0640	39.217
2.0600	39.402
2.0560	39.179
2.0520	38.968
2.0480	38.701
2.0440	38.368
2.0400	38.397
2.0360	38.191
2.0320	38.043
2.0280	37.824
2.0240	37.768
2.0200	37.510
2.0160	37.510
2.0120	37.291
2.0080	37.601
2.0040	37.219
2.0000	36.910
1.9960	36.637
1.9920	36.546
1.9880	36.493
1.9840	36.308
1.9800	36.192
1.9760	36.171
1.9720	36.168
1.9680	35.844
1.9640	35.728
1.9600	35.638
1.9560	35.534
1.9520	35.637
1.9480	35.533
1.9440	35.480
1.9400	35.360
1.9360	35.287
1.9320	35.043
1.9280	35.147
1.9240	35.043
1.9200	35.176
1.9160	35.391
1.9120	35.391
1.9080	35.313
1.9040	35.282
1.9000	35.546
1.8960	35.779
1.8920	36.033
1.8880	36.275
1.8840	36.500
1.8800	36.720
1.8760	36.995
1.8720	37.346
1.8680	37.092
1.8640	37.056
1.8600	36.903
1.8560	36.942
1.8520	37.165
1.8480	37.344
1.8440	37.291
1.8400	37.461
1.8360	37.461
1.8320	37.594
1.8280	37.710
1.8240	37.602
1.8200	37.610
1.8160	37.794
1.8120	37.791
1.8080	37.802
1.8040	37.856
1.8000	37.944
1.7960	38.192
1.7920	38.114
1.7880	38.032
1.7840	38.236
1.7800	38.188
1.7760	38.385
1.7720	38.324
1.7680	38.324
1.7640	38.523
1.7600	38.728
1.7560	38.966
1.7520	39.082
1.7480	39.199
1.7440	39.115
1.7400	39.171
1.7360	39.373
1.7320	39.402
1.7280	39.402
1.7240	39.580
1.7200	39.758
1.7160	39.967
1.7120	39.969
1.7080	39.981
1.7040	40.267
1.7000	40.326
1.6960	40.503
1.6920	40.650
1.6880	40.708
1.6840	40.650
1.6800	40.797
1.6760	40.944
1.6720	41.238
1.6680	41.327
1.6640	41.385
1.6600	41.355
1.6560	41.336
1.6520	41.485
1.6480	41.839
1.6440	41.958
1.6400	41.955
1.6360	41.881
1.6320	42.101
1.6280	42.193
1.6240	42.360
1.6200	42.281
1.6160	42.308
1.6120	42.512
1.6080	42.750
1.6040	43.089
1.6000	43.177
1.5960	43.260
1.5920	43.317
1.5880	43.337
1.5840	43.387
1.5800	43.324
1.5760	43.481
1.5720	43.563
1.5680	43.739
1.5640	43.855
1.5600	44.066
1.5560	44.026
1.5520	43.936
1.5480	44.063
1.5440	44.151
1.5400	44.119
1.5360	44.200
1.5320	44.463
1.5280	44.504
1.5240	44.681
1.5200	44.825
1.5160	44.792
1.5120	44.519
1.5080	44.519
1.5040	44.472
1.5000	44.288
1.4960	43.728
1.4920	44.487
1.4880	44.598
1.4840	44.718
1.4800	44.761
1.4760	44.838
1.4720	44.838
1.4680	44.816
1.4640	44.959
1.4600	44.632
1.4560	44.729
1.4520	44.747
1.4480	44.779
1.4440	44.644
1.4400	44.653
1.4360	44.662
1.4320	44.662
1.4280	44.486
1.4240	44.453
1.4200	44.421
1.4160	44.397
1.4120	44.299
1.4080	44.096
1.4040	44.113
1.4000	44.128
1.3960	44.031
1.3920	43.757
1.3880	43.763
1.3840	44.006
1.3800	44.136
1.3760	44.039
1.3720	43.889
1.3680	44.094
1.3640	44.237
1.3600	44.163
1.3560	44.610
1.3520	44.656
1.3480	44.741
1.3440	44.733
1.3400	44.237
1.3360	44.332
1.3320	44.182
1.3280	44.063
1.3240	44.039
1.3200	44.052
1.3160	43.915
1.3120	43.529
1.3080	43.534
1.3040	43.565
1.3000	43.508
1.2960	43.451
1.2920	43.367
1.2880	43.283
1.2840	43.261
1.2800	43.028
1.2760	42.701
1.2720	42.766
1.2680	42.612
1.2640	42.487
1.2600	42.367
1.2560	42.220
1.2520	42.201
1.2480	42.501
1.2440	42.562
1.2400	42.596
1.2360	42.425
1.2320	42.033
1.2280	41.904
1.2240	41.726
1.2200	41.915
1.2160	42.006
1.2120	41.498
1.2080	41.173
1.2040	40.937
1.2000	40.908
1.1960	40.645
1.1920	40.539
1.1880	40.394
1.1840	40.338
1.1800	40.155
1.1760	40.194
1.1720	40.222
1.1680	39.979
1.1640	39.887
1.1600	39.766
1.1560	39.788
1.1520	39.844
1.1480	39.578
1.1440	39.526
1.1400	39.631
1.1360	39.888
1.1320	39.631
1.1280	39.301
1.1240	39.260
1.1200	39.048
1.1160	38.878
1.1120	38.497
1.1080	38.179
1.1040	38.294
1.1000	38.080
1.0960	38.001
1.0920	37.850
1.0880	37.621
1.0840	37.495
1.0800	37.150
1.0760	36.859
1.0720	36.543
1.0680	36.327
1.0640	35.978
1.0600	35.939
1.0560	35.762
1.0520	35.569
1.0480	35.103
1.0440	34.526
1.0400	34.235
1.0360	34.150
1.0320	33.798
1.0280	33.422
1.0240	33.333
1.0200	32.736
1.0160	32.403
1.0120	31.830
1.0080	31.674
1.0040	31.418
1.0000	30.963
0.9960	30.522
0.9920	30.190
0.9880	30.091
0.9840	29.726
0.9800	29.391
0.9760	29.096
0.9720	28.845
0.9680	28.547
0.9640	28.388
0.9600	28.069
0.9560	27.963
0.9520	27.768
0.9480	27.591
0.9440	27.414
0.9400	27.352
0.9360	27.210
0.9320	27.159
0.9280	27.003
0.9240	26.948
0.9200	26.948
0.9160	26.948
0.9120	26.948
0.9080	27.023
0.9040	26.877
0.9000	26.938
0.8960	26.989
0.8920	27.077
0.8880	27.217
0.8840	27.288
0.8800	27.621
0.8760	27.621
0.8720	27.728
0.8680	27.816
0.8640	28.118
0.8600	28.316
0.8560	28.476
0.8520	28.743
0.8480	28.940
0.8440	29.258
0.8400	29.378
0.8360	29.772
0.8320	29.960
0.8280	30.335
0.8240	30.738
0.8200	31.160
0.8160	31.430
0.8120	31.875
0.8080	32.271
0.8040	32.361
0.8000	32.755
0.7990	33.260
0.7980	33.260
0.7970	33.066
0.7960	33.169
0.7950	33.260
0.7940	33.260
0.7930	33.312
0.7920	33.447
0.7910	33.369
0.7900	33.604
0.7890	33.643
0.7880	33.695
0.7870	33.795
0.7860	33.914
0.7850	33.925
0.7840	33.872
0.7830	34.005
0.7820	33.914
0.7810	34.182
0.7800	34.375
0.7790	34.416
0.7780	34.270
0.7770	34.430
0.7760	34.434
0.7750	34.366
0.7740	34.690
0.7730	34.526
0.7720	34.617
0.7710	34.494
0.7700	34.508
0.7690	34.659
0.7680	34.975
0.7670	34.700
0.7660	34.755
0.7650	34.836
0.7640	35.144
0.7630	34.948
0.7620	34.988
0.7610	34.864
0.7600	34.864
0.7590	35.084
0.7580	34.968
0.7570	34.811
0.7560	34.700
0.7550	34.864
0.7540	34.745
0.7530	35.044
0.7520	35.100
0.7510	34.755
0.7500	34.979
0.7490	35.172
0.7480	34.836
0.7470	34.904
0.7460	34.672
0.7450	34.783
0.7440	35.003
0.7430	35.189
0.7420	34.892
0.7410	34.968
0.7400	35.032
0.7390	35.257
0.7380	34.672
0.7370	35.032
0.7360	35.274
0.7350	34.811
0.7340	34.811
0.7330	34.645
0.7320	34.645
0.7310	35.048
0.7300	34.844
0.7290	34.563
0.7280	34.900
0.7270	35.078
0.7260	34.888
0.7250	34.646
0.7240	34.804
0.7230	34.888
0.7220	34.928
0.7210	34.832
0.7200	34.652
0.7190	34.664
0.7180	34.784
0.7170	34.591
0.7160	34.664
0.7150	34.776
0.7140	34.302
0.7130	34.260
0.7120	34.363
0.7110	34.598
0.7100	34.467
0.7090	34.233
0.7080	34.206
0.7070	34.608
0.7060	34.419
0.7050	34.405
0.7040	34.350
0.7030	34.489
0.7020	34.610
0.7010	34.773
0.7000	34.648
0.6990	34.572
0.6980	34.338
0.6970	34.464
0.6960	34.281
0.6950	34.664
0.6940	34.664
0.6930	34.565
0.6920	34.536
0.6910	34.351
0.6900	34.351
0.6890	34.549
0.6880	34.664
0.6870	34.451
0.6860	34.436
0.6850	34.238
0.6840	34.125
0.6830	34.125
0.6820	34.392
0.6810	34.253
0.6800	34.392
0.6790	34.236
0.6780	34.335
0.6770	34.252
0.6760	34.408
0.6750	34.337
0.6740	34.551
0.6730	34.252
0.6720	34.237
0.6710	34.238
0.6700	34.110
0.6690	34.208
0.6680	34.054
0.6670	34.011
0.6660	34.251
0.6650	33.996
0.6640	34.096
0.6630	34.351
0.6620	34.394
0.6610	34.195
0.6600	33.896
0.6590	33.840
0.6580	33.840
0.6570	34.138
0.6560	34.054
0.6550	34.138
0.6540	34.138
0.6530	33.955
0.6520	34.053
0.6510	34.038
0.6500	33.981
0.6490	33.797
0.6480	33.741
0.6470	33.939
0.6460	33.967
0.6450	33.868
0.6440	33.967
0.6430	33.840
0.6420	33.656
0.6410	33.697
0.6400	33.697
0.6390	33.881
0.6380	33.853
0.6370	33.740
0.6360	33.697
0.6350	33.768
0.6340	33.740
0.6330	33.740
0.6320	33.768
0.6310	33.812
0.6300	33.768
0.6290	33.881
0.6280	33.896
0.6270	33.981
0.6260	33.938
0.6250	33.538
0.6240	33.482
0.6230	33.610
0.6220	33.438
0.6210	33.410
0.6200	33.410
0.6190	33.338
0.6180	33.522
0.6170	33.466
0.6160	33.538
0.6150	33.482
0.6140	33.610
0.6130	33.554
0.6120	33.454
0.6110	33.410
0.6100	33.438
0.6090	33.450
0.6080	33.366
0.6070	33.238
0.6060	33.366
0.6050	33.366
0.6040	33.422
0.6030	33.349
0.6020	33.048
0.6010	32.948
0.6000	32.985
0.5990	33.013
0.5980	32.967
0.5970	33.023
0.5960	32.820
0.5950	32.876
0.5940	32.802
0.5930	32.876
0.5920	32.959
0.5910	32.959
0.5900	32.959
0.5890	32.987
0.5880	32.857
0.5870	32.959
0.5860	32.698
0.5850	32.616
0.5840	32.755
0.5830	32.913
0.5820	32.774
0.5810	32.820
0.5800	32.710
0.5790	32.737
0.5780	32.508
0.5770	32.535
0.5760	32.719
0.5750	32.617
0.5740	32.636
0.5730	32.519
0.5720	32.584
0.5710	32.683
0.5700	32.756
0.5690	32.656
0.5680	32.476
0.5670	32.638
0.5660	32.747
0.5650	32.445
0.5640	32.264
0.5630	32.345
0.5620	32.272
0.5610	32.298
0.5600	32.205
0.5590	32.158
0.5580	32.158
0.5570	32.226
0.5560	32.056
0.5550	31.864
0.5540	31.772
0.5530	31.728
0.5520	31.652
0.5510	31.701
0.5500	31.747
0.5490	31.556
0.5480	31.604
0.5470	31.553
0.5460	31.675
0.5450	31.553
0.5440	31.553
0.5430	31.260
0.5420	31.067
0.5410	31.333
0.5400	31.141
0.5390	31.115
0.5380	31.284
0.5370	31.236
0.5360	31.163
0.5350	31.185
0.5340	31.310
0.5330	31.211
0.5320	31.043
0.5310	31.017
0.5300	30.942
0.5290	31.063
0.5280	30.844
0.5270	30.530
0.5260	30.432
0.5250	30.352
0.5240	30.402
0.5230	30.481
0.5220	30.219
0.5210	30.122
0.5200	30.216
0.5190	30.309
0.5180	30.407
0.5170	30.213
0.5160	30.259
0.5150	30.109
0.5140	29.897
0.5130	29.845
0.5120	29.867
0.5110	29.745
0.5100	29.289
0.5090	29.627
0.5080	29.218
0.5070	29.186
0.5060	29.251
0.5050	29.160
0.5040	28.902
0.5030	28.782
0.5020	28.751
0.5010	28.740
0.5000	29.055
0.4990	29.055
0.4980	28.674
0.4970	28.696
0.4960	28.555
0.4950	28.362
0.4940	28.140
0.4930	28.373
0.4920	28.339
0.4910	28.143
0.4900	28.110
0.4890	27.993
0.4880	28.110
0.4870	27.991
0.4860	27.977
0.4850	27.798
0.4840	27.700
0.4830	27.584
0.4820	27.680
0.4810	27.700
0.4800	27.428
0.4790	27.406
0.4780	27.390
0.4770	27.272
0.4760	27.272
0.4750	26.981
0.4740	27.098
0.4730	26.923
0.4720	26.884
0.4710	26.786
0.4700	26.982
0.4690	26.982
0.4680	26.942
0.4670	26.903
0.4660	26.512
0.4650	26.728
0.4640	26.631
0.4630	26.690
0.4620	26.633
0.4610	26.340
0.4600	26.262
0.4590	26.637
0.4580	26.667
0.4570	26.698
0.4560	26.717
0.4550	26.635
0.4540	26.517
0.4530	26.535
0.4520	26.609
0.4510	26.509
0.4500	26.464
0.4490	26.472
0.4480	26.345
0.4470	26.262
0.4460	26.113
0.4450	26.166
0.4440	26.033
0.4430	26.051
0.4420	25.989
0.4410	25.726
0.4400	25.608
0.4390	25.489
0.4380	25.440
0.4370	25.524
0.4360	25.524
0.4350	25.490
0.4340	25.234
0.4330	25.099
0.4320	25.063
0.4310	25.080
0.4300	24.992
0.4290	24.927
0.4280	24.516
0.4270	24.611
0.4260	24.446
0.4250	24.520
0.4240	23.904
0.4230	24.053
0.4220	23.892
0.4210	23.685
0.4200	23.817
0.4190	23.639
0.4180	23.845
0.4170	23.523
0.4160	23.321
0.4150	23.144
0.4140	23.218
0.4130	23.273
0.4120	23.259
0.4110	22.988
0.4100	23.014
0.4090	22.913
0.4080	22.913
0.4070	22.863
0.4060	22.597
0.4050	22.571
0.4040	22.509
0.4030	22.496
0.4020	22.419
0.4010	22.136
0.4000	22.002
