Name: Aplite
Type: Rocks
Class: Igneous
Subclass: Felsic
Particle Size: 0-75 micrometers
Sample No.: Aplite.H1
Owner: JHU
Wavelength range: All
Origin: From Boulder County, Colorado via Ward's Scientific (Cat. No. W-
101)
Description: Powder derived from sample: fine-grained to medium-grained 
leucocratic rock composed of quartz, feldspar, micas and opaques.




Measurement: Directional (10 degree) hemispherical reflectance
First Column: X
Second Column: Y
X Units: Wavelength (micrometers)
Y Units: Reflectance (percent)
First X Value: 14.0112
Last X Value: 0.4000
Number of X Values: 2844
Additional information:	see file aplite1a.doc

14.011	1.5075
13.973	1.4888
13.936	2.3925
13.899	1.9688
13.861	1.2037
13.824	2.5387
13.788	2.9213
13.751	2.8950
13.715	3.2100
13.679	2.6569
13.643	2.3400
13.607	3.1218
13.571	3.5700
13.536	2.9418
13.500	2.3268
13.465	2.2837
13.430	2.8894
13.396	2.9831
13.361	2.6119
13.327	2.6700
13.293	2.5800
13.259	2.6175
13.225	2.5135
13.191	2.3512
13.158	2.2650
13.124	2.1459
13.091	2.1712
13.058	2.2631
13.026	2.1684
12.993	1.9659
12.960	2.0231
12.928	2.0906
12.896	1.8787
12.864	1.9135
12.832	2.0611
12.800	1.9716
12.769	1.9678
12.737	1.9050
12.706	1.7868
12.675	1.7255
12.644	1.8825
12.614	2.0062
12.583	1.9359
12.552	1.9932
12.522	2.2711
12.492	2.5725
12.462	2.6916
12.432	2.6813
12.402	2.6986
12.373	2.7740
12.343	2.9301
12.314	3.1795
12.285	3.4673
12.256	4.0436
12.227	4.4728
12.198	4.7506
12.169	5.2568
12.141	5.7274
12.113	6.1116
12.084	6.4504
12.056	6.7210
12.028	7.0755
12.000	7.2605
11.973	7.3990
11.945	7.5836
11.918	7.7100
11.890	7.8576
11.863	7.8665
11.836	7.8347
11.809	7.8852
11.782	7.9231
11.755	7.9465
11.729	7.9455
11.702	7.8839
11.676	7.8921
11.650	7.9293
11.624	7.8802
11.598	7.9231
11.572	7.8785
11.546	7.7756
11.520	7.7449
11.495	7.8182
11.469	7.8396
11.444	7.7890
11.419	7.7320
11.394	7.7296
11.369	7.7145
11.344	7.6743
11.319	7.6284
11.294	7.5122
11.270	7.4070
11.245	7.3455
11.221	7.2342
11.197	7.0355
11.173	6.8623
11.149	6.7176
11.125	6.5480
11.101	6.4078
11.077	6.2925
11.054	6.0853
11.030	5.9062
11.007	5.8096
10.983	5.7037
10.960	5.6166
10.937	5.4881
10.914	5.3644
10.891	5.2332
10.868	5.0808
10.846	4.9683
10.823	4.8989
10.800	4.8581
10.778	4.7714
10.756	4.6668
10.733	4.5267
10.711	4.3971
10.689	4.3242
10.667	4.2457
10.645	4.1906
10.623	4.1501
10.602	4.1011
10.580	4.0735
10.558	4.0050
10.537	3.9257
10.516	3.9117
10.494	3.8716
10.473	3.7950
10.452	3.7786
10.431	3.7664
10.410	3.7260
10.389	3.6780
10.368	3.6504
10.348	3.6298
10.327	3.6436
10.306	3.6436
10.286	3.6244
10.266	3.6262
10.245	3.6530
10.225	3.6851
10.205	3.6516
10.185	3.6764
10.165	3.7085
10.145	3.6904
10.125	3.6694
10.106	3.7031
10.086	3.7524
10.066	3.8184
10.047	3.8517
10.027	3.9014
10.008	3.9342
9.9887	3.9501
9.9695	3.9963
9.9504	4.0898
9.9313	4.1147
9.9123	4.1128
9.8934	4.1221
9.8746	4.0823
9.8558	4.0767
9.8371	4.0875
9.8185	4.0397
9.7999	3.9792
9.7814	3.9080
9.7630	3.8864
9.7447	3.9375
9.7264	3.9607
9.7082	3.9896
9.6900	3.9698
9.6719	3.9155
9.6539	3.9468
9.6360	4.0114
9.6181	4.0338
9.6003	3.9787
9.5825	3.9372
9.5649	3.9792
9.5472	4.0003
9.5297	3.9979
9.5122	4.0017
9.4948	3.9881
9.4774	3.9722
9.4601	4.0153
9.4429	4.0655
9.4257	4.0823
9.4086	4.1873
9.3916	4.4184
9.3746	4.6647
9.3577	4.8642
9.3408	5.0503
9.3240	5.1753
9.3073	5.2763
9.2906	5.3257
9.2740	5.3527
9.2574	5.3854
9.2409	5.3213
9.2245	5.2563
9.2081	5.2865
9.1918	5.2732
9.1755	5.1782
9.1593	5.0888
9.1431	5.0535
9.1270	5.0226
9.1110	4.9350
9.0950	4.8496
9.0791	4.8483
9.0632	4.8379
9.0474	4.7960
9.0316	4.7639
9.0159	4.7428
9.0003	4.7292
8.9847	4.7245
8.9691	4.7226
8.9536	4.7174
8.9382	4.7325
8.9228	4.7460
8.9075	4.7423
8.8922	4.7226
8.8770	4.7494
8.8618	4.7864
8.8467	4.7878
8.8316	4.7388
8.8166	4.7460
8.8016	4.7878
8.7867	4.7798
8.7718	4.7550
8.7570	4.7644
8.7423	4.7587
8.7275	4.7363
8.7129	4.7330
8.6982	4.7067
8.6837	4.6036
8.6692	4.5211
8.6547	4.3948
8.6403	4.2094
8.6259	4.1316
8.6116	4.2778
8.5973	4.5375
8.5830	4.7774
8.5688	4.9327
8.5547	5.0597
8.5406	5.1804
8.5266	5.2392
8.5126	5.2704
8.4986	5.3273
8.4847	5.3747
8.4708	5.3920
8.4570	5.4108
8.4432	5.4278
8.4295	5.4384
8.4158	5.4295
8.4022	5.4501
8.3886	5.4876
8.3750	5.5378
8.3615	5.5467
8.3481	5.5668
8.3347	5.6205
8.3213	5.6826
8.3079	5.6916
8.2946	5.7223
8.2814	5.8045
8.2682	5.8964
8.2550	5.9761
8.2419	6.0218
8.2288	6.0663
8.2158	6.0813
8.2028	6.0539
8.1898	6.0234
8.1769	5.9463
8.1640	5.7904
8.1512	5.6316
8.1384	5.4270
8.1256	5.1886
8.1129	4.9034
8.1002	4.6378
8.0876	4.4091
8.0750	4.1491
8.0624	3.9145
8.0499	3.7254
8.0374	3.5109
8.0250	3.3543
8.0126	3.2149
8.0002	3.0516
7.9879	2.8865
7.9756	2.7199
7.9634	2.5533
7.9512	2.3850
7.9390	2.2376
7.9268	2.0935
7.9147	1.9483
7.9027	1.8211
7.8906	1.6985
7.8786	1.6031
7.8667	1.5161
7.8548	1.4353
7.8429	1.3641
7.8310	1.3045
7.8192	1.2618
7.8075	1.2225
7.7957	1.1730
7.7840	1.1306
7.7723	1.1283
7.7607	1.1297
7.7491	1.1025
7.7375	1.0769
7.7260	1.0500
7.7145	1.0186
7.7031	1.0106
7.6916	0.9888
7.6802	0.9919
7.6689	0.9804
7.6575	0.9426
7.6462	0.9239
7.6350	0.9351
7.6238	0.9478
7.6126	0.9567
7.6014	0.9421
7.5903	0.9283
7.5792	0.9543
7.5681	0.9907
7.5571	1.0202
7.5461	1.0193
7.5351	1.0158
7.5242	1.0610
7.5133	1.1051
7.5024	1.1353
7.4916	1.1604
7.4807	1.1831
7.4700	1.2174
7.4592	1.2543
7.4485	1.3153
7.4378	1.3603
7.4272	1.3917
7.4165	1.4330
7.4059	1.4899
7.3954	1.5501
7.3848	1.5839
7.3743	1.6282
7.3639	1.6668
7.3534	1.7076
7.3430	1.7707
7.3326	1.8314
7.3223	1.8878
7.3119	1.9652
7.3016	2.0213
7.2914	2.0836
7.2811	2.1755
7.2709	2.2575
7.2607	2.3628
7.2506	2.4581
7.2404	2.5265
7.2303	2.6107
7.2203	2.7110
7.2102	2.8067
7.2002	2.8839
7.1902	2.9632
7.1803	3.0429
7.1703	3.1420
7.1604	3.2561
7.1506	3.3468
7.1407	3.4818
7.1309	3.6473
7.1211	3.7507
7.1113	3.8412
7.1016	3.9778
7.0919	4.0847
7.0822	4.1460
7.0725	4.2260
7.0629	4.3335
7.0533	4.3924
7.0437	4.4714
7.0341	4.5576
7.0246	4.6233
7.0151	4.6805
7.0056	4.7416
6.9962	4.8037
6.9867	4.8732
6.9773	4.9629
6.9679	5.0229
6.9586	5.0829
6.9493	5.1740
6.9400	5.2753
6.9307	5.4018
6.9214	5.4841
6.9122	5.5151
6.9030	5.5807
6.8938	5.6501
6.8847	5.7135
6.8755	5.7665
6.8664	5.7921
6.8573	5.8176
6.8483	5.8385
6.8393	5.8613
6.8302	5.9070
6.8213	5.9268
6.8123	5.9236
6.8034	5.9187
6.7944	5.9236
6.7855	5.9254
6.7767	5.9402
6.7678	5.9452
6.7590	5.9498
6.7502	5.9353
6.7414	5.9259
6.7327	5.9538
6.7239	5.9774
6.7152	6.0249
6.7065	6.0675
6.6979	6.1289
6.6892	6.2358
6.6806	6.3555
6.6720	6.4547
6.6634	6.5550
6.6549	6.6445
6.6464	6.7218
6.6378	6.7638
6.6294	6.7943
6.6209	6.8288
6.6124	6.8413
6.6040	6.8672
6.5956	6.8967
6.5872	6.8955
6.5789	6.8920
6.5705	6.9156
6.5622	6.9504
6.5539	6.9579
6.5457	6.9935
6.5374	7.1322
6.5292	7.3242
6.5209	7.5291
6.5128	7.7997
6.5046	8.0836
6.4964	8.3531
6.4883	8.5725
6.4802	8.7644
6.4721	8.9465
6.4640	9.1104
6.4560	9.2316
6.4480	9.3389
6.4399	9.4406
6.4320	9.4903
6.4240	9.5002
6.4160	9.4994
6.4081	9.4725
6.4002	9.3813
6.3923	9.2768
6.3844	9.1542
6.3766	9.0122
6.3687	8.8748
6.3609	8.7311
6.3531	8.5935
6.3454	8.4727
6.3376	8.3179
6.3299	8.1366
6.3221	7.9769
6.3144	7.8117
6.3068	7.6148
6.2991	7.4532
6.2914	7.3244
6.2838	7.1758
6.2762	7.0369
6.2686	6.8930
6.2611	6.7908
6.2535	6.6756
6.2460	6.5573
6.2385	6.4922
6.2310	6.4319
6.2235	6.3928
6.2160	6.3919
6.2086	6.3893
6.2011	6.4327
6.1937	6.5233
6.1863	6.6438
6.1790	6.8029
6.1716	7.0024
6.1643	7.2485
6.1570	7.5223
6.1496	7.7803
6.1424	8.0606
6.1351	8.3125
6.1278	8.5500
6.1206	8.8134
6.1134	9.0241
6.1062	9.2367
6.0990	9.4449
6.0918	9.6077
6.0847	9.7574
6.0776	9.9068
6.0704	10.037
6.0633	10.107
6.0563	10.139
6.0492	10.202
6.0421	10.246
6.0351	10.253
6.0281	10.279
6.0211	10.287
6.0141	10.284
6.0071	10.265
6.0002	10.208
5.9932	10.104
5.9863	9.9616
5.9794	9.8402
5.9725	9.7495
5.9657	9.6257
5.9588	9.4774
5.9520	9.3794
5.9451	9.3398
5.9383	9.3267
5.9315	9.3457
5.9247	9.4130
5.9180	9.5130
5.9112	9.6415
5.9045	9.8275
5.8978	10.022
5.8911	10.190
5.8844	10.359
5.8777	10.537
5.8711	10.681
5.8644	10.820
5.8578	10.979
5.8512	11.143
5.8446	11.262
5.8380	11.372
5.8314	11.498
5.8249	11.613
5.8184	11.690
5.8118	11.746
5.8053	11.796
5.7988	11.845
5.7923	11.936
5.7859	11.996
5.7794	12.023
5.7730	12.094
5.7666	12.156
5.7602	12.180
5.7538	12.188
5.7474	12.211
5.7410	12.265
5.7347	12.292
5.7283	12.315
5.7220	12.349
5.7157	12.336
5.7094	12.326
5.7031	12.296
5.6969	12.223
5.6906	12.144
5.6844	12.050
5.6782	11.917
5.6719	11.759
5.6657	11.567
5.6596	11.350
5.6534	11.130
5.6472	10.906
5.6411	10.690
5.6349	10.506
5.6288	10.350
5.6227	10.266
5.6166	10.217
5.6106	10.156
5.6045	10.124
5.5984	10.097
5.5924	10.088
5.5864	10.093
5.5804	10.085
5.5744	10.127
5.5684	10.191
5.5624	10.273
5.5564	10.392
5.5505	10.574
5.5445	10.793
5.5386	11.046
5.5327	11.343
5.5268	11.670
5.5209	11.990
5.5151	12.291
5.5092	12.597
5.5033	12.901
5.4975	13.188
5.4917	13.462
5.4859	13.721
5.4801	13.964
5.4743	14.192
5.4685	14.395
5.4628	14.568
5.4570	14.706
5.4513	14.805
5.4455	14.866
5.4398	14.877
5.4341	14.834
5.4284	14.731
5.4228	14.570
5.4171	14.337
5.4114	14.064
5.4058	13.704
5.4002	13.241
5.3945	12.788
5.3889	12.376
5.3833	11.969
5.3778	11.586
5.3722	11.304
5.3666	11.083
5.3611	10.908
5.3555	10.816
5.3500	10.785
5.3445	10.784
5.3390	10.827
5.3335	10.921
5.3280	11.024
5.3225	11.122
5.3171	11.212
5.3116	11.322
5.3062	11.463
5.3008	11.594
5.2954	11.748
5.2900	11.947
5.2846	12.146
5.2792	12.396
5.2738	12.712
5.2684	13.035
5.2631	13.361
5.2578	13.722
5.2524	14.101
5.2471	14.546
5.2418	15.009
5.2365	15.507
5.2312	16.049
5.2260	16.584
5.2207	17.081
5.2154	17.535
5.2102	17.908
5.2050	18.220
5.1998	18.500
5.1945	18.681
5.1893	18.821
5.1842	18.937
5.1790	19.020
5.1738	19.109
5.1686	19.184
5.1635	19.263
5.1584	19.356
5.1532	19.426
5.1481	19.484
5.1430	19.544
5.1379	19.607
5.1328	19.687
5.1277	19.782
5.1227	19.927
5.1176	20.074
5.1126	20.186
5.1075	20.287
5.1025	20.376
5.0975	20.348
5.0925	20.266
5.0875	20.177
5.0825	20.092
5.0775	20.008
5.0726	19.935
5.0676	19.893
5.0627	19.890
5.0577	19.921
5.0528	19.945
5.0479	19.976
5.0430	20.032
5.0380	20.102
5.0332	20.146
5.0283	20.158
5.0234	20.186
5.0185	20.230
5.0137	20.285
5.0088	20.366
5.0040	20.504
4.9992	20.662
4.9944	20.847
4.9896	21.090
4.9848	21.401
4.9800	21.784
4.9752	22.252
4.9704	22.801
4.9657	23.406
4.9609	24.017
4.9562	24.510
4.9514	24.899
4.9467	25.203
4.9420	25.430
4.9373	25.640
4.9326	25.851
4.9279	26.097
4.9232	26.423
4.9186	26.874
4.9139	27.428
4.9092	28.084
4.9046	28.818
4.9000	29.623
4.8953	30.482
4.8907	31.292
4.8861	32.005
4.8815	32.646
4.8769	33.199
4.8723	33.703
4.8678	34.150
4.8632	34.544
4.8586	34.903
4.8541	35.202
4.8495	35.475
4.8450	35.718
4.8405	35.926
4.8360	36.112
4.8315	36.284
4.8270	36.459
4.8225	36.610
4.8180	36.711
4.8135	36.783
4.8090	36.849
4.8046	36.896
4.8001	36.935
4.7957	36.977
4.7913	37.043
4.7868	37.065
4.7824	37.117
4.7780	37.195
4.7736	37.252
4.7692	37.332
4.7648	37.452
4.7605	37.595
4.7561	37.728
4.7517	37.880
4.7474	38.045
4.7431	38.228
4.7387	38.385
4.7344	38.470
4.7301	38.569
4.7258	38.621
4.7215	38.642
4.7172	38.652
4.7129	38.653
4.7086	38.666
4.7043	38.628
4.7000	38.534
4.6958	38.441
4.6915	38.374
4.6873	38.298
4.6831	38.271
4.6788	38.367
4.6746	38.535
4.6704	38.766
4.6662	39.029
4.6620	39.267
4.6578	39.521
4.6536	39.791
4.6495	40.031
4.6453	40.305
4.6411	40.604
4.6370	40.919
4.6328	41.192
4.6287	41.469
4.6246	41.764
4.6205	42.043
4.6163	42.319
4.6122	42.578
4.6081	42.820
4.6040	43.077
4.6000	43.289
4.5959	43.522
4.5918	43.738
4.5877	43.906
4.5837	44.119
4.5796	44.306
4.5756	44.488
4.5716	44.680
4.5675	44.869
4.5635	45.084
4.5595	45.294
4.5555	45.462
4.5515	45.590
4.5475	45.749
4.5435	45.850
4.5395	45.915
4.5356	45.976
4.5316	45.993
4.5276	45.984
4.5237	45.982
4.5197	45.946
4.5158	45.859
4.5119	45.768
4.5080	45.639
4.5040	45.494
4.5001	45.400
4.4962	45.361
4.4923	45.367
4.4884	45.389
4.4846	45.453
4.4807	45.516
4.4768	45.554
4.4730	45.627
4.4691	45.740
4.4652	45.876
4.4614	46.079
4.4576	46.345
4.4537	46.697
4.4499	47.037
4.4461	47.309
4.4423	47.549
4.4385	47.785
4.4347	47.981
4.4309	48.184
4.4271	48.426
4.4233	48.688
4.4196	48.932
4.4158	49.203
4.4120	49.456
4.4083	49.691
4.4045	49.951
4.4008	50.257
4.3971	50.593
4.3934	50.919
4.3896	51.240
4.3859	51.561
4.3822	51.876
4.3785	52.209
4.3748	52.529
4.3711	52.847
4.3674	53.173
4.3638	53.433
4.3601	53.703
4.3564	54.004
4.3528	54.264
4.3491	54.516
4.3455	54.757
4.3418	54.999
4.3382	55.228
4.3346	55.424
4.3310	55.585
4.3273	55.758
4.3237	55.934
4.3201	56.077
4.3165	56.194
4.3129	56.308
4.3094	56.378
4.3058	56.454
4.3022	56.535
4.2986	56.606
4.2951	56.708
4.2915	56.803
4.2880	56.897
4.2844	57.047
4.2809	57.204
4.2774	57.323
4.2738	57.482
4.2703	57.705
4.2668	57.954
4.2633	58.189
4.2598	58.383
4.2563	58.573
4.2528	58.679
4.2493	58.700
4.2458	58.672
4.2424	58.679
4.2389	58.700
4.2354	58.726
4.2320	58.797
4.2285	58.940
4.2251	59.112
4.2216	59.249
4.2182	59.324
4.2148	59.453
4.2113	59.574
4.2079	59.669
4.2045	59.759
4.2011	59.830
4.1977	59.879
4.1943	59.946
4.1909	60.053
4.1875	60.192
4.1841	60.286
4.1808	60.401
4.1774	60.514
4.1740	60.615
4.1707	60.727
4.1673	60.844
4.1640	60.918
4.1606	60.964
4.1573	61.042
4.1540	61.153
4.1506	61.236
4.1473	61.331
4.1440	61.377
4.1407	61.425
4.1374	61.498
4.1341	61.585
4.1308	61.682
4.1275	61.767
4.1242	61.810
4.1209	61.924
4.1177	62.016
4.1144	62.091
4.1111	62.147
4.1079	62.234
4.1046	62.293
4.1014	62.356
4.0981	62.417
4.0949	62.504
4.0917	62.578
4.0884	62.683
4.0852	62.778
4.0820	62.790
4.0788	62.811
4.0756	62.851
4.0724	62.841
4.0692	62.891
4.0660	62.937
4.0628	62.964
4.0596	62.988
4.0565	62.947
4.0533	62.905
4.0501	62.904
4.0470	62.867
4.0438	62.790
4.0406	62.687
4.0375	62.607
4.0344	62.523
4.0312	62.445
4.0281	62.351
4.0250	62.249
4.0218	62.166
4.0187	62.051
4.0156	61.921
4.0125	61.832
4.0094	61.700
4.0063	61.522
4.0032	61.352
4.0001	61.182
3.9970	61.011
3.9940	60.838
3.9909	60.719
3.9878	60.644
3.9847	60.556
3.9817	60.515
3.9786	60.504
3.9756	60.557
3.9725	60.667
3.9695	60.757
3.9665	60.875
3.9634	61.029
3.9604	61.174
3.9574	61.326
3.9544	61.524
3.9513	61.759
3.9483	61.970
3.9453	62.170
3.9423	62.391
3.9393	62.628
3.9363	62.791
3.9333	62.847
3.9304	62.869
3.9274	62.961
3.9244	63.025
3.9214	63.053
3.9185	63.115
3.9155	63.179
3.9126	63.182
3.9096	63.196
3.9067	63.189
3.9037	63.206
3.9008	63.207
3.8979	63.236
3.8949	63.238
3.8920	63.223
3.8891	63.196
3.8862	63.171
3.8833	63.187
3.8804	63.176
3.8775	63.165
3.8746	63.140
3.8717	63.116
3.8688	63.109
3.8659	63.095
3.8630	63.138
3.8601	63.169
3.8573	63.166
3.8544	63.171
3.8515	63.198
3.8487	63.216
3.8458	63.230
3.8430	63.296
3.8401	63.338
3.8373	63.434
3.8344	63.513
3.8316	63.563
3.8288	63.641
3.8259	63.728
3.8231	63.849
3.8203	63.938
3.8175	64.006
3.8147	64.086
3.8119	64.158
3.8091	64.204
3.8063	64.275
3.8035	64.335
3.8007	64.384
3.7979	64.455
3.7951	64.492
3.7924	64.507
3.7896	64.551
3.7868	64.576
3.7841	64.588
3.7813	64.576
3.7785	64.540
3.7758	64.499
3.7730	64.498
3.7703	64.495
3.7676	64.473
3.7648	64.415
3.7621	64.378
3.7594	64.381
3.7566	64.367
3.7539	64.313
3.7512	64.282
3.7485	64.288
3.7458	64.287
3.7431	64.263
3.7404	64.253
3.7377	64.235
3.7350	64.239
3.7323	64.247
3.7296	64.290
3.7269	64.311
3.7242	64.269
3.7216	64.279
3.7189	64.369
3.7162	64.409
3.7136	64.403
3.7109	64.442
3.7083	64.466
3.7056	64.500
3.7030	64.519
3.7003	64.566
3.6977	64.615
3.6950	64.662
3.6924	64.696
3.6898	64.725
3.6872	64.736
3.6845	64.716
3.6819	64.720
3.6793	64.777
3.6767	64.854
3.6741	64.865
3.6715	64.855
3.6689	64.860
3.6663	64.895
3.6637	64.887
3.6611	64.879
3.6585	64.896
3.6560	64.916
3.6534	64.897
3.6508	64.873
3.6482	64.874
3.6457	64.890
3.6431	64.845
3.6406	64.837
3.6380	64.805
3.6355	64.749
3.6329	64.723
3.6304	64.775
3.6278	64.759
3.6253	64.690
3.6227	64.640
3.6202	64.626
3.6177	64.605
3.6152	64.606
3.6127	64.573
3.6101	64.506
3.6076	64.491
3.6051	64.468
3.6026	64.420
3.6001	64.398
3.5976	64.386
3.5951	64.355
3.5926	64.326
3.5901	64.303
3.5876	64.262
3.5852	64.218
3.5827	64.189
3.5802	64.131
3.5777	64.087
3.5753	64.056
3.5728	63.998
3.5704	63.969
3.5679	63.947
3.5654	63.899
3.5630	63.897
3.5605	63.882
3.5581	63.821
3.5557	63.784
3.5532	63.738
3.5508	63.704
3.5484	63.653
3.5459	63.555
3.5435	63.515
3.5411	63.463
3.5387	63.362
3.5363	63.250
3.5338	63.152
3.5314	63.053
3.5290	62.938
3.5266	62.811
3.5242	62.662
3.5218	62.460
3.5195	62.255
3.5171	62.090
3.5147	61.918
3.5123	61.724
3.5099	61.482
3.5075	61.307
3.5052	61.132
3.5028	60.969
3.5004	60.853
3.4981	60.794
3.4957	60.771
3.4934	60.780
3.4910	60.776
3.4887	60.755
3.4863	60.688
3.4840	60.593
3.4816	60.540
3.4793	60.507
3.4770	60.472
3.4746	60.483
3.4723	60.515
3.4700	60.569
3.4677	60.691
3.4653	60.772
3.4630	60.749
3.4607	60.785
3.4584	60.817
3.4561	60.817
3.4538	60.749
3.4515	60.692
3.4492	60.629
3.4469	60.539
3.4446	60.429
3.4423	60.392
3.4400	60.304
3.4378	60.181
3.4355	60.072
3.4332	59.969
3.4309	59.813
3.4287	59.652
3.4264	59.461
3.4241	59.229
3.4219	59.031
3.4196	58.896
3.4174	58.774
3.4151	58.730
3.4129	58.672
3.4106	58.668
3.4084	58.693
3.4061	58.710
3.4039	58.766
3.4017	58.822
3.3994	58.846
3.3972	58.866
3.3950	58.868
3.3928	58.899
3.3906	58.854
3.3883	58.796
3.3861	58.754
3.3839	58.712
3.3817	58.612
3.3795	58.515
3.3773	58.495
3.3751	58.461
3.3729	58.401
3.3707	58.369
3.3685	58.365
3.3663	58.341
3.3641	58.308
3.3620	58.285
3.3598	58.208
3.3576	58.140
3.3554	58.129
3.3533	58.078
3.3511	58.057
3.3489	58.068
3.3468	58.026
3.3446	58.057
3.3425	58.139
3.3403	58.232
3.3382	58.286
3.3360	58.336
3.3339	58.379
3.3317	58.312
3.3296	58.237
3.3274	58.232
3.3253	58.208
3.3232	58.164
3.3210	58.112
3.3189	58.050
3.3168	57.951
3.3147	57.885
3.3126	57.853
3.3104	57.798
3.3083	57.719
3.3062	57.661
3.3041	57.583
3.3020	57.519
3.2999	57.476
3.2978	57.413
3.2957	57.315
3.2936	57.227
3.2915	57.133
3.2894	57.054
3.2874	56.982
3.2853	56.917
3.2832	56.813
3.2811	56.746
3.2790	56.673
3.2770	56.559
3.2749	56.456
3.2728	56.407
3.2708	56.341
3.2687	56.263
3.2666	56.193
3.2646	56.075
3.2625	55.962
3.2605	55.901
3.2584	55.796
3.2564	55.666
3.2543	55.562
3.2523	55.501
3.2503	55.423
3.2482	55.341
3.2462	55.211
3.2442	55.134
3.2421	55.060
3.2401	54.939
3.2381	54.784
3.2361	54.683
3.2340	54.619
3.2320	54.519
3.2300	54.416
3.2280	54.255
3.2260	54.127
3.2240	54.089
3.2220	53.993
3.2200	53.872
3.2180	53.772
3.2160	53.636
3.2140	53.522
3.2120	53.412
3.2100	53.296
3.2080	53.221
3.2060	53.093
3.2041	52.936
3.2021	52.802
3.2001	52.698
3.1981	52.599
3.1961	52.476
3.1942	52.356
3.1922	52.264
3.1902	52.200
3.1883	52.069
3.1863	51.911
3.1844	51.761
3.1824	51.680
3.1805	51.648
3.1785	51.533
3.1766	51.403
3.1746	51.280
3.1727	51.196
3.1707	51.122
3.1688	50.991
3.1669	50.876
3.1649	50.778
3.1630	50.687
3.1611	50.627
3.1591	50.485
3.1572	50.392
3.1553	50.302
3.1534	50.211
3.1515	50.101
3.1495	49.969
3.1476	49.868
3.1457	49.800
3.1438	49.719
3.1419	49.647
3.1400	49.514
3.1381	49.396
3.1362	49.285
3.1343	49.173
3.1324	49.110
3.1305	49.068
3.1286	48.995
3.1268	48.873
3.1249	48.769
3.1230	48.681
3.1211	48.577
3.1192	48.471
3.1173	48.387
3.1155	48.354
3.1136	48.313
3.1117	48.223
3.1099	48.103
3.1080	48.009
3.1061	47.931
3.1043	47.868
3.1024	47.835
3.1006	47.764
3.0987	47.651
3.0969	47.557
3.0950	47.563
3.0932	47.499
3.0913	47.386
3.0895	47.314
3.0876	47.260
3.0858	47.253
3.0840	47.227
3.0821	47.155
3.0803	47.057
3.0785	46.984
3.0766	46.950
3.0748	46.910
3.0730	46.848
3.0712	46.761
3.0694	46.686
3.0675	46.680
3.0657	46.695
3.0639	46.607
3.0621	46.541
3.0603	46.521
3.0585	46.488
3.0567	46.453
3.0549	46.377
3.0531	46.321
3.0513	46.308
3.0495	46.315
3.0477	46.294
3.0459	46.248
3.0441	46.200
3.0423	46.169
3.0406	46.125
3.0388	46.089
3.0370	46.048
3.0352	46.048
3.0334	46.035
3.0317	46.010
3.0299	45.932
3.0281	45.924
3.0264	45.910
3.0246	45.810
3.0228	45.737
3.0211	45.780
3.0193	45.767
3.0176	45.721
3.0158	45.696
3.0140	45.617
3.0123	45.584
3.0105	45.596
3.0088	45.524
3.0070	45.480
3.0053	45.419
3.0036	45.366
3.0018	45.360
3.0001	45.340
2.9984	45.307
2.9966	45.284
2.9949	45.246
2.9932	45.173
2.9914	45.138
2.9897	45.111
2.9880	45.061
2.9863	45.013
2.9845	44.952
2.9828	44.903
2.9811	44.875
2.9794	44.898
2.9777	44.894
2.9760	44.813
2.9743	44.732
2.9726	44.674
2.9709	44.661
2.9692	44.620
2.9675	44.580
2.9658	44.523
2.9641	44.530
2.9624	44.529
2.9607	44.451
2.9590	44.418
2.9573	44.370
2.9556	44.362
2.9539	44.402
2.9523	44.410
2.9506	44.401
2.9489	44.372
2.9472	44.338
2.9455	44.357
2.9439	44.320
2.9422	44.322
2.9405	44.308
2.9389	44.321
2.9372	44.325
2.9355	44.341
2.9339	44.381
2.9322	44.415
2.9306	44.433
2.9289	44.442
2.9272	44.454
2.9256	44.455
2.9239	44.450
2.9223	44.456
2.9206	44.500
2.9190	44.573
2.9174	44.647
2.9157	44.651
2.9141	44.662
2.9124	44.694
2.9108	44.694
2.9092	44.739
2.9075	44.803
2.9059	44.860
2.9043	44.901
2.9027	44.955
2.9010	45.006
2.8994	45.032
2.8978	45.049
2.8962	45.098
2.8946	45.149
2.8929	45.200
2.8913	45.225
2.8897	45.240
2.8881	45.309
2.8865	45.318
2.8849	45.387
2.8833	45.425
2.8817	45.410
2.8801	45.489
2.8785	45.517
2.8769	45.554
2.8753	45.555
2.8737	45.630
2.8721	45.736
2.8705	45.755
2.8689	45.748
2.8673	45.785
2.8658	45.827
2.8642	45.927
2.8626	45.998
2.8610	45.965
2.8594	45.992
2.8579	46.041
2.8563	46.036
2.8547	46.033
2.8531	46.110
2.8516	46.125
2.8500	46.182
2.8484	46.199
2.8469	46.153
2.8453	46.204
2.8437	46.250
2.8422	46.320
2.8406	46.303
2.8391	46.322
2.8375	46.354
2.8360	46.394
2.8344	46.390
2.8329	46.352
2.8313	46.364
2.8298	46.374
2.8282	46.386
2.8267	46.383
2.8252	46.384
2.8236	46.399
2.8221	46.465
2.8205	46.464
2.8190	46.425
2.8175	46.423
2.8159	46.424
2.8144	46.440
2.8129	46.419
2.8114	46.382
2.8098	46.414
2.8083	46.394
2.8068	46.410
2.8053	46.437
2.8038	46.446
2.8022	46.476
2.8007	46.473
2.7992	46.443
2.7977	46.421
2.7962	46.398
2.7947	46.394
2.7932	46.376
2.7917	46.320
2.7902	46.177
2.7887	46.060
2.7872	46.026
2.7857	45.979
2.7842	45.912
2.7827	45.829
2.7812	45.756
2.7797	45.752
2.7782	45.772
2.7767	45.771
2.7752	45.759
2.7738	45.755
2.7723	45.667
2.7708	45.602
2.7693	45.563
2.7678	45.429
2.7664	45.045
2.7649	44.314
2.7634	43.252
2.7619	42.721
2.7605	43.354
2.7590	44.305
2.7575	45.050
2.7561	45.600
2.7546	45.995
2.7531	46.295
2.7517	46.601
2.7502	46.917
2.7488	47.209
2.7473	47.405
2.7458	47.568
2.7444	47.768
2.7429	47.951
2.7415	48.027
2.7400	48.049
2.7386	48.114
2.7371	48.368
2.7357	48.749
2.7343	49.218
2.7328	49.763
2.7314	50.249
2.7299	50.581
2.7285	50.778
2.7271	50.936
2.7256	51.150
2.7242	51.564
2.7228	52.140
2.7213	52.785
2.7199	53.390
2.7185	53.798
2.7171	54.004
2.7156	53.950
2.7142	53.721
2.7128	53.435
2.7114	53.097
2.7100	52.696
2.7085	52.341
2.7071	52.195
2.7057	52.205
2.7043	52.477
2.7029	53.248
2.7015	54.587
2.7001	56.227
2.6987	57.800
2.6973	59.378
2.6959	60.714
2.6945	61.794
2.6931	62.765
2.6917	63.616
2.6903	64.311
2.6889	64.954
2.6875	65.491
2.6861	65.881
2.6847	66.287
2.6833	66.636
2.6819	66.873
2.6805	67.074
2.6791	67.285
2.6778	67.551
2.6764	67.684
2.6750	67.711
2.6736	67.735
2.6722	68.026
2.6709	68.527
2.6695	69.072
2.6681	69.593
2.6667	70.067
2.6654	70.352
2.6640	70.560
2.6626	70.682
2.6613	70.739
2.6599	70.806
2.6585	70.917
2.6572	70.961
2.6558	71.049
2.6545	71.198
2.6531	71.224
2.6517	71.271
2.6504	71.322
2.6490	71.414
2.6477	71.534
2.6463	71.481
2.6450	71.489
2.6436	71.559
2.6423	71.676
2.6409	71.759
2.6396	71.720
2.6382	71.648
2.6369	71.666
2.6356	71.819
2.6342	71.902
2.6329	71.895
2.6315	71.934
2.6302	72.026
2.6289	71.967
2.6275	71.962
2.6262	72.012
2.6249	72.011
2.6236	71.955
2.6222	71.996
2.6209	72.081
2.6196	72.116
2.6183	72.072
2.6169	72.085
2.6156	72.120
2.6143	72.036
2.6130	72.027
2.6117	72.138
2.6103	72.144
2.6090	72.094
2.6077	72.164
2.6064	72.242
2.6051	72.338
2.6038	72.285
2.6025	72.208
2.6012	72.246
2.5999	72.253
2.5986	72.160
2.5973	72.233
2.5960	72.364
2.5947	72.389
2.5934	72.321
2.5921	72.284
2.5908	72.163
2.5895	72.120
2.5882	72.280
2.5869	72.340
2.5856	72.329
2.5843	72.351
2.5830	72.331
2.5817	72.280
2.5805	72.214
2.5792	72.242
2.5779	72.274
2.5766	72.290
2.5753	72.296
2.5741	72.356
2.5728	72.313
2.5715	72.289
2.5702	72.347
2.5690	72.404
2.5677	72.391
2.5664	72.384
2.5651	72.403
2.5639	72.407
2.5626	72.411
2.5613	72.355
2.5601	72.305
2.5588	72.350
2.5575	72.443
2.5563	72.384
2.5550	72.303
2.5538	72.412
2.5525	72.370
2.5513	72.278
2.5500	72.277
2.5487	72.292
2.5475	72.254
2.5462	72.328
2.5450	72.427
2.5437	72.339
2.5425	72.276
2.5413	72.312
2.5400	72.398
2.5388	72.468
2.5375	72.415
2.5363	72.355
2.5350	72.323
2.5338	72.328
2.5326	72.404
2.5313	72.349
2.5301	72.344
2.5289	72.403
2.5276	72.482
2.5264	72.533
2.5252	72.544
2.5239	72.532
2.5227	72.437
2.5215	72.386
2.5202	72.442
2.5190	72.456
2.5178	72.445
2.5166	72.477
2.5154	72.484
2.5141	72.379
2.5129	72.422
2.5117	72.492
2.5105	72.515
2.5093	72.549
2.5081	72.541
2.5068	72.539
2.5056	72.562
2.5044	72.545
2.5032	72.572
2.5020	72.576
2.5008	72.538
2.4996	72.496
2.4984	72.552
2.4972	72.615
2.4960	72.590
2.4948	72.524
2.4936	72.562
2.4924	72.618
2.4912	72.609
2.4900	72.585
2.4888	72.559
2.4876	72.578
2.4864	72.613
2.4852	72.589
2.4840	72.643
2.4828	72.696
2.4816	72.584
2.4805	72.628
2.4793	72.746
2.4781	72.746
2.4769	72.684
2.4757	72.618
2.4745	72.621
2.4734	72.720
2.4722	72.721
2.4710	72.776
2.4698	72.794
2.4686	72.734
2.4675	72.692
2.4663	72.753
2.4651	72.740
2.4640	72.740
2.4628	72.740
2.4616	72.775
2.4604	72.807
2.4593	72.839
2.4581	72.799
2.4569	72.840
2.4558	72.915
2.4546	72.876
2.4535	72.833
2.4523	72.864
2.4511	72.876
2.4500	72.908
2.4488	72.959
2.4477	72.878
2.4465	72.852
2.4454	72.919
2.4442	72.876
2.4431	72.788
2.4419	72.778
2.4408	72.797
2.4396	72.814
2.4385	72.871
2.4373	72.864
2.4362	72.926
2.4350	72.989
2.4339	73.010
2.4327	72.990
2.4316	73.000
2.4305	73.076
2.4293	73.039
2.4282	72.962
2.4270	72.965
2.4259	73.091
2.4248	73.039
2.4236	72.977
2.4225	73.060
2.4214	73.095
2.4202	73.086
2.4191	73.065
2.4180	73.170
2.4169	73.170
2.4157	73.062
2.4146	73.067
2.4135	73.139
2.4124	73.176
2.4112	73.193
2.4101	73.176
2.4090	73.132
2.4079	73.144
2.4068	73.162
2.4056	73.234
2.4045	73.163
2.4034	73.065
2.4023	73.140
2.4012	73.209
2.4001	73.144
2.3990	73.166
2.3979	73.257
2.3967	73.253
2.3956	73.173
2.3945	73.161
2.3934	73.195
2.3923	73.265
2.3912	73.327
2.3901	73.266
2.3890	73.122
2.3879	73.015
2.3868	72.922
2.3857	73.129
2.3846	73.217
2.3835	73.199
2.3824	73.204
2.3813	73.227
2.3802	73.228
2.3791	73.182
2.3781	73.176
2.3770	73.222
2.3759	73.225
2.3748	73.307
2.3737	73.285
2.3726	73.175
2.3715	73.139
2.3704	73.151
2.3694	73.222
2.3683	73.163
2.3672	73.189
2.3661	73.322
2.3650	73.253
2.3640	73.195
2.3629	73.318
2.3618	73.292
2.3607	73.212
2.3597	73.223
2.3586	73.200
2.3575	73.249
2.3564	73.207
2.3554	73.178
2.3543	73.144
2.3532	73.225
2.3522	73.171
2.3511	73.147
2.3500	73.249
2.3490	73.193
2.3479	73.211
2.3468	73.356
2.3458	73.325
2.3447	73.273
2.3436	73.315
2.3426	73.252
2.3415	73.265
2.3405	73.320
2.3394	73.370
2.3384	73.393
2.3373	73.326
2.3363	73.290
2.3352	73.309
2.3342	73.281
2.3331	73.369
2.3321	73.425
2.3310	73.350
2.3300	73.398
2.3289	73.416
2.3279	73.410
2.3268	73.414
2.3258	73.446
2.3247	73.485
2.3237	73.477
2.3226	73.454
2.3216	73.418
2.3206	73.465
2.3195	73.528
2.3185	73.491
2.3175	73.509
2.3164	73.535
2.3154	73.537
2.3144	73.539
2.3133	73.622
2.3123	73.609
2.3113	73.671
2.3102	73.710
2.3092	73.628
2.3082	73.513
2.3071	73.601
2.3061	73.631
2.3051	73.674
2.3041	73.638
2.3030	73.617
2.3020	73.665
2.3010	73.703
2.3000	73.660
2.2990	73.629
2.2979	73.609
2.2969	73.651
2.2959	73.632
2.2949	73.605
2.2939	73.588
2.2929	73.679
2.2918	73.655
2.2908	73.693
2.2898	73.720
2.2888	73.785
2.2878	73.794
2.2868	73.703
2.2858	73.665
2.2848	73.695
2.2838	73.737
2.2828	73.638
2.2818	73.612
2.2808	73.740
2.2798	73.862
2.2787	73.875
2.2777	73.645
2.2767	73.644
2.2757	73.723
2.2747	73.671
2.2738	73.665
2.2728	73.721
2.2718	73.664
2.2708	73.638
2.2698	73.635
2.2688	73.579
2.2678	73.602
2.2668	73.660
2.2658	73.635
2.2648	73.618
2.2638	73.599
2.2628	73.588
2.2618	73.556
2.2609	73.590
2.2599	73.644
2.2589	73.642
2.2579	73.549
2.2569	73.538
2.2559	73.584
2.2550	73.557
2.2540	73.491
2.2530	73.572
2.2520	73.461
2.2510	73.397
2.2501	73.502
2.2491	73.523
2.2481	73.580
2.2471	73.645
2.2462	73.641
2.2452	73.553
2.2442	73.480
2.2433	73.560
2.2423	73.669
2.2413	73.586
2.2403	73.598
2.2394	73.591
2.2384	73.676
2.2374	73.632
2.2365	73.549
2.2355	73.550
2.2345	73.635
2.2336	73.578
2.2326	73.513
2.2317	73.506
2.2307	73.496
2.2297	73.604
2.2288	73.697
2.2278	73.676
2.2269	73.598
2.2259	73.624
2.2250	73.643
2.2240	73.610
2.2231	73.629
2.2221	73.589
2.2211	73.564
2.2202	73.560
2.2192	73.528
2.2183	73.493
2.2173	73.477
2.2164	73.520
2.2155	73.459
2.2145	73.385
2.2136	73.315
2.2126	73.270
2.2117	73.266
2.2107	73.268
2.2098	73.280
2.2088	73.230
2.2079	73.135
2.2070	73.204
2.2060	73.328
2.2051	73.344
2.2041	73.268
2.2032	73.288
2.2023	73.302
2.2013	73.359
2.2004	73.440
2.1995	73.435
2.1985	73.335
2.1976	73.367
2.1967	73.453
2.1957	73.489
2.1948	73.477
2.1939	73.529
2.1930	73.616
2.1920	73.618
2.1911	73.615
2.1902	73.640
2.1893	73.684
2.1883	73.706
2.1874	73.686
2.1865	73.659
2.1856	73.611
2.1846	73.624
2.1837	73.655
2.1828	73.686
2.1819	73.832
2.1810	73.846
2.1800	73.774
2.1791	73.924
2.1782	73.946
2.1773	73.879
2.1764	73.866
2.1755	73.910
2.1746	73.946
2.1736	73.973
2.1727	73.903
2.1718	73.869
2.1709	73.888
2.1700	73.989
2.1691	73.982
2.1682	73.926
2.1673	73.888
2.1664	73.916
2.1655	73.879
2.1646	74.034
2.1637	74.015
2.1628	73.916
2.1619	73.958
2.1610	73.982
2.1601	73.963
2.1592	73.986
2.1583	73.980
2.1574	74.097
2.1565	74.068
2.1556	74.030
2.1547	73.993
2.1538	74.089
2.1529	74.122
2.1520	74.089
2.1511	74.066
2.1502	74.044
2.1493	73.999
2.1484	74.078
2.1475	74.122
2.1466	74.169
2.1458	74.156
2.1449	74.029
2.1440	74.068
2.1431	74.220
2.1422	74.147
2.1413	74.051
2.1404	74.078
2.1396	74.072
2.1387	74.085
2.1378	74.133
2.1369	74.102
2.1360	74.068
2.1352	74.162
2.1343	74.187
2.1334	74.106
2.1325	74.032
2.1316	74.077
2.1308	74.136
2.1299	74.134
2.1290	74.182
2.1281	74.248
2.1273	74.226
2.1264	74.162
2.1255	74.118
2.1247	74.020
2.1238	74.023
2.1229	74.113
2.1220	74.237
2.1212	74.256
2.1203	74.128
2.1194	74.155
2.1186	74.239
2.1177	74.188
2.1168	74.160
2.1160	74.108
2.1151	74.124
2.1143	74.049
2.1134	74.027
2.1125	74.044
2.1117	74.035
2.1108	74.105
2.1100	74.231
2.1091	74.222
2.1082	74.138
2.1074	74.102
2.1065	74.091
2.1057	74.017
2.1048	74.047
2.1040	74.087
2.1031	74.140
2.1023	74.128
2.1014	74.224
2.1005	74.173
2.0997	74.084
2.0988	74.136
2.0980	74.226
2.0971	74.143
2.0963	74.120
2.0955	74.115
2.0946	74.125
2.0938	74.048
2.0929	74.029
2.0921	74.047
2.0912	74.102
2.0904	74.173
2.0895	74.096
2.0887	73.973
2.0879	73.976
2.0870	73.998
2.0862	74.029
2.0853	74.032
2.0845	73.988
2.0837	74.074
2.0828	74.192
2.0820	74.115
2.0812	74.121
2.0803	74.016
2.0795	74.053
2.0760	74.053
2.0720	74.351
2.0680	74.306
2.0640	74.306
2.0600	73.936
2.0560	73.815
2.0520	73.819
2.0480	73.873
2.0440	73.186
2.0400	73.345
2.0360	73.076
2.0320	73.217
2.0280	73.076
2.0240	73.126
2.0200	72.818
2.0160	72.909
2.0120	72.406
2.0080	72.363
2.0040	72.009
2.0000	72.231
1.9960	72.140
1.9920	71.958
1.9880	72.009
1.9840	71.555
1.9800	71.310
1.9760	71.314
1.9720	71.607
1.9680	71.297
1.9640	70.961
1.9600	70.961
1.9560	70.973
1.9520	71.140
1.9480	71.061
1.9440	71.112
1.9400	70.953
1.9360	70.642
1.9320	70.254
1.9280	70.144
1.9240	70.162
1.9200	70.124
1.9160	70.442
1.9120	70.349
1.9080	70.154
1.9040	70.023
1.9000	70.231
1.8960	70.282
1.8920	70.305
1.8880	70.688
1.8840	70.394
1.8800	70.777
1.8760	71.221
1.8720	71.517
1.8680	71.049
1.8640	70.613
1.8600	70.329
1.8560	70.199
1.8520	70.599
1.8480	71.133
1.8440	71.028
1.8400	70.414
1.8360	70.236
1.8320	70.279
1.8280	70.698
1.8240	70.802
1.8200	70.614
1.8160	70.604
1.8120	70.318
1.8080	70.153
1.8040	70.365
1.8000	70.365
1.7960	70.630
1.7920	70.109
1.7880	70.012
1.7840	70.074
1.7800	69.678
1.7760	69.924
1.7720	70.074
1.7680	69.632
1.7640	69.613
1.7600	69.675
1.7560	69.702
1.7520	70.030
1.7480	70.358
1.7440	69.906
1.7400	70.030
1.7360	70.279
1.7320	70.520
1.7280	70.342
1.7240	70.342
1.7200	70.520
1.7160	70.128
1.7120	69.941
1.7080	69.677
1.7040	69.456
1.7000	69.482
1.6960	69.482
1.6920	69.509
1.6880	69.632
1.6840	69.333
1.6800	69.184
1.6760	69.306
1.6720	69.367
1.6680	69.191
1.6640	69.306
1.6600	69.069
1.6560	68.754
1.6520	69.058
1.6480	69.235
1.6440	69.296
1.6400	69.113
1.6360	68.798
1.6320	68.699
1.6280	68.704
1.6240	68.694
1.6200	68.704
1.6160	68.494
1.6120	68.286
1.6080	68.406
1.6040	68.982
1.6000	69.071
1.5960	69.153
1.5920	68.649
1.5880	68.346
1.5840	68.105
1.5800	67.898
1.5760	68.021
1.5720	68.105
1.5680	68.193
1.5640	68.218
1.5600	68.225
1.5560	68.073
1.5520	67.687
1.5480	68.102
1.5440	68.102
1.5400	68.042
1.5360	67.863
1.5320	67.687
1.5280	67.749
1.5240	67.661
1.5200	67.601
1.5160	67.542
1.5120	67.276
1.5080	67.276
1.5040	67.072
1.5000	67.015
1.4960	65.870
1.4920	66.778
1.4880	66.749
1.4840	66.895
1.4800	66.964
1.4760	67.041
1.4720	66.954
1.4680	66.818
1.4640	66.759
1.4600	66.468
1.4560	66.379
1.4520	66.554
1.4480	66.348
1.4440	66.317
1.4400	66.138
1.4360	66.403
1.4320	66.314
1.4280	66.148
1.4240	66.178
1.4200	66.031
1.4160	65.882
1.4120	65.905
1.4080	65.664
1.4040	65.283
1.4000	65.275
1.3960	65.368
1.3920	65.283
1.3880	65.368
1.3840	65.485
1.3800	65.450
1.3760	65.544
1.3720	65.145
1.3680	65.221
1.3640	65.177
1.3600	65.078
1.3560	65.168
1.3520	65.190
1.3480	65.090
1.3440	65.356
1.3400	64.823
1.3360	64.992
1.3320	64.706
1.3280	64.041
1.3240	63.978
1.3200	64.313
1.3160	64.626
1.3120	64.528
1.3080	64.610
1.3040	64.490
1.3000	64.458
1.2960	64.427
1.2920	64.420
1.2880	64.324
1.2840	64.252
1.2800	64.212
1.2760	63.822
1.2720	63.658
1.2680	63.285
1.2640	62.626
1.2600	63.282
1.2560	63.783
1.2520	63.638
1.2480	63.775
1.2440	63.709
1.2400	63.667
1.2360	63.856
1.2320	63.728
1.2280	63.751
1.2240	63.831
1.2200	63.563
1.2160	63.643
1.2120	62.935
1.2080	62.569
1.2040	62.459
1.2000	62.404
1.1960	62.240
1.1920	62.107
1.1880	62.087
1.1840	61.978
1.1800	61.770
1.1760	61.958
1.1720	62.012
1.1680	61.858
1.1640	61.931
1.1600	61.863
1.1560	61.726
1.1520	61.923
1.1480	61.923
1.1440	61.899
1.1400	61.924
1.1360	62.612
1.1320	62.281
1.1280	62.247
1.1240	61.987
1.1200	61.652
1.1160	61.667
1.1120	61.613
1.1080	61.588
1.1040	61.731
1.1000	61.839
1.0960	61.411
1.0920	61.642
1.0880	61.269
1.0840	61.376
1.0800	61.386
1.0760	61.510
1.0720	61.402
1.0680	61.332
1.0640	60.959
1.0600	61.065
1.0560	61.065
1.0520	61.491
1.0480	61.349
1.0440	60.800
1.0400	60.800
1.0360	61.012
1.0320	61.048
1.0280	61.564
1.0240	61.513
1.0200	61.137
1.0160	61.102
1.0120	60.818
1.0080	61.137
1.0040	61.180
1.0000	60.825
0.9960	60.825
0.9920	60.579
0.9880	60.747
0.9840	60.739
0.9800	60.582
0.9760	60.640
0.9720	60.296
0.9680	60.355
0.9640	60.286
0.9600	60.139
0.9560	60.217
0.9520	60.109
0.9480	60.198
0.9440	60.198
0.9400	60.305
0.9360	60.256
0.9320	60.197
0.9280	60.207
0.9240	60.246
0.9200	60.334
0.9160	60.334
0.9120	60.246
0.9080	60.777
0.9040	60.706
0.9000	60.852
0.8960	60.913
0.8920	61.001
0.8880	61.063
0.8840	61.042
0.8800	61.199
0.8760	61.464
0.8720	61.662
0.8680	61.662
0.8640	61.793
0.8600	61.921
0.8560	62.078
0.8520	62.078
0.8480	62.278
0.8440	62.234
0.8400	62.258
0.8360	62.479
0.8320	62.569
0.8280	62.680
0.8240	62.724
0.8200	62.968
0.8160	63.055
0.8120	62.967
0.8080	63.273
0.8040	63.272
0.8000	63.400
0.7990	63.600
0.7980	63.600
0.7970	63.214
0.7960	63.127
0.7950	63.409
0.7940	63.409
0.7930	63.270
0.7920	63.213
0.7910	63.039
0.7900	62.987
0.7890	63.122
0.7880	63.462
0.7870	63.370
0.7860	63.201
0.7850	63.309
0.7840	63.257
0.7830	63.292
0.7820	63.488
0.7810	63.660
0.7800	63.660
0.7790	63.607
0.7780	63.270
0.7770	63.527
0.7760	63.531
0.7750	63.557
0.7740	63.500
0.7730	63.336
0.7720	63.331
0.7710	63.209
0.7700	63.507
0.7690	63.560
0.7680	63.587
0.7670	63.699
0.7660	63.752
0.7650	63.645
0.7640	63.664
0.7630	63.464
0.7620	63.411
0.7610	63.288
0.7600	63.384
0.7590	63.315
0.7580	63.580
0.7570	63.517
0.7560	63.507
0.7550	63.384
0.7540	63.266
0.7530	63.560
0.7520	63.614
0.7510	63.560
0.7500	63.494
0.7490	63.595
0.7480	63.262
0.7470	63.236
0.7460	63.288
0.7450	63.491
0.7440	63.517
0.7430	63.992
0.7420	63.411
0.7410	63.483
0.7400	63.351
0.7390	63.580
0.7380	63.288
0.7370	63.448
0.7360	63.784
0.7350	63.421
0.7340	63.421
0.7330	63.166
0.7320	63.166
0.7310	63.185
0.7300	63.264
0.7290	63.080
0.7280	63.510
0.7270	63.684
0.7260	63.591
0.7250	63.351
0.7240	63.510
0.7230	63.398
0.7220	63.344
0.7210	63.634
0.7200	63.168
0.7190	63.185
0.7180	63.207
0.7170	62.913
0.7160	62.993
0.7150	63.099
0.7140	62.913
0.7130	63.062
0.7120	63.264
0.7110	63.398
0.7100	63.265
0.7090	63.036
0.7080	62.913
0.7070	63.314
0.7060	63.125
0.7050	63.301
0.7040	63.248
0.7030	63.285
0.7020	63.503
0.7010	63.473
0.7000	63.252
0.6990	62.880
0.6980	63.107
0.6970	62.944
0.6960	63.060
0.6950	63.035
0.6940	63.035
0.6930	63.134
0.6920	63.306
0.6910	63.123
0.6900	63.321
0.6890	63.123
0.6880	63.134
0.6870	62.926
0.6860	63.106
0.6850	62.908
0.6840	62.800
0.6830	62.998
0.6820	63.166
0.6810	62.926
0.6800	63.068
0.6790	63.112
0.6780	63.112
0.6770	62.826
0.6760	62.781
0.6750	62.808
0.6740	62.817
0.6730	63.017
0.6720	63.006
0.6710	62.808
0.6700	62.980
0.6690	62.979
0.6680	62.727
0.6670	62.484
0.6660	62.528
0.6650	62.573
0.6640	62.863
0.6630	62.817
0.6620	62.962
0.6610	63.061
0.6600	62.863
0.6590	62.808
0.6580	62.610
0.6570	62.411
0.6560	62.430
0.6550	62.510
0.6540	62.510
0.6530	62.331
0.6520	62.319
0.6510	62.500
0.6500	62.545
0.6490	62.465
0.6480	62.411
0.6470	62.609
0.6460	62.437
0.6450	62.438
0.6440	62.537
0.6430	62.510
0.6420	62.429
0.6410	62.464
0.6400	62.365
0.6390	62.446
0.6380	62.419
0.6370	62.311
0.6360	62.365
0.6350	62.338
0.6340	62.112
0.6330	62.311
0.6320	62.338
0.6310	62.284
0.6300	62.139
0.6290	62.047
0.6280	62.066
0.6270	62.046
0.6260	62.100
0.6250	62.000
0.6240	62.046
0.6230	62.173
0.6220	62.200
0.6210	61.973
0.6200	61.973
0.6190	61.900
0.6180	62.080
0.6170	62.026
0.6160	62.100
0.6150	62.046
0.6140	62.073
0.6130	61.920
0.6120	61.721
0.6110	61.973
0.6100	62.000
0.6090	61.906
0.6080	61.726
0.6070	61.700
0.6060	61.626
0.6050	61.726
0.6040	61.578
0.6030	61.504
0.6020	61.303
0.6010	61.203
0.6000	61.636
0.5990	61.663
0.5980	61.716
0.5970	61.769
0.5960	61.567
0.5950	61.620
0.5940	61.850
0.5930	61.518
0.5920	61.598
0.5910	61.904
0.5900	61.598
0.5890	61.625
0.5880	61.496
0.5870	61.394
0.5860	61.441
0.5850	61.362
0.5840	61.598
0.5830	61.550
0.5820	61.315
0.5810	61.567
0.5800	61.259
0.5790	61.285
0.5780	61.158
0.5770	61.285
0.5760	61.465
0.5750	61.567
0.5740	61.487
0.5730	61.478
0.5720	61.348
0.5710	61.348
0.5700	61.322
0.5690	61.421
0.5680	61.344
0.5670	61.400
0.5660	61.504
0.5650	61.203
0.5640	61.025
0.5630	61.103
0.5620	61.128
0.5610	61.054
0.5600	61.158
0.5590	60.906
0.5580	60.329
0.5570	60.494
0.5560	60.517
0.5550	60.517
0.5540	60.425
0.5530	60.285
0.5520	60.305
0.5510	60.064
0.5500	60.107
0.5490	59.914
0.5480	59.862
0.5470	59.912
0.5460	59.936
0.5450	59.912
0.5440	60.105
0.5430	60.008
0.5420	59.814
0.5410	59.982
0.5400	59.693
0.5390	59.764
0.5380	60.030
0.5370	59.886
0.5360	59.812
0.5350	59.932
0.5340	59.860
0.5330	59.860
0.5320	59.594
0.5310	59.665
0.5300	59.689
0.5290	59.514
0.5280	59.492
0.5270	59.375
0.5260	59.375
0.5250	59.492
0.5240	59.738
0.5230	59.424
0.5220	59.161
0.5210	59.161
0.5200	59.256
0.5190	59.154
0.5180	59.252
0.5170	59.058
0.5160	58.908
0.5150	58.954
0.5140	58.840
0.5130	59.081
0.5120	59.104
0.5110	59.275
0.5100	59.110
0.5090	58.863
0.5080	58.551
0.5070	58.520
0.5060	58.588
0.5050	58.690
0.5040	58.633
0.5030	58.610
0.5020	58.476
0.5010	58.371
0.5000	58.489
0.4990	58.489
0.4980	58.400
0.4970	58.520
0.4960	58.378
0.4950	58.282
0.4940	57.860
0.4930	58.192
0.4920	58.258
0.4910	58.258
0.4900	58.229
0.4890	57.915
0.4880	57.935
0.4870	58.011
0.4860	58.002
0.4850	57.817
0.4840	57.719
0.4830	57.903
0.4820	57.600
0.4810	57.621
0.4800	57.547
0.4790	57.621
0.4780	57.709
0.4770	57.687
0.4760	57.687
0.4750	57.396
0.4740	57.221
0.4730	57.046
0.4720	57.104
0.4710	57.104
0.4700	57.300
0.4690	57.104
0.4680	57.159
0.4670	57.321
0.4660	57.028
0.4650	56.950
0.4640	56.951
0.4630	56.909
0.4620	56.849
0.4610	56.849
0.4600	56.675
0.4590	57.056
0.4580	57.097
0.4570	57.039
0.4560	57.159
0.4550	57.079
0.4540	56.759
0.4530	56.579
0.4520	56.658
0.4510	56.558
0.4500	56.818
0.4490	56.619
0.4480	56.697
0.4470	56.515
0.4460	56.370
0.4450	56.327
0.4440	56.403
0.4430	56.320
0.4420	56.475
0.4410	56.187
0.4400	56.068
0.4390	56.149
0.4380	56.206
0.4370	55.893
0.4360	55.791
0.4350	55.764
0.4340	55.808
0.4330	55.670
0.4320	55.845
0.4310	55.659
0.4300	55.574
0.4290	55.603
0.4280	55.396
0.4270	55.400
0.4260	55.126
0.4250	55.298
0.4240	54.987
0.4230	55.143
0.4220	54.989
0.4210	54.782
0.4200	54.918
0.4190	54.831
0.4180	54.833
0.4170	54.712
0.4160	54.697
0.4150	54.524
0.4140	54.289
0.4130	54.252
0.4120	54.236
0.4110	54.055
0.4100	53.984
0.4090	54.086
0.4080	54.086
0.4070	53.944
0.4060	53.991
0.4050	53.756
0.4040	53.598
0.4030	53.481
0.4020	53.511
0.4010	53.437
0.4000	53.094
