Name: Spotted Hornfels 
Type:  Rocks
Class: Metamorphic 
Subclass: Hornfels 
Particle Size:  0-75 Micrometer
Sample No.:  hornfel3.doc
Owner:  JHU
Wavelength Range:  All
Origin:  Sample No. 472, The Hunt and Salisbury Collection at the U.S. 
Geological Survey, Denver, Co.
Description: This rock consists of a fine-grained to microcrystalline groundmass 
with a pleochroic brown phase (biotite?), opaques, cordierite and possibly some 
feldpsar.  Large porphyroblasts of cordierite with heavy concentrations of tiny 
sillimanite needles are rimmed with cordierite and opaque granules.


Measurement:  Directional (10 Degree) Hemispherical Reflectance
First Column:  X
Second Column:  Y  
X Units:  Wavelength (micrometers)
Y Units:  Reflectance (percent)
First X Value: 14.9831
Last X Value:  0.4
Number of X Values: 2868
Additional Information:  None

14.983	1.8626
14.940	1.9921
14.897	2.1394
14.854	2.2862
14.812	2.4226
14.770	2.5422
14.728	2.6424
14.686	2.7246
14.645	2.7857
14.603	2.8176
14.562	2.8186
14.521	2.7961
14.481	2.7594
14.441	2.7151
14.400	2.6694
14.361	2.6308
14.321	2.6071
14.281	2.6028
14.242	2.6189
14.203	2.6526
14.164	2.6947
14.126	2.7324
14.087	2.7537
14.049	2.7506
14.011	2.7213
13.973	2.6694
13.936	2.6038
13.899	2.5365
13.861	2.4785
13.824	2.4373
13.788	2.4155
13.751	2.4105
13.715	2.4160
13.679	2.4245
13.643	2.4304
13.607	2.4312
13.571	2.4276
13.536	2.4222
13.500	2.4169
13.465	2.4134
13.430	2.4105
13.396	2.4075
13.361	2.4025
13.327	2.3952
13.293	2.3866
13.259	2.3795
13.225	2.3764
13.191	2.3774
13.158	2.3812
13.124	2.3836
13.091	2.3800
13.058	2.3667
13.026	2.3435
12.993	2.3139
12.960	2.2839
12.928	2.2590
12.896	2.2436
12.864	2.2381
12.832	2.2403
12.800	2.2469
12.769	2.2550
12.737	2.2642
12.706	2.2770
12.675	2.2974
12.644	2.3291
12.614	2.3764
12.583	2.4425
12.552	2.5309
12.522	2.6450
12.492	2.7902
12.462	2.9706
12.432	3.1901
12.402	3.4492
12.373	3.7441
12.343	4.0671
12.314	4.4057
12.285	4.7456
12.256	5.0724
12.227	5.3755
12.198	5.6504
12.169	5.8988
12.141	6.1281
12.113	6.3483
12.084	6.5678
12.056	6.7914
12.028	7.0173
12.000	7.2392
11.973	7.4483
11.945	7.6354
11.918	7.7927
11.890	7.9156
11.863	8.0027
11.836	8.0551
11.809	8.0749
11.782	8.0655
11.755	8.0307
11.729	7.9750
11.702	7.9025
11.676	7.8178
11.650	7.7237
11.624	7.6231
11.598	7.5165
11.572	7.4048
11.546	7.2880
11.520	7.1672
11.495	7.0436
11.469	6.9183
11.444	6.7919
11.419	6.6640
11.394	6.5330
11.369	6.3985
11.344	6.2605
11.319	6.1207
11.294	5.9824
11.270	5.8491
11.245	5.7236
11.221	5.6071
11.197	5.4993
11.173	5.3994
11.149	5.3059
11.125	5.2173
11.101	5.1330
11.077	5.0522
11.054	4.9757
11.030	4.9040
11.007	4.8384
10.983	4.7806
10.960	4.7316
10.937	4.6908
10.914	4.6565
10.891	4.6262
10.868	4.5978
10.846	4.5698
10.823	4.5424
10.800	4.5163
10.778	4.4922
10.755	4.4701
10.733	4.4498
10.711	4.4301
10.689	4.4097
10.667	4.3877
10.645	4.3631
10.623	4.3349
10.602	4.3029
10.580	4.2677
10.558	4.2307
10.537	4.1931
10.516	4.1564
10.494	4.1199
10.473	4.0815
10.452	4.0379
10.431	3.9870
10.410	3.9276
10.389	3.8613
10.368	3.7924
10.348	3.7246
10.327	3.6624
10.306	3.6077
10.286	3.5615
10.266	3.5233
10.245	3.4928
10.225	3.4689
10.205	3.4511
10.185	3.4386
10.165	3.4305
10.145	3.4270
10.125	3.4274
10.106	3.4324
10.086	3.4416
10.066	3.4551
10.047	3.4729
10.027	3.4949
10.008	3.5207
9.9887	3.5501
9.9695	3.5828
9.9504	3.6174
9.9313	3.6522
9.9123	3.6839
9.8934	3.7104
9.8746	3.7301
9.8558	3.7422
9.8371	3.7483
9.8185	3.7507
9.7999	3.7512
9.7814	3.7519
9.7630	3.7533
9.7447	3.7561
9.7264	3.7611
9.7082	3.7687
9.6900	3.7808
9.6719	3.7981
9.6539	3.8201
9.6360	3.8445
9.6181	3.8670
9.6003	3.8840
9.5825	3.8928
9.5649	3.8928
9.5472	3.8864
9.5297	3.8774
9.5122	3.8689
9.4948	3.8639
9.4774	3.8641
9.4601	3.8708
9.4429	3.8861
9.4257	3.9134
9.4086	3.9546
9.3916	4.0114
9.3746	4.0813
9.3577	4.1587
9.3408	4.2359
9.3240	4.3041
9.3073	4.3572
9.2906	4.3906
9.2740	4.4043
9.2574	4.4007
9.2409	4.3842
9.2245	4.3593
9.2081	4.3299
9.1918	4.2982
9.1755	4.2658
9.1593	4.2328
9.1431	4.1995
9.1270	4.1656
9.1110	4.1315
9.0950	4.0983
9.0791	4.0661
9.0632	4.0351
9.0474	4.0046
9.0316	3.9731
9.0159	3.9397
9.0003	3.9039
8.9847	3.8665
8.9691	3.8293
8.9536	3.7943
8.9382	3.7632
8.9228	3.7377
8.9075	3.7178
8.8922	3.7040
8.8770	3.6960
8.8618	3.6939
8.8467	3.6984
8.8316	3.7085
8.8166	3.7235
8.8016	3.7405
8.7867	3.7566
8.7718	3.7682
8.7570	3.7725
8.7422	3.7666
8.7275	3.7490
8.7129	3.7197
8.6982	3.6806
8.6837	3.6375
8.6692	3.5987
8.6547	3.5754
8.6403	3.5783
8.6259	3.6140
8.6116	3.6832
8.5973	3.7798
8.5830	3.8928
8.5688	4.0088
8.5547	4.1170
8.5406	4.2106
8.5266	4.2871
8.5126	4.3477
8.4986	4.3955
8.4847	4.4346
8.4708	4.4673
8.4570	4.4957
8.4432	4.5215
8.4295	4.5457
8.4158	4.5703
8.4022	4.5966
8.3886	4.6271
8.3750	4.6629
8.3615	4.7048
8.3481	4.7527
8.3347	4.8048
8.3213	4.8592
8.3079	4.9146
8.2946	4.9696
8.2814	5.0243
8.2682	5.0790
8.2550	5.1335
8.2419	5.1870
8.2288	5.2362
8.2158	5.2767
8.2028	5.3018
8.1898	5.3047
8.1769	5.2786
8.1640	5.2197
8.1512	5.1271
8.1384	5.0037
8.1256	4.8559
8.1129	4.6925
8.1002	4.5225
8.0876	4.3548
8.0750	4.1961
8.0624	4.0507
8.0499	3.9210
8.0374	3.8068
8.0250	3.7066
8.0126	3.6178
8.0002	3.5378
7.9879	3.4625
7.9756	3.3888
7.9634	3.3145
7.9512	3.2394
7.9390	3.1643
7.9268	3.0926
7.9147	3.0275
7.9027	2.9718
7.8906	2.9273
7.8786	2.8944
7.8667	2.8714
7.8548	2.8574
7.8429	2.8515
7.8310	2.8536
7.8192	2.8638
7.8075	2.8825
7.7957	2.9093
7.7840	2.9431
7.7723	2.9825
7.7607	3.0256
7.7491	3.0713
7.7375	3.1193
7.7260	3.1691
7.7145	3.2209
7.7031	3.2752
7.6916	3.3315
7.6802	3.3895
7.6689	3.4480
7.6575	3.5072
7.6462	3.5669
7.6350	3.6283
7.6238	3.6929
7.6126	3.7623
7.6014	3.8371
7.5903	3.9172
7.5792	4.0008
7.5681	4.0867
7.5571	4.1732
7.5461	4.2587
7.5351	4.3427
7.5242	4.4249
7.5133	4.5059
7.5024	4.5859
7.4916	4.6665
7.4807	4.7486
7.4700	4.8336
7.4592	4.9222
7.4485	5.0146
7.4378	5.1105
7.4272	5.2088
7.4165	5.3085
7.4059	5.4093
7.3954	5.5107
7.3848	5.6137
7.3743	5.7186
7.3639	5.8269
7.3534	5.9396
7.3430	6.0577
7.3326	6.1814
7.3223	6.3100
7.3119	6.4435
7.3016	6.5816
7.2914	6.7251
7.2811	6.8750
7.2709	7.0322
7.2607	7.1966
7.2506	7.3664
7.2404	7.5388
7.2303	7.7100
7.2203	7.8779
7.2102	8.0416
7.2002	8.2021
7.1902	8.3624
7.1803	8.5254
7.1703	8.6937
7.1604	8.8692
7.1506	9.0504
7.1407	9.2356
7.1309	9.4212
7.1211	9.6026
7.1113	9.7758
7.1016	9.9370
7.0919	10.085
7.0822	10.220
7.0725	10.347
7.0629	10.472
7.0533	10.601
7.0437	10.741
7.0341	10.892
7.0246	11.052
7.0151	11.212
7.0056	11.370
6.9962	11.519
6.9867	11.660
6.9773	11.796
6.9679	11.930
6.9586	12.067
6.9493	12.205
6.9400	12.340
6.9307	12.467
6.9214	12.577
6.9122	12.664
6.9030	12.725
6.8938	12.762
6.8847	12.785
6.8755	12.804
6.8664	12.830
6.8573	12.869
6.8483	12.923
6.8393	12.984
6.8302	13.043
6.8213	13.095
6.8123	13.137
6.8034	13.176
6.7944	13.218
6.7855	13.270
6.7767	13.337
6.7678	13.410
6.7590	13.484
6.7502	13.550
6.7414	13.605
6.7327	13.651
6.7239	13.697
6.7152	13.754
6.7065	13.830
6.6979	13.930
6.6892	14.046
6.6806	14.167
6.6720	14.282
6.6634	14.381
6.6549	14.462
6.6464	14.533
6.6378	14.601
6.6294	14.672
6.6209	14.745
6.6124	14.811
6.6040	14.861
6.5956	14.893
6.5872	14.912
6.5789	14.931
6.5705	14.970
6.5622	15.041
6.5539	15.148
6.5456	15.284
6.5374	15.434
6.5292	15.581
6.5209	15.712
6.5128	15.826
6.5046	15.927
6.4964	16.028
6.4883	16.137
6.4802	16.254
6.4721	16.367
6.4640	16.457
6.4560	16.502
6.4480	16.488
6.4399	16.417
6.4320	16.306
6.4240	16.180
6.4160	16.064
6.4081	15.974
6.4002	15.910
6.3923	15.861
6.3844	15.812
6.3766	15.752
6.3687	15.679
6.3609	15.597
6.3531	15.513
6.3454	15.437
6.3376	15.369
6.3299	15.304
6.3221	15.234
6.3144	15.150
6.3068	15.047
6.2991	14.921
6.2914	14.775
6.2838	14.615
6.2762	14.449
6.2686	14.290
6.2611	14.148
6.2535	14.031
6.2460	13.943
6.2385	13.882
6.2310	13.840
6.2235	13.809
6.2160	13.783
6.2086	13.762
6.2011	13.750
6.1937	13.754
6.1863	13.783
6.1790	13.837
6.1716	13.911
6.1643	13.989
6.1570	14.053
6.1496	14.088
6.1424	14.090
6.1351	14.069
6.1278	14.052
6.1206	14.068
6.1134	14.142
6.1062	14.283
6.0990	14.479
6.0918	14.701
6.0847	14.915
6.0776	15.098
6.0704	15.246
6.0633	15.372
6.0563	15.498
6.0492	15.644
6.0421	15.822
6.0351	16.021
6.0281	16.222
6.0211	16.402
6.0141	16.547
6.0071	16.651
6.0002	16.719
5.9932	16.763
5.9863	16.796
5.9794	16.823
5.9725	16.841
5.9657	16.852
5.9588	16.859
5.9520	16.872
5.9451	16.905
5.9383	16.971
5.9315	17.076
5.9247	17.210
5.9180	17.357
5.9112	17.497
5.9045	17.624
5.8978	17.742
5.8911	17.866
5.8844	18.011
5.8777	18.186
5.8711	18.382
5.8644	18.579
5.8578	18.753
5.8512	18.883
5.8446	18.968
5.8380	19.019
5.8314	19.059
5.8249	19.111
5.8184	19.190
5.8118	19.292
5.8053	19.400
5.7988	19.492
5.7923	19.551
5.7859	19.573
5.7794	19.570
5.7730	19.562
5.7666	19.569
5.7602	19.603
5.7538	19.661
5.7474	19.730
5.7410	19.794
5.7347	19.840
5.7283	19.863
5.7220	19.865
5.7157	19.854
5.7094	19.838
5.7031	19.818
5.6969	19.793
5.6906	19.757
5.6844	19.705
5.6782	19.630
5.6719	19.533
5.6657	19.416
5.6596	19.286
5.6534	19.156
5.6472	19.037
5.6411	18.943
5.6349	18.879
5.6288	18.845
5.6227	18.837
5.6166	18.846
5.6106	18.866
5.6045	18.891
5.5984	18.924
5.5924	18.968
5.5864	19.029
5.5804	19.114
5.5744	19.225
5.5684	19.362
5.5624	19.523
5.5564	19.702
5.5505	19.897
5.5445	20.103
5.5386	20.318
5.5327	20.542
5.5268	20.773
5.5209	21.010
5.5151	21.248
5.5092	21.482
5.5033	21.707
5.4975	21.917
5.4917	22.110
5.4859	22.286
5.4801	22.451
5.4743	22.610
5.4685	22.764
5.4628	22.913
5.4570	23.051
5.4513	23.166
5.4455	23.248
5.4398	23.290
5.4341	23.289
5.4284	23.246
5.4228	23.165
5.4171	23.046
5.4114	22.889
5.4058	22.692
5.4002	22.455
5.3945	22.184
5.3889	21.888
5.3833	21.584
5.3778	21.291
5.3722	21.028
5.3666	20.815
5.3611	20.664
5.3555	20.580
5.3500	20.566
5.3445	20.613
5.3390	20.711
5.3335	20.843
5.3280	20.997
5.3225	21.162
5.3171	21.334
5.3116	21.512
5.3062	21.702
5.3008	21.909
5.2954	22.140
5.2900	22.400
5.2846	22.692
5.2792	23.016
5.2738	23.371
5.2684	23.754
5.2631	24.162
5.2578	24.593
5.2524	25.043
5.2471	25.509
5.2418	25.985
5.2365	26.464
5.2312	26.938
5.2260	27.397
5.2207	27.833
5.2154	28.241
5.2102	28.616
5.2050	28.957
5.1998	29.265
5.1945	29.543
5.1893	29.796
5.1842	30.027
5.1790	30.241
5.1738	30.440
5.1686	30.629
5.1635	30.809
5.1584	30.985
5.1532	31.158
5.1481	31.333
5.1430	31.511
5.1379	31.695
5.1328	31.882
5.1277	32.071
5.1227	32.256
5.1176	32.430
5.1126	32.583
5.1075	32.709
5.1025	32.803
5.0975	32.864
5.0925	32.898
5.0875	32.914
5.0825	32.925
5.0775	32.942
5.0726	32.975
5.0676	33.027
5.0627	33.099
5.0577	33.185
5.0528	33.278
5.0479	33.370
5.0430	33.454
5.0380	33.525
5.0332	33.582
5.0283	33.629
5.0234	33.672
5.0185	33.719
5.0137	33.778
5.0088	33.853
5.0040	33.951
4.9992	34.076
4.9944	34.233
4.9896	34.426
4.9848	34.659
4.9800	34.932
4.9752	35.240
4.9704	35.567
4.9657	35.896
4.9609	36.207
4.9562	36.480
4.9514	36.707
4.9467	36.889
4.9420	37.037
4.9373	37.168
4.9326	37.305
4.9279	37.465
4.9232	37.661
4.9186	37.902
4.9139	38.184
4.9092	38.498
4.9046	38.830
4.9000	39.164
4.8953	39.485
4.8907	39.781
4.8861	40.045
4.8815	40.276
4.8769	40.477
4.8723	40.654
4.8678	40.811
4.8632	40.951
4.8586	41.078
4.8541	41.192
4.8495	41.296
4.8450	41.391
4.8405	41.480
4.8360	41.564
4.8315	41.646
4.8270	41.724
4.8225	41.800
4.8180	41.872
4.8135	41.942
4.8090	42.009
4.8046	42.076
4.8001	42.144
4.7957	42.214
4.7913	42.286
4.7868	42.361
4.7824	42.437
4.7780	42.515
4.7736	42.594
4.7692	42.674
4.7648	42.755
4.7605	42.837
4.7561	42.918
4.7517	42.996
4.7474	43.072
4.7431	43.141
4.7387	43.204
4.7344	43.262
4.7301	43.313
4.7258	43.359
4.7215	43.399
4.7172	43.432
4.7129	43.458
4.7086	43.473
4.7043	43.478
4.7000	43.476
4.6958	43.471
4.6915	43.471
4.6873	43.483
4.6831	43.514
4.6788	43.569
4.6746	43.647
4.6704	43.745
4.6662	43.856
4.6620	43.973
4.6578	44.092
4.6536	44.211
4.6495	44.328
4.6453	44.444
4.6411	44.561
4.6370	44.678
4.6328	44.795
4.6287	44.913
4.6246	45.030
4.6205	45.148
4.6163	45.266
4.6122	45.385
4.6081	45.503
4.6040	45.620
4.6000	45.736
4.5959	45.851
4.5918	45.965
4.5877	46.081
4.5837	46.199
4.5796	46.321
4.5756	46.445
4.5716	46.573
4.5675	46.701
4.5635	46.828
4.5595	46.952
4.5555	47.069
4.5515	47.181
4.5475	47.285
4.5435	47.380
4.5395	47.467
4.5356	47.545
4.5316	47.615
4.5276	47.674
4.5237	47.724
4.5197	47.765
4.5158	47.796
4.5119	47.819
4.5080	47.837
4.5040	47.849
4.5001	47.859
4.4962	47.868
4.4923	47.879
4.4884	47.892
4.4846	47.910
4.4807	47.936
4.4768	47.970
4.4730	48.015
4.4691	48.075
4.4652	48.151
4.4614	48.243
4.4576	48.349
4.4537	48.466
4.4499	48.590
4.4461	48.713
4.4423	48.831
4.4385	48.943
4.4347	49.046
4.4309	49.142
4.4271	49.233
4.4233	49.322
4.4196	49.412
4.4158	49.505
4.4120	49.599
4.4083	49.693
4.4045	49.784
4.4008	49.867
4.3971	49.940
4.3934	50.004
4.3896	50.065
4.3859	50.130
4.3822	50.207
4.3785	50.302
4.3748	50.414
4.3711	50.535
4.3674	50.656
4.3638	50.765
4.3601	50.853
4.3564	50.916
4.3528	50.953
4.3491	50.971
4.3455	50.979
4.3418	50.987
4.3382	51.004
4.3346	51.036
4.3310	51.086
4.3273	51.152
4.3237	51.228
4.3201	51.306
4.3165	51.381
4.3129	51.445
4.3094	51.492
4.3058	51.513
4.3022	51.507
4.2986	51.489
4.2951	51.489
4.2915	51.533
4.2880	51.615
4.2844	51.671
4.2809	51.563
4.2774	51.107
4.2738	50.182
4.2703	48.827
4.2668	47.273
4.2633	45.902
4.2598	45.125
4.2563	45.224
4.2528	46.209
4.2493	47.813
4.2458	49.618
4.2424	51.218
4.2389	52.350
4.2354	52.954
4.2320	53.142
4.2285	53.111
4.2251	53.026
4.2216	52.973
4.2182	52.973
4.2148	53.005
4.2113	53.039
4.2079	53.054
4.2045	53.048
4.2011	53.027
4.1977	53.000
4.1943	52.974
4.1909	52.960
4.1875	52.966
4.1841	53.002
4.1808	53.069
4.1774	53.163
4.1740	53.275
4.1707	53.393
4.1673	53.503
4.1640	53.597
4.1606	53.672
4.1573	53.727
4.1540	53.767
4.1506	53.797
4.1473	53.824
4.1440	53.851
4.1407	53.878
4.1374	53.906
4.1341	53.934
4.1308	53.962
4.1275	53.989
4.1242	54.015
4.1209	54.042
4.1177	54.068
4.1144	54.095
4.1111	54.121
4.1079	54.146
4.1046	54.170
4.1014	54.192
4.0981	54.213
4.0949	54.232
4.0917	54.250
4.0884	54.269
4.0852	54.289
4.0820	54.309
4.0788	54.329
4.0756	54.347
4.0724	54.364
4.0692	54.380
4.0660	54.396
4.0628	54.411
4.0596	54.428
4.0565	54.445
4.0533	54.462
4.0501	54.479
4.0470	54.494
4.0438	54.507
4.0406	54.516
4.0375	54.524
4.0344	54.531
4.0312	54.539
4.0281	54.549
4.0250	54.561
4.0218	54.575
4.0187	54.591
4.0156	54.608
4.0125	54.625
4.0094	54.643
4.0063	54.660
4.0032	54.675
4.0001	54.687
3.9970	54.697
3.9940	54.706
3.9909	54.713
3.9878	54.722
3.9847	54.734
3.9817	54.749
3.9786	54.766
3.9756	54.783
3.9725	54.799
3.9695	54.813
3.9665	54.826
3.9634	54.837
3.9604	54.848
3.9574	54.860
3.9544	54.873
3.9513	54.887
3.9483	54.903
3.9453	54.919
3.9423	54.935
3.9393	54.951
3.9363	54.967
3.9333	54.982
3.9304	54.994
3.9274	55.004
3.9244	55.009
3.9214	55.009
3.9185	55.004
3.9155	54.996
3.9126	54.986
3.9096	54.977
3.9067	54.971
3.9037	54.967
3.9008	54.966
3.8979	54.965
3.8949	54.963
3.8920	54.957
3.8891	54.949
3.8862	54.938
3.8833	54.926
3.8804	54.914
3.8775	54.904
3.8746	54.895
3.8717	54.885
3.8688	54.873
3.8659	54.861
3.8630	54.846
3.8601	54.833
3.8573	54.820
3.8544	54.810
3.8515	54.800
3.8487	54.790
3.8458	54.780
3.8430	54.767
3.8401	54.752
3.8373	54.736
3.8344	54.720
3.8316	54.705
3.8288	54.693
3.8259	54.684
3.8231	54.678
3.8203	54.675
3.8175	54.674
3.8147	54.671
3.8119	54.667
3.8091	54.659
3.8063	54.648
3.8035	54.635
3.8007	54.620
3.7979	54.604
3.7951	54.588
3.7924	54.572
3.7896	54.555
3.7868	54.536
3.7841	54.516
3.7813	54.494
3.7785	54.471
3.7758	54.447
3.7730	54.423
3.7703	54.400
3.7676	54.377
3.7648	54.351
3.7621	54.321
3.7594	54.289
3.7566	54.253
3.7539	54.217
3.7512	54.182
3.7485	54.149
3.7458	54.120
3.7431	54.092
3.7404	54.065
3.7377	54.038
3.7350	54.009
3.7323	53.978
3.7296	53.945
3.7269	53.912
3.7242	53.878
3.7216	53.844
3.7189	53.811
3.7162	53.781
3.7136	53.754
3.7109	53.729
3.7083	53.707
3.7056	53.687
3.7030	53.669
3.7003	53.650
3.6977	53.631
3.6950	53.608
3.6924	53.584
3.6898	53.557
3.6872	53.529
3.6845	53.502
3.6819	53.475
3.6793	53.448
3.6767	53.419
3.6741	53.389
3.6715	53.357
3.6689	53.325
3.6663	53.292
3.6637	53.260
3.6611	53.229
3.6585	53.197
3.6560	53.164
3.6534	53.129
3.6508	53.093
3.6482	53.058
3.6457	53.023
3.6431	52.991
3.6406	52.960
3.6380	52.928
3.6355	52.897
3.6329	52.864
3.6304	52.831
3.6278	52.798
3.6253	52.765
3.6227	52.732
3.6202	52.698
3.6177	52.661
3.6152	52.623
3.6127	52.583
3.6101	52.542
3.6076	52.501
3.6051	52.462
3.6026	52.423
3.6001	52.383
3.5976	52.343
3.5951	52.301
3.5926	52.258
3.5901	52.215
3.5876	52.175
3.5852	52.137
3.5827	52.099
3.5802	52.061
3.5777	52.018
3.5753	51.968
3.5728	51.914
3.5704	51.858
3.5679	51.803
3.5654	51.752
3.5630	51.706
3.5605	51.664
3.5581	51.625
3.5557	51.586
3.5532	51.543
3.5508	51.495
3.5484	51.442
3.5459	51.383
3.5435	51.321
3.5411	51.258
3.5387	51.198
3.5363	51.143
3.5338	51.092
3.5314	51.046
3.5290	51.000
3.5266	50.952
3.5242	50.900
3.5218	50.844
3.5195	50.786
3.5171	50.727
3.5147	50.668
3.5123	50.611
3.5099	50.554
3.5075	50.495
3.5052	50.432
3.5028	50.366
3.5004	50.298
3.4981	50.230
3.4957	50.165
3.4934	50.103
3.4910	50.045
3.4887	49.988
3.4863	49.932
3.4840	49.877
3.4816	49.823
3.4793	49.769
3.4770	49.718
3.4746	49.668
3.4723	49.620
3.4700	49.573
3.4677	49.526
3.4653	49.477
3.4630	49.426
3.4607	49.372
3.4584	49.315
3.4561	49.255
3.4538	49.194
3.4515	49.131
3.4492	49.067
3.4469	49.003
3.4446	48.941
3.4423	48.879
3.4400	48.819
3.4378	48.760
3.4355	48.702
3.4332	48.644
3.4309	48.584
3.4287	48.522
3.4264	48.455
3.4241	48.383
3.4219	48.305
3.4196	48.220
3.4174	48.132
3.4151	48.043
3.4129	47.956
3.4106	47.874
3.4084	47.800
3.4061	47.733
3.4039	47.672
3.4017	47.614
3.3994	47.556
3.3972	47.494
3.3950	47.425
3.3928	47.350
3.3906	47.269
3.3883	47.184
3.3861	47.097
3.3839	47.012
3.3817	46.930
3.3795	46.852
3.3773	46.777
3.3751	46.703
3.3729	46.627
3.3707	46.548
3.3685	46.467
3.3663	46.385
3.3641	46.303
3.3620	46.223
3.3598	46.144
3.3576	46.064
3.3554	45.983
3.3533	45.900
3.3511	45.817
3.3489	45.734
3.3468	45.652
3.3446	45.571
3.3425	45.490
3.3403	45.409
3.3382	45.326
3.3360	45.245
3.3339	45.164
3.3317	45.085
3.3296	45.007
3.3274	44.928
3.3253	44.848
3.3232	44.765
3.3210	44.680
3.3189	44.594
3.3168	44.507
3.3147	44.422
3.3126	44.339
3.3104	44.256
3.3083	44.172
3.3062	44.085
3.3041	43.995
3.3020	43.904
3.2999	43.812
3.2978	43.722
3.2957	43.636
3.2936	43.551
3.2915	43.468
3.2894	43.386
3.2874	43.303
3.2853	43.220
3.2832	43.137
3.2811	43.053
3.2790	42.968
3.2770	42.879
3.2749	42.787
3.2728	42.693
3.2708	42.597
3.2687	42.500
3.2666	42.404
3.2646	42.309
3.2625	42.215
3.2605	42.123
3.2584	42.033
3.2564	41.945
3.2543	41.858
3.2523	41.772
3.2503	41.686
3.2482	41.599
3.2462	41.513
3.2442	41.427
3.2421	41.341
3.2401	41.254
3.2381	41.164
3.2361	41.070
3.2340	40.973
3.2320	40.873
3.2300	40.774
3.2280	40.677
3.2260	40.584
3.2240	40.496
3.2220	40.412
3.2200	40.331
3.2180	40.251
3.2160	40.173
3.2140	40.095
3.2120	40.017
3.2100	39.936
3.2080	39.853
3.2060	39.764
3.2040	39.672
3.2021	39.577
3.2001	39.484
3.1981	39.394
3.1961	39.310
3.1942	39.232
3.1922	39.157
3.1902	39.082
3.1883	39.005
3.1863	38.921
3.1844	38.834
3.1824	38.744
3.1805	38.654
3.1785	38.566
3.1766	38.481
3.1746	38.398
3.1727	38.315
3.1707	38.231
3.1688	38.144
3.1669	38.055
3.1649	37.963
3.1630	37.870
3.1611	37.775
3.1591	37.681
3.1572	37.587
3.1553	37.496
3.1534	37.408
3.1515	37.323
3.1495	37.241
3.1476	37.161
3.1457	37.086
3.1438	37.014
3.1419	36.943
3.1400	36.871
3.1381	36.797
3.1362	36.718
3.1343	36.632
3.1324	36.543
3.1305	36.454
3.1286	36.370
3.1268	36.292
3.1249	36.221
3.1230	36.154
3.1211	36.087
3.1192	36.018
3.1174	35.944
3.1155	35.867
3.1136	35.789
3.1117	35.711
3.1099	35.636
3.1080	35.563
3.1061	35.493
3.1043	35.423
3.1024	35.355
3.1006	35.288
3.0987	35.223
3.0969	35.161
3.0950	35.101
3.0932	35.042
3.0913	34.985
3.0895	34.928
3.0876	34.871
3.0858	34.813
3.0840	34.755
3.0821	34.696
3.0803	34.638
3.0785	34.583
3.0766	34.534
3.0748	34.489
3.0730	34.450
3.0712	34.414
3.0694	34.378
3.0675	34.343
3.0657	34.306
3.0639	34.268
3.0621	34.228
3.0603	34.187
3.0585	34.145
3.0567	34.102
3.0549	34.058
3.0531	34.013
3.0513	33.967
3.0495	33.919
3.0477	33.871
3.0459	33.825
3.0441	33.784
3.0423	33.746
3.0406	33.712
3.0388	33.676
3.0370	33.636
3.0352	33.589
3.0334	33.536
3.0317	33.481
3.0299	33.428
3.0281	33.379
3.0264	33.334
3.0246	33.293
3.0228	33.254
3.0211	33.213
3.0193	33.170
3.0176	33.123
3.0158	33.070
3.0140	33.012
3.0123	32.949
3.0105	32.883
3.0088	32.817
3.0070	32.753
3.0053	32.693
3.0036	32.637
3.0018	32.585
3.0001	32.537
2.9984	32.492
2.9966	32.448
2.9949	32.402
2.9932	32.351
2.9914	32.294
2.9897	32.229
2.9880	32.157
2.9863	32.081
2.9845	32.005
2.9828	31.932
2.9811	31.864
2.9794	31.802
2.9777	31.746
2.9760	31.694
2.9743	31.645
2.9726	31.594
2.9709	31.542
2.9692	31.487
2.9675	31.430
2.9658	31.372
2.9641	31.315
2.9624	31.262
2.9607	31.212
2.9590	31.164
2.9573	31.118
2.9556	31.070
2.9539	31.021
2.9523	30.969
2.9506	30.918
2.9489	30.869
2.9472	30.823
2.9455	30.782
2.9439	30.743
2.9422	30.707
2.9405	30.671
2.9389	30.633
2.9372	30.592
2.9355	30.551
2.9339	30.511
2.9322	30.474
2.9306	30.439
2.9289	30.406
2.9272	30.375
2.9256	30.346
2.9239	30.321
2.9223	30.302
2.9207	30.289
2.9190	30.279
2.9174	30.269
2.9157	30.257
2.9141	30.240
2.9124	30.218
2.9108	30.193
2.9092	30.168
2.9075	30.144
2.9059	30.121
2.9043	30.099
2.9027	30.077
2.9010	30.055
2.8994	30.034
2.8978	30.015
2.8962	29.998
2.8946	29.982
2.8929	29.967
2.8913	29.952
2.8897	29.936
2.8881	29.917
2.8865	29.896
2.8849	29.872
2.8833	29.844
2.8817	29.812
2.8801	29.779
2.8785	29.745
2.8769	29.711
2.8753	29.678
2.8737	29.646
2.8721	29.613
2.8705	29.581
2.8689	29.549
2.8673	29.517
2.8658	29.483
2.8642	29.448
2.8626	29.408
2.8610	29.365
2.8594	29.318
2.8579	29.267
2.8563	29.216
2.8547	29.163
2.8531	29.110
2.8516	29.057
2.8500	29.002
2.8484	28.946
2.8469	28.889
2.8453	28.831
2.8437	28.771
2.8422	28.706
2.8406	28.635
2.8391	28.558
2.8375	28.474
2.8360	28.384
2.8344	28.288
2.8329	28.187
2.8313	28.078
2.8298	27.959
2.8282	27.829
2.8267	27.687
2.8252	27.535
2.8236	27.374
2.8221	27.203
2.8205	27.023
2.8190	26.831
2.8175	26.627
2.8159	26.410
2.8144	26.178
2.8129	25.934
2.8114	25.675
2.8098	25.403
2.8083	25.115
2.8068	24.816
2.8053	24.508
2.8038	24.194
2.8022	23.877
2.8007	23.558
2.7992	23.230
2.7977	22.885
2.7962	22.514
2.7947	22.108
2.7932	21.663
2.7917	21.179
2.7902	20.667
2.7887	20.141
2.7872	19.620
2.7857	19.125
2.7842	18.677
2.7827	18.284
2.7812	17.953
2.7797	17.677
2.7782	17.442
2.7767	17.231
2.7752	17.025
2.7738	16.811
2.7723	16.583
2.7708	16.341
2.7693	16.092
2.7678	15.844
2.7664	15.608
2.7649	15.388
2.7634	15.188
2.7619	15.013
2.7605	14.868
2.7590	14.763
2.7575	14.708
2.7561	14.712
2.7546	14.778
2.7531	14.899
2.7517	15.058
2.7502	15.233
2.7488	15.402
2.7473	15.550
2.7458	15.673
2.7444	15.779
2.7429	15.886
2.7415	16.014
2.7400	16.184
2.7386	16.410
2.7371	16.703
2.7357	17.067
2.7343	17.502
2.7328	18.009
2.7314	18.585
2.7299	19.227
2.7285	19.935
2.7271	20.708
2.7256	21.548
2.7242	22.454
2.7228	23.414
2.7213	24.397
2.7199	25.347
2.7185	26.192
2.7171	26.868
2.7156	27.344
2.7142	27.646
2.7128	27.868
2.7114	28.145
2.7100	28.619
2.7085	29.394
2.7071	30.499
2.7057	31.888
2.7043	33.458
2.7029	35.086
2.7015	36.669
2.7001	38.150
2.6987	39.520
2.6973	40.808
2.6959	42.054
2.6945	43.292
2.6931	44.534
2.6917	45.766
2.6903	46.954
2.6889	48.061
2.6875	49.051
2.6861	49.898
2.6847	50.592
2.6833	51.136
2.6819	51.551
2.6805	51.869
2.6791	52.119
2.6778	52.328
2.6764	52.511
2.6750	52.671
2.6736	52.802
2.6722	52.902
2.6709	52.983
2.6695	53.072
2.6681	53.201
2.6667	53.390
2.6654	53.647
2.6640	53.955
2.6626	54.279
2.6613	54.576
2.6599	54.818
2.6585	54.995
2.6572	55.113
2.6558	55.189
2.6545	55.250
2.6531	55.311
2.6517	55.380
2.6504	55.453
2.6490	55.524
2.6477	55.585
2.6463	55.636
2.6450	55.682
2.6436	55.731
2.6423	55.786
2.6409	55.843
2.6396	55.892
2.6382	55.913
2.6369	55.891
2.6356	55.825
2.6342	55.725
2.6329	55.618
2.6315	55.536
2.6302	55.509
2.6289	55.543
2.6275	55.623
2.6262	55.715
2.6249	55.784
2.6236	55.805
2.6222	55.776
2.6209	55.722
2.6196	55.684
2.6183	55.695
2.6169	55.766
2.6156	55.888
2.6143	56.023
2.6130	56.126
2.6117	56.160
2.6103	56.119
2.6090	56.030
2.6077	55.939
2.6064	55.895
2.6051	55.932
2.6038	56.040
2.6025	56.170
2.6012	56.255
2.5999	56.251
2.5986	56.152
2.5973	56.000
2.5960	55.867
2.5947	55.818
2.5934	55.884
2.5921	56.041
2.5908	56.224
2.5895	56.375
2.5882	56.456
2.5869	56.472
2.5856	56.456
2.5843	56.452
2.5830	56.488
2.5817	56.563
2.5805	56.651
2.5792	56.724
2.5779	56.763
2.5766	56.768
2.5753	56.755
2.5741	56.748
2.5728	56.766
2.5715	56.812
2.5702	56.871
2.5690	56.923
2.5677	56.950
2.5664	56.944
2.5651	56.918
2.5639	56.895
2.5626	56.903
2.5613	56.957
2.5601	57.051
2.5588	57.165
2.5575	57.270
2.5563	57.342
2.5550	57.374
2.5538	57.375
2.5525	57.363
2.5513	57.357
2.5500	57.370
2.5487	57.400
2.5475	57.440
2.5462	57.479
2.5450	57.510
2.5437	57.530
2.5425	57.541
2.5413	57.548
2.5400	57.553
2.5388	57.560
2.5375	57.571
2.5363	57.586
2.5350	57.606
2.5338	57.630
2.5326	57.657
2.5313	57.685
2.5301	57.711
2.5289	57.731
2.5276	57.744
2.5264	57.750
2.5252	57.749
2.5239	57.745
2.5227	57.740
2.5215	57.736
2.5202	57.734
2.5190	57.735
2.5178	57.736
2.5166	57.738
2.5154	57.739
2.5141	57.739
2.5129	57.735
2.5117	57.728
2.5105	57.716
2.5093	57.701
2.5081	57.684
2.5068	57.668
2.5056	57.656
2.5044	57.649
2.5032	57.650
2.5020	57.656
2.5008	57.665
2.4996	57.673
2.4984	57.678
2.4972	57.677
2.4960	57.671
2.4948	57.662
2.4936	57.653
2.4924	57.648
2.4912	57.646
2.4900	57.649
2.4888	57.654
2.4876	57.659
2.4864	57.660
2.4852	57.656
2.4840	57.648
2.4828	57.636
2.4816	57.626
2.4805	57.619
2.4793	57.617
2.4781	57.618
2.4769	57.620
2.4757	57.618
2.4745	57.609
2.4734	57.594
2.4722	57.575
2.4710	57.555
2.4698	57.538
2.4686	57.526
2.4675	57.520
2.4663	57.515
2.4651	57.507
2.4640	57.495
2.4628	57.478
2.4616	57.459
2.4604	57.440
2.4593	57.423
2.4581	57.410
2.4569	57.397
2.4558	57.385
2.4546	57.375
2.4535	57.365
2.4523	57.356
2.4511	57.346
2.4500	57.336
2.4488	57.324
2.4477	57.311
2.4465	57.299
2.4454	57.293
2.4442	57.291
2.4431	57.295
2.4419	57.300
2.4408	57.304
2.4396	57.303
2.4385	57.299
2.4373	57.296
2.4362	57.297
2.4350	57.306
2.4339	57.321
2.4327	57.343
2.4316	57.365
2.4305	57.387
2.4293	57.408
2.4282	57.430
2.4270	57.452
2.4259	57.476
2.4248	57.499
2.4236	57.519
2.4225	57.532
2.4214	57.537
2.4202	57.536
2.4191	57.531
2.4180	57.525
2.4169	57.523
2.4157	57.527
2.4146	57.541
2.4135	57.564
2.4124	57.597
2.4112	57.633
2.4101	57.667
2.4090	57.696
2.4079	57.715
2.4068	57.724
2.4056	57.727
2.4045	57.729
2.4034	57.732
2.4023	57.735
2.4012	57.734
2.4001	57.727
2.3990	57.713
2.3979	57.694
2.3967	57.679
2.3956	57.671
2.3945	57.672
2.3934	57.679
2.3923	57.691
2.3912	57.701
2.3901	57.707
2.3890	57.709
2.3879	57.709
2.3868	57.710
2.3857	57.713
2.3846	57.719
2.3835	57.727
2.3824	57.735
2.3813	57.741
2.3802	57.744
2.3791	57.745
2.3781	57.744
2.3770	57.743
2.3759	57.742
2.3748	57.741
2.3737	57.738
2.3726	57.732
2.3715	57.724
2.3704	57.715
2.3694	57.706
2.3683	57.700
2.3672	57.694
2.3661	57.689
2.3650	57.680
2.3640	57.668
2.3629	57.653
2.3618	57.634
2.3607	57.614
2.3597	57.594
2.3586	57.574
2.3575	57.556
2.3564	57.537
2.3554	57.518
2.3543	57.498
2.3532	57.479
2.3522	57.461
2.3511	57.448
2.3500	57.443
2.3490	57.446
2.3479	57.458
2.3468	57.477
2.3458	57.496
2.3447	57.513
2.3436	57.526
2.3426	57.535
2.3415	57.543
2.3405	57.556
2.3394	57.576
2.3384	57.607
2.3373	57.647
2.3363	57.694
2.3352	57.747
2.3342	57.804
2.3331	57.863
2.3321	57.920
2.3310	57.974
2.3300	58.023
2.3289	58.067
2.3279	58.108
2.3268	58.151
2.3258	58.199
2.3247	58.255
2.3237	58.317
2.3226	58.382
2.3216	58.447
2.3206	58.507
2.3195	58.562
2.3185	58.612
2.3175	58.658
2.3164	58.704
2.3154	58.751
2.3144	58.801
2.3133	58.852
2.3123	58.900
2.3113	58.941
2.3102	58.971
2.3092	58.989
2.3082	58.996
2.3071	58.999
2.3061	59.003
2.3051	59.013
2.3041	59.033
2.3030	59.063
2.3020	59.102
2.3010	59.147
2.3000	59.192
2.2990	59.233
2.2979	59.267
2.2969	59.293
2.2959	59.311
2.2949	59.322
2.2939	59.328
2.2929	59.327
2.2918	59.322
2.2908	59.315
2.2898	59.309
2.2888	59.309
2.2878	59.320
2.2868	59.341
2.2858	59.366
2.2848	59.387
2.2838	59.397
2.2828	59.393
2.2818	59.376
2.2808	59.355
2.2798	59.338
2.2787	59.329
2.2777	59.327
2.2767	59.329
2.2757	59.329
2.2747	59.321
2.2738	59.305
2.2728	59.279
2.2718	59.245
2.2708	59.204
2.2698	59.155
2.2688	59.101
2.2678	59.044
2.2668	58.986
2.2658	58.933
2.2648	58.888
2.2638	58.854
2.2628	58.830
2.2618	58.812
2.2609	58.794
2.2599	58.772
2.2589	58.742
2.2579	58.704
2.2569	58.660
2.2559	58.616
2.2550	58.580
2.2540	58.556
2.2530	58.548
2.2520	58.554
2.2510	58.571
2.2501	58.592
2.2491	58.615
2.2481	58.635
2.2471	58.654
2.2462	58.672
2.2452	58.690
2.2442	58.709
2.2433	58.729
2.2423	58.749
2.2413	58.767
2.2403	58.782
2.2394	58.793
2.2384	58.802
2.2374	58.809
2.2365	58.820
2.2355	58.835
2.2345	58.855
2.2336	58.876
2.2326	58.895
2.2317	58.907
2.2307	58.909
2.2297	58.903
2.2288	58.890
2.2278	58.873
2.2269	58.854
2.2259	58.834
2.2250	58.813
2.2240	58.791
2.2231	58.765
2.2221	58.737
2.2211	58.704
2.2202	58.667
2.2192	58.624
2.2183	58.574
2.2173	58.516
2.2164	58.450
2.2155	58.374
2.2145	58.289
2.2136	58.198
2.2126	58.105
2.2117	58.015
2.2107	57.929
2.2098	57.854
2.2088	57.788
2.2079	57.729
2.2070	57.675
2.2060	57.624
2.2051	57.577
2.2041	57.535
2.2032	57.503
2.2023	57.487
2.2013	57.489
2.2004	57.508
2.1995	57.538
2.1985	57.571
2.1976	57.600
2.1967	57.625
2.1957	57.649
2.1948	57.683
2.1939	57.734
2.1930	57.810
2.1920	57.910
2.1911	58.029
2.1902	58.152
2.1893	58.271
2.1883	58.377
2.1874	58.470
2.1865	58.551
2.1856	58.626
2.1846	58.701
2.1837	58.777
2.1828	58.853
2.1819	58.927
2.1810	58.996
2.1800	59.060
2.1791	59.117
2.1782	59.166
2.1773	59.208
2.1764	59.242
2.1755	59.269
2.1746	59.289
2.1736	59.305
2.1727	59.321
2.1718	59.339
2.1709	59.363
2.1700	59.393
2.1691	59.428
2.1682	59.462
2.1673	59.491
2.1664	59.511
2.1655	59.520
2.1646	59.522
2.1637	59.524
2.1628	59.530
2.1619	59.545
2.1610	59.566
2.1601	59.588
2.1592	59.606
2.1583	59.616
2.1574	59.620
2.1565	59.621
2.1556	59.624
2.1547	59.632
2.1538	59.645
2.1529	59.661
2.1520	59.675
2.1511	59.686
2.1502	59.691
2.1493	59.691
2.1484	59.688
2.1475	59.684
2.1466	59.683
2.1458	59.686
2.1449	59.694
2.1440	59.706
2.1431	59.721
2.1422	59.736
2.1413	59.749
2.1404	59.756
2.1396	59.756
2.1387	59.752
2.1378	59.743
2.1369	59.732
2.1360	59.720
2.1352	59.707
2.1343	59.693
2.1334	59.679
2.1325	59.663
2.1316	59.649
2.1308	59.638
2.1299	59.631
2.1290	59.626
2.1281	59.623
2.1273	59.618
2.1264	59.610
2.1255	59.596
2.1247	59.579
2.1238	59.559
2.1229	59.541
2.1220	59.525
2.1212	59.515
2.1203	59.509
2.1194	59.506
2.1186	59.503
2.1177	59.498
2.1168	59.494
2.1160	59.495
2.1151	59.506
2.1143	59.530
2.1134	59.566
2.1125	59.605
2.1117	59.637
2.1108	59.651
2.1100	59.644
2.1091	59.615
2.1082	59.576
2.1074	59.537
2.1065	59.508
2.1057	59.494
2.1048	59.493
2.1040	59.498
2.1031	59.502
2.1023	59.501
2.1014	59.497
2.1005	59.493
2.0997	59.497
2.0988	59.511
2.0980	59.535
2.0971	59.564
2.0963	59.590
2.0955	59.606
2.0946	59.609
2.0938	59.599
2.0929	59.579
2.0921	59.554
2.0912	59.532
2.0904	59.516
2.0895	59.505
2.0887	59.498
2.0879	59.492
2.0870	59.491
2.0862	59.493
2.0853	59.498
2.0845	59.525
2.0837	59.545
2.0828	59.568
2.0820	59.628
2.0812	59.538
2.0803	59.576
2.0795	59.519
2.0760	59.519
2.0720	59.519
2.0680	59.564
2.0640	59.659
2.0600	59.514
2.0560	59.564
2.0520	59.609
2.0480	59.272
2.0440	59.223
2.0400	59.174
2.0360	59.027
2.0320	58.691
2.0280	58.640
2.0240	58.408
2.0200	58.691
2.0160	58.643
2.0120	58.313
2.0080	58.124
2.0040	58.030
2.0000	57.983
1.9960	58.119
1.9920	58.352
1.9880	57.887
1.9840	57.794
1.9800	57.331
1.9760	57.008
1.9720	56.963
1.9680	56.917
1.9640	56.825
1.9600	57.055
1.9560	57.101
1.9520	57.055
1.9480	57.009
1.9440	56.917
1.9400	56.778
1.9360	56.685
1.9320	56.584
1.9280	56.449
1.9240	56.214
1.9200	56.028
1.9160	55.702
1.9120	55.702
1.9080	55.609
1.9040	55.472
1.9000	55.490
1.8960	55.413
1.8920	55.829
1.8880	55.704
1.8840	55.709
1.8800	56.329
1.8760	56.780
1.8720	57.147
1.8680	56.776
1.8640	56.546
1.8600	56.413
1.8560	56.329
1.8520	56.602
1.8480	56.927
1.8440	56.652
1.8400	56.739
1.8360	56.600
1.8320	56.510
1.8280	56.243
1.8240	55.978
1.8200	56.120
1.8160	55.716
1.8120	55.675
1.8080	55.632
1.8040	55.673
1.8000	55.673
1.7960	55.455
1.7920	55.363
1.7880	55.496
1.7840	55.675
1.7800	55.404
1.7760	54.959
1.7720	54.873
1.7680	54.820
1.7640	54.820
1.7600	54.741
1.7560	54.698
1.7520	54.570
1.7480	54.308
1.7440	54.702
1.7400	54.430
1.7360	54.634
1.7320	54.673
1.7280	54.759
1.7240	54.759
1.7200	54.763
1.7160	54.818
1.7120	54.861
1.7080	54.695
1.7040	54.289
1.7000	54.088
1.6960	54.393
1.6920	53.999
1.6880	53.904
1.6840	53.968
1.6800	53.936
1.6760	54.247
1.6720	53.898
1.6680	53.458
1.6640	53.320
1.6600	53.451
1.6560	53.190
1.6520	53.073
1.6480	53.107
1.6440	53.390
1.6400	53.314
1.6360	53.045
1.6320	52.900
1.6280	52.818
1.6240	52.736
1.6200	52.743
1.6160	52.491
1.6120	52.184
1.6080	52.427
1.6040	52.362
1.6000	52.133
1.5960	52.012
1.5920	52.223
1.5880	52.182
1.5840	51.774
1.5800	51.935
1.5760	51.693
1.5720	51.612
1.5680	51.632
1.5640	51.176
1.5600	50.892
1.5560	50.814
1.5520	50.704
1.5480	50.592
1.5440	50.464
1.5400	50.272
1.5360	50.620
1.5320	50.826
1.5280	50.866
1.5240	50.748
1.5200	50.236
1.5160	49.981
1.5120	49.918
1.5080	50.086
1.5040	50.138
1.5000	49.985
1.4960	50.063
1.4920	49.324
1.4880	49.173
1.4840	49.187
1.4800	49.036
1.4760	48.962
1.4720	48.747
1.4680	49.197
1.4640	49.078
1.4600	48.747
1.4560	48.710
1.4520	48.419
1.4480	47.951
1.4440	47.739
1.4400	47.752
1.4360	47.645
1.4320	47.628
1.4280	47.465
1.4240	47.266
1.4200	46.960
1.4160	46.691
1.4120	46.419
1.4080	46.298
1.4040	46.022
1.4000	45.939
1.3960	45.974
1.3920	45.923
1.3880	45.983
1.3840	45.677
1.3800	45.827
1.3760	45.730
1.3720	45.415
1.3680	45.532
1.3640	45.415
1.3600	45.379
1.3560	44.944
1.3520	44.972
1.3480	45.031
1.3440	45.052
1.3400	44.618
1.3360	44.596
1.3320	44.351
1.3280	44.239
1.3240	44.103
1.3200	44.037
1.3160	43.835
1.3120	43.713
1.3080	43.624
1.3040	43.381
1.3000	43.291
1.2960	43.202
1.2920	43.120
1.2880	42.827
1.2840	42.628
1.2800	42.672
1.2760	42.593
1.2720	42.321
1.2680	42.235
1.2640	42.033
1.2600	42.398
1.2560	42.334
1.2520	42.060
1.2480	41.938
1.2440	41.658
1.2400	41.214
1.2360	41.244
1.2320	41.275
1.2280	41.217
1.2240	41.094
1.2200	40.882
1.2160	41.125
1.2120	41.123
1.2080	40.730
1.2040	40.639
1.2000	40.549
1.1960	40.437
1.1920	40.348
1.1880	40.066
1.1840	40.037
1.1800	40.008
1.1760	39.920
1.1720	39.862
1.1680	39.772
1.1640	39.514
1.1600	39.591
1.1560	39.556
1.1520	39.320
1.1480	39.366
1.1440	39.395
1.1400	39.424
1.1360	39.164
1.1320	39.078
1.1280	39.197
1.1240	39.284
1.1200	39.111
1.1160	38.958
1.1120	38.948
1.1080	38.828
1.1040	38.442
1.1000	38.892
1.0960	39.073
1.0920	38.901
1.0880	38.896
1.0840	39.342
1.0800	39.115
1.0760	38.929
1.0720	38.644
1.0680	38.411
1.0640	38.358
1.0600	38.650
1.0560	38.606
1.0520	38.550
1.0480	38.349
1.0440	38.504
1.0400	38.463
1.0360	38.694
1.0320	38.785
1.0280	38.491
1.0240	38.547
1.0200	38.728
1.0160	38.666
1.0120	38.199
1.0080	38.310
1.0040	38.185
1.0000	38.046
0.99600	38.128
0.99200	38.211
0.98800	38.330
0.98400	38.045
0.98000	37.814
0.97600	37.677
0.97200	37.650
0.96800	37.794
0.96400	37.723
0.96000	37.614
0.95600	37.641
0.95200	37.469
0.94800	37.289
0.94400	37.469
0.94000	37.415
0.93600	37.181
0.93200	37.028
0.92800	36.958
0.92400	37.155
0.92000	36.958
0.91600	36.922
0.91200	36.896
0.90800	36.949
0.90400	36.807
0.90000	36.770
0.89600	36.744
0.89200	36.565
0.88800	36.502
0.88400	36.554
0.88000	36.545
0.87600	36.355
0.87200	36.449
0.86800	36.306
0.86400	36.295
0.86000	36.511
0.85600	36.154
0.85200	36.181
0.84800	36.308
0.84400	36.078
0.84000	36.078
0.83600	36.118
0.83200	35.908
0.82800	35.882
0.82400	35.894
0.82000	36.051
0.81600	35.916
0.81200	35.697
0.80800	35.748
0.80400	35.697
0.80000	35.710
0.79900	35.072
0.79800	35.072
0.79700	35.237
0.79600	35.199
0.79500	35.296
0.79400	35.556
0.79300	35.334
0.79200	35.267
0.79100	35.234
0.79000	35.294
0.78900	35.169
0.78800	35.013
0.78700	34.848
0.78600	34.761
0.78500	35.072
0.78400	34.972
0.78300	34.972
0.78200	34.926
0.78100	35.019
0.78000	34.875
0.77900	35.060
0.77800	34.807
0.77700	34.748
0.77600	34.567
0.77500	34.506
0.77400	34.700
0.77300	34.700
0.77200	34.668
0.77100	34.574
0.77000	34.588
0.76900	34.431
0.76800	34.668
0.76700	34.746
0.76600	34.746
0.76500	34.600
0.76400	34.817
0.76300	34.716
0.76200	34.564
0.76100	34.516
0.76000	34.338
0.75900	34.156
0.75800	34.252
0.75700	34.059
0.75600	34.367
0.75500	34.386
0.75400	34.507
0.75300	33.991
0.75200	34.019
0.75100	33.826
0.75000	33.963
0.74900	33.883
0.74800	34.076
0.74700	34.173
0.74600	33.826
0.74500	33.883
0.74400	34.235
0.74300	33.713
0.74200	34.013
0.74100	34.720
0.74000	34.233
0.73900	33.899
0.73800	33.802
0.73700	33.786
0.73600	33.888
0.73500	33.786
0.73400	33.899
0.73300	34.157
0.73200	34.115
0.73100	33.845
0.73000	33.763
0.72900	33.934
0.72800	34.020
0.72700	33.991
0.72600	33.687
0.72500	33.687
0.72400	33.671
0.72300	33.671
0.72200	33.486
0.72100	33.504
0.72000	33.455
0.71900	33.917
0.71800	33.946
0.71700	33.915
0.71600	33.898
0.71500	33.628
0.71400	33.725
0.71300	33.492
0.71200	33.711
0.71100	33.575
0.71000	33.886
0.70900	33.800
0.70800	33.759
0.70700	33.587
0.70600	33.253
0.70500	33.183
0.70400	33.366
0.70300	33.475
0.70200	33.377
0.70100	33.186
0.70000	33.522
0.69900	34.079
0.69800	33.533
0.69700	33.705
0.69600	33.488
0.69500	33.646
0.69400	33.446
0.69300	33.517
0.69200	33.430
0.69100	33.546
0.69000	33.617
0.68900	33.705
0.68800	33.847
0.68700	33.746
0.68600	33.746
0.68500	33.905
0.68400	33.746
0.68300	33.446
0.68200	33.317
0.68100	33.417
0.68000	33.505
0.67900	33.534
0.67800	33.505
0.67700	33.246
0.67600	33.246
0.67500	33.534
0.67400	33.735
0.67300	33.635
0.67200	33.317
0.67100	33.593
0.67000	33.664
0.66900	33.693
0.66800	33.563
0.66700	33.563
0.66600	33.634
0.66500	33.404
0.66400	33.317
0.66300	33.288
0.66200	33.550
0.66100	33.449
0.66000	33.593
0.65900	33.843
0.65800	33.742
0.65700	33.580
0.65600	33.434
0.65500	33.463
0.65400	33.304
0.65300	33.446
0.65200	33.346
0.65100	33.388
0.65000	33.230
0.64900	32.946
0.64800	33.044
0.64700	33.362
0.64600	33.742
0.64500	33.741
0.64400	33.742
0.64300	33.581
0.64200	33.434
0.64100	33.304
0.64000	33.712
0.63900	33.452
0.63800	33.162
0.63700	33.117
0.63600	32.931
0.63500	32.917
0.63400	32.946
0.63300	32.917
0.63200	32.988
0.63100	32.931
0.63000	32.946
0.62900	32.988
0.62800	32.960
0.62700	32.960
0.62600	32.888
0.62500	33.233
0.62400	33.204
0.62300	33.117
0.62200	32.959
0.62100	32.731
0.62000	32.961
0.61900	33.266
0.61800	33.515
0.61700	33.223
0.61600	32.832
0.61500	32.774
0.61400	32.659
0.61300	32.445
0.61200	32.774
0.61100	32.832
0.61000	32.702
0.60900	32.875
0.60800	32.846
0.60700	32.744
0.60600	32.599
0.60500	32.571
0.60400	32.571
0.60300	32.528
0.60200	32.615
0.60100	32.452
0.60000	32.317
0.59900	32.198
0.59800	32.140
0.59700	32.078
0.59600	32.371
0.59500	32.012
0.59400	32.198
0.59300	32.429
0.59200	32.374
0.59100	32.242
0.59000	32.032
0.58900	32.052
0.58800	32.374
0.58700	32.213
0.58600	32.271
0.58500	32.309
0.58400	31.832
0.58300	32.098
0.58200	31.889
0.58100	31.758
0.58000	31.949
0.57900	32.006
0.57800	32.081
0.57700	31.658
0.57600	31.864
0.57500	31.686
0.57400	31.630
0.57300	31.664
0.57200	31.720
0.57100	31.831
0.57000	31.720
0.56900	31.388
0.56800	31.187
0.56700	31.193
0.56600	31.222
0.56500	31.296
0.56400	31.039
0.56300	31.148
0.56200	31.019
0.56100	30.918
0.56000	31.234
0.55900	31.136
0.55800	31.136
0.55700	31.578
0.55600	31.431
0.55500	31.283
0.55400	31.234
0.55300	31.331
0.55200	31.308
0.55100	31.184
0.55000	30.861
0.54900	31.207
0.54800	30.959
0.54700	31.034
0.54600	31.058
0.54500	31.107
0.54400	30.909
0.54300	31.157
0.54200	31.182
0.54100	31.081
0.54000	30.981
0.53900	31.054
0.53800	31.081
0.53700	30.803
0.53600	30.803
0.53500	30.677
0.53400	30.677
0.53300	30.436
0.53200	30.171
0.53100	30.247
0.53000	30.393
0.52900	30.113
0.52800	30.254
0.52700	30.230
0.52600	30.029
0.52500	30.029
0.52400	30.076
0.52300	30.106
0.52200	30.231
0.52100	30.007
0.52000	29.945
0.51900	29.820
0.51800	29.651
0.51700	29.774
0.51600	29.651
0.51500	29.417
0.51400	29.248
0.51300	29.271
0.51200	29.336
0.51100	29.414
0.51000	29.203
0.50900	28.958
0.50800	29.069
0.50700	29.204
0.50600	28.978
0.50500	28.811
0.50400	28.855
0.50300	29.068
0.50200	28.979
0.50100	28.969
0.50000	28.888
0.49900	28.667
0.49800	28.509
0.49700	28.530
0.49600	28.343
0.49500	28.307
0.49400	28.063
0.49300	28.026
0.49200	28.133
0.49100	28.240
0.49000	28.234
0.48900	28.131
0.48800	27.948
0.48700	27.823
0.48600	27.763
0.48500	27.620
0.48400	27.825
0.48300	27.888
0.48200	27.581
0.48100	27.682
0.48000	27.560
0.47900	27.397
0.47800	27.458
0.47700	27.437
0.47600	27.315
0.47500	27.071
0.47400	27.192
0.47300	27.047
0.47200	27.007
0.47100	26.948
0.47000	26.948
0.46900	26.810
0.46800	26.928
0.46700	26.646
0.46600	26.463
0.46500	26.627
0.46400	26.743
0.46300	26.559
0.46200	26.923
0.46100	26.722
0.46000	26.321
0.45900	27.201
0.45800	27.219
0.45700	27.176
0.45600	27.216
0.45500	27.156
0.45400	27.031
0.45300	27.160
0.45200	27.134
0.45100	27.056
0.45000	27.153
0.44900	27.213
0.44800	27.048
0.44700	26.964
0.44600	26.767
0.44500	26.660
0.44400	26.767
0.44300	26.239
0.44200	26.204
0.44100	26.613
0.44000	26.190
0.43900	26.434
0.43800	26.404
0.43700	26.381
0.43600	26.386
0.43500	26.423
0.43400	26.314
0.43300	25.873
0.43200	25.891
0.43100	25.944
0.43000	25.875
0.42900	26.134
0.42800	25.869
0.42700	25.746
0.42600	26.044
0.42500	25.475
0.42400	25.509
0.42300	25.817
0.42200	25.418
0.42100	25.340
0.42000	25.573
0.41900	25.374
0.41800	25.307
0.41700	25.123
0.41600	25.013
0.41500	25.002
0.41400	25.067
0.41300	24.891
0.41200	24.748
0.41100	24.670
0.41000	24.455
0.40900	24.612
0.40800	24.764
0.40700	24.674
0.40600	24.593
0.40500	24.244
0.40400	24.183
0.40300	24.183
0.40200	24.304
0.40100	24.023
0.40000	24.137
