Name: Granite
Type: Rocks
Class: Igneous
Subclass: Felsic
Particle Size: 0-75 micrometers
Sample No.: Granite.H2
Owner: JHU
Wavelength range: All
Origin: From Santa Rita Mountains, Arizona via Smithsonian (Cat. No. 
NMNH 113640-17)
Description: Powder derived from a gray, medium-grained rock consisting 
of white feldspar grains, some of which contain red or pinkish cores, quartz, 
and minor biotite.  Some of the feldspar appears to be perthitic.



Measurement: Directional (10 degree) hemispherical reflectance
First Column: X
Second Column: Y
X Units: Wavelength (micrometers)
Y Units: Reflectance (percent)
First X Value: 14.0112
Last X Value: 0.4000
Number of X Values: 2844
Additional information: granit2a.txt

14.011	1.9200
13.973	1.4138
13.936	1.6163
13.899	2.2312
13.861	2.9625
13.824	3.5512
13.788	2.8668
13.751	2.2350
13.715	2.4787
13.679	2.5912
13.643	2.5322
13.607	2.8621
13.571	3.0309
13.536	3.4922
13.500	3.2137
13.465	2.9381
13.430	2.9147
13.396	2.2772
13.361	2.0517
13.327	2.5730
13.293	2.8374
13.259	2.8711
13.225	2.6330
13.191	2.4543
13.158	2.3049
13.124	2.3672
13.091	2.3306
13.058	2.1867
13.026	2.1483
12.993	2.1478
12.960	2.2214
12.928	2.4708
12.896	2.4517
12.864	2.3512
12.832	2.2481
12.800	2.2205
12.769	2.2324
12.737	2.1600
12.706	1.9953
12.675	1.8802
12.644	1.8490
12.614	1.8706
12.583	1.9223
12.552	2.0402
12.522	2.2008
12.492	2.3072
12.462	2.3901
12.432	2.4924
12.402	2.5376
12.373	2.5057
12.343	2.5701
12.314	2.7192
12.285	3.1221
12.256	3.4997
12.227	3.7221
12.198	4.1388
12.169	4.5347
12.141	4.8828
12.113	5.3506
12.084	5.6901
12.056	6.0492
12.028	6.3787
12.000	6.6441
11.973	6.9239
11.945	7.1535
11.918	7.4217
11.890	7.6382
11.863	7.8052
11.836	8.0006
11.809	8.1637
11.782	8.2589
11.755	8.2678
11.729	8.3088
11.702	8.4337
11.676	8.4904
11.650	8.5190
11.624	8.6010
11.598	8.5720
11.572	8.4769
11.546	8.4349
11.520	8.3771
11.495	8.3098
11.469	8.2828
11.444	8.2662
11.419	8.2865
11.394	8.2851
11.369	8.3177
11.344	8.2810
11.319	8.2481
11.294	8.2551
11.270	8.1895
11.245	8.1471
11.221	8.0896
11.197	8.0629
11.173	8.0271
11.149	7.8888
11.125	7.7649
11.101	7.6303
11.077	7.4639
11.054	7.3605
11.030	7.2656
11.007	7.1712
10.983	7.0620
10.960	6.9759
10.937	6.8700
10.914	6.7268
10.891	6.6138
10.868	6.5873
10.846	6.4725
10.823	6.2857
10.800	6.2002
10.778	6.0867
10.755	5.9883
10.733	5.8805
10.711	5.7239
10.689	5.5898
10.667	5.5374
10.645	5.4379
10.623	5.2678
10.602	5.1330
10.580	5.0733
10.558	4.9982
10.537	4.9190
10.516	4.8686
10.494	4.7381
10.473	4.6270
10.452	4.5735
10.431	4.5293
10.410	4.4892
10.389	4.4335
10.368	4.3361
10.348	4.2656
10.327	4.2514
10.306	4.2356
10.286	4.2208
10.266	4.1960
10.245	4.1707
10.225	4.0969
10.205	4.0810
10.185	4.1200
10.165	4.1231
10.145	4.0987
10.125	4.0940
10.106	4.0932
10.086	4.1083
10.066	4.1083
10.047	4.1421
10.027	4.1888
10.008	4.1698
9.9887	4.1896
9.9695	4.2140
9.9504	4.1984
9.9313	4.2543
9.9123	4.2806
9.8934	4.2457
9.8746	4.2853
9.8558	4.2675
9.8371	4.1719
9.8185	4.1179
9.7999	4.1161
9.7814	4.1161
9.7630	4.1149
9.7447	4.1569
9.7264	4.2098
9.7082	4.2337
9.6900	4.3282
9.6719	4.4025
9.6539	4.4662
9.6360	4.4740
9.6181	4.4482
9.6003	4.4847
9.5825	4.5084
9.5649	4.5026
9.5472	4.4655
9.5297	4.4836
9.5122	4.5563
9.4948	4.5975
9.4774	4.6151
9.4601	4.6500
9.4429	4.7482
9.4257	4.9073
9.4086	5.0964
9.3916	5.3011
9.3746	5.5106
9.3577	5.7483
9.3408	5.9316
9.3240	6.1141
9.3073	6.2724
9.2906	6.3253
9.2740	6.3291
9.2574	6.3228
9.2409	6.2953
9.2245	6.2646
9.2081	6.2948
9.1918	6.3548
9.1755	6.1753
9.1593	6.0293
9.1431	5.9592
9.1270	5.9025
9.1110	5.8308
9.0950	5.7600
9.0791	5.7522
9.0632	5.6941
9.0474	5.6147
9.0316	5.6013
9.0159	5.6004
9.0003	5.6215
8.9847	5.5711
8.9691	5.5176
8.9536	5.5127
8.9382	5.5085
8.9228	5.5260
8.9075	5.5397
8.8922	5.5488
8.8770	5.5714
8.8618	5.5598
8.8467	5.5392
8.8316	5.5521
8.8166	5.5486
8.8016	5.5556
8.7867	5.5709
8.7718	5.5153
8.7570	5.4766
8.7422	5.4829
8.7275	5.4876
8.7129	5.4867
8.6982	5.4202
8.6837	5.3355
8.6692	5.1844
8.6547	4.9807
8.6403	4.7796
8.6259	4.7163
8.6116	4.8780
8.5973	5.1916
8.5830	5.4945
8.5688	5.7164
8.5547	5.9151
8.5406	6.0584
8.5266	6.1031
8.5126	6.1134
8.4986	6.1566
8.4847	6.2353
8.4708	6.2653
8.4570	6.2125
8.4432	6.2393
8.4295	6.2532
8.4158	6.2740
8.4022	6.3267
8.3886	6.3527
8.3750	6.3748
8.3615	6.3984
8.3481	6.4298
8.3347	6.4566
8.3213	6.4823
8.3079	6.4875
8.2946	6.5194
8.2814	6.5969
8.2682	6.6616
8.2550	6.7667
8.2419	6.8963
8.2288	6.9698
8.2158	7.0228
8.2028	7.0690
8.1898	7.0579
8.1769	6.9797
8.1640	6.8888
8.1512	6.7038
8.1384	6.4420
8.1256	6.1688
8.1129	5.8566
8.1002	5.5636
8.0876	5.3390
8.0750	5.0888
8.0624	4.8161
8.0499	4.5628
8.0374	4.3620
8.0250	4.1670
8.0126	3.9902
8.0002	3.7974
7.9879	3.5561
7.9756	3.4114
7.9634	3.2885
7.9512	3.1212
7.9390	2.9327
7.9268	2.7476
7.9147	2.5877
7.9027	2.4621
7.8906	2.3447
7.8786	2.2099
7.8667	2.1070
7.8548	2.0231
7.8429	1.9378
7.8310	1.8541
7.8192	1.8010
7.8075	1.7590
7.7957	1.7196
7.7840	1.7018
7.7723	1.6884
7.7607	1.6805
7.7491	1.6798
7.7375	1.6753
7.7260	1.6348
7.7145	1.5828
7.7031	1.5600
7.6916	1.5581
7.6802	1.5600
7.6689	1.5426
7.6575	1.5541
7.6462	1.5626
7.6350	1.5190
7.6238	1.5075
7.6126	1.5101
7.6014	1.5138
7.5903	1.5394
7.5792	1.5382
7.5681	1.5543
7.5571	1.5996
7.5461	1.6301
7.5351	1.6582
7.5242	1.6882
7.5133	1.7156
7.5024	1.7224
7.4916	1.7388
7.4807	1.7592
7.4700	1.7847
7.4592	1.8384
7.4485	1.8832
7.4378	1.8925
7.4272	1.9282
7.4165	1.9891
7.4059	2.0220
7.3954	2.0532
7.3848	2.1174
7.3743	2.1839
7.3639	2.2340
7.3534	2.2615
7.3430	2.3051
7.3326	2.3482
7.3223	2.3909
7.3119	2.4577
7.3016	2.5387
7.2914	2.6020
7.2811	2.6351
7.2709	2.7164
7.2607	2.7996
7.2506	2.8849
7.2404	3.0021
7.2303	3.0825
7.2203	3.1525
7.2102	3.2278
7.2002	3.3171
7.1902	3.3979
7.1803	3.4854
7.1703	3.5550
7.1604	3.6541
7.1506	3.7582
7.1407	3.8787
7.1309	4.0088
7.1211	4.1168
7.1113	4.2176
7.1016	4.3193
7.0919	4.3842
7.0822	4.4437
7.0725	4.5202
7.0629	4.6003
7.0533	4.6399
7.0437	4.6605
7.0341	4.7252
7.0246	4.8229
7.0151	4.8766
7.0056	4.9200
6.9962	4.9741
6.9867	5.0416
6.9773	5.1016
6.9679	5.1475
6.9586	5.2169
6.9493	5.3020
6.9400	5.3747
6.9307	5.4371
6.9214	5.4851
6.9122	5.5694
6.9030	5.6213
6.8938	5.6590
6.8847	5.6871
6.8755	5.6892
6.8664	5.6651
6.8573	5.7068
6.8483	5.7748
6.8393	5.8045
6.8302	5.8130
6.8213	5.8566
6.8123	5.8953
6.8034	5.8943
6.7944	5.8784
6.7855	5.8831
6.7767	5.8810
6.7678	5.8704
6.7590	5.8678
6.7502	5.8816
6.7414	5.8990
6.7327	5.9325
6.7239	5.9580
6.7152	6.0007
6.7065	6.0506
6.6979	6.1242
6.6892	6.2161
6.6806	6.3159
6.6720	6.4361
6.6634	6.5707
6.6549	6.6949
6.6464	6.7406
6.6378	6.7455
6.6294	6.8051
6.6209	6.8628
6.6124	6.9086
6.6040	6.9441
6.5956	6.9459
6.5872	6.9613
6.5789	6.9691
6.5705	6.9564
6.5622	7.0130
6.5539	7.0748
6.5456	7.1587
6.5374	7.2898
6.5292	7.5114
6.5209	7.7753
6.5128	8.0871
6.5046	8.3644
6.4964	8.6074
6.4883	8.8889
6.4802	9.1688
6.4721	9.4160
6.4640	9.6488
6.4560	9.8168
6.4480	9.9361
6.4399	10.0350
6.4320	10.0900
6.4240	10.0840
6.4160	9.9977
6.4081	9.9825
6.4002	9.9881
6.3923	9.8958
6.3844	9.7345
6.3766	9.5486
6.3687	9.3670
6.3609	9.2174
6.3531	9.0234
6.3454	8.8210
6.3376	8.7096
6.3299	8.5753
6.3221	8.3550
6.3144	8.0920
6.3068	7.8823
6.2991	7.7426
6.2914	7.5574
6.2838	7.3561
6.2762	7.1852
6.2686	7.0629
6.2611	6.9161
6.2535	6.7696
6.2460	6.6410
6.2385	6.5407
6.2310	6.4592
6.2235	6.3935
6.2160	6.3330
6.2086	6.3135
6.2011	6.3546
6.1937	6.4083
6.1863	6.4856
6.1790	6.6613
6.1716	6.8774
6.1643	7.0860
6.1570	7.3483
6.1496	7.6502
6.1424	7.9289
6.1351	8.2120
6.1278	8.4546
6.1206	8.6691
6.1134	8.8922
6.1062	9.1410
6.0990	9.3330
6.0918	9.5090
6.0847	9.7029
6.0776	9.8254
6.0704	9.9072
6.0633	10.003
6.0563	10.019
6.0492	10.000
6.0421	10.121
6.0351	10.247
6.0281	10.327
6.0211	10.352
6.0141	10.329
6.0071	10.336
6.0002	10.316
5.9932	10.231
5.9863	10.123
5.9794	10.038
5.9725	9.9164
5.9657	9.7704
5.9588	9.6857
5.9520	9.6122
5.9451	9.5418
5.9383	9.4713
5.9315	9.5392
5.9247	9.6886
5.9180	9.8313
5.9112	10.011
5.9045	10.189
5.8978	10.359
5.8911	10.608
5.8844	10.805
5.8777	11.003
5.8711	11.264
5.8644	11.477
5.8578	11.696
5.8512	11.874
5.8446	12.027
5.8380	12.175
5.8314	12.289
5.8249	12.356
5.8184	12.453
5.8118	12.607
5.8053	12.696
5.7988	12.775
5.7923	12.855
5.7859	12.905
5.7794	12.946
5.7730	12.957
5.7666	12.935
5.7602	13.041
5.7538	13.125
5.7474	13.120
5.7410	13.151
5.7347	13.178
5.7283	13.198
5.7220	13.198
5.7157	13.163
5.7094	13.113
5.7031	13.093
5.6969	13.054
5.6906	12.954
5.6844	12.822
5.6782	12.669
5.6719	12.501
5.6657	12.294
5.6596	12.041
5.6534	11.777
5.6472	11.511
5.6411	11.251
5.6349	11.077
5.6288	10.932
5.6227	10.776
5.6166	10.644
5.6106	10.554
5.6045	10.491
5.5984	10.428
5.5924	10.373
5.5864	10.318
5.5804	10.295
5.5744	10.330
5.5684	10.414
5.5624	10.519
5.5564	10.663
5.5505	10.865
5.5445	11.125
5.5386	11.398
5.5327	11.684
5.5268	12.022
5.5209	12.365
5.5151	12.687
5.5092	13.000
5.5033	13.313
5.4975	13.620
5.4917	13.923
5.4859	14.216
5.4801	14.451
5.4743	14.679
5.4685	14.908
5.4628	15.103
5.4570	15.277
5.4513	15.414
5.4455	15.472
5.4398	15.458
5.4341	15.375
5.4284	15.212
5.4228	14.964
5.4171	14.688
5.4114	14.363
5.4058	13.935
5.4002	13.464
5.3945	12.978
5.3889	12.476
5.3833	11.997
5.3778	11.592
5.3722	11.255
5.3666	10.995
5.3611	10.814
5.3555	10.693
5.3500	10.628
5.3445	10.657
5.3390	10.741
5.3335	10.795
5.3280	10.866
5.3225	10.981
5.3171	11.089
5.3116	11.197
5.3062	11.328
5.3008	11.478
5.2954	11.632
5.2900	11.841
5.2846	12.112
5.2792	12.395
5.2738	12.697
5.2684	13.052
5.2631	13.449
5.2578	13.846
5.2524	14.280
5.2471	14.792
5.2418	15.327
5.2365	15.888
5.2312	16.483
5.2260	17.060
5.2207	17.616
5.2154	18.111
5.2102	18.541
5.2050	18.907
5.1998	19.162
5.1945	19.349
5.1893	19.466
5.1842	19.574
5.1790	19.661
5.1738	19.715
5.1686	19.780
5.1635	19.869
5.1584	19.939
5.1532	20.001
5.1481	20.034
5.1430	20.079
5.1379	20.118
5.1328	20.180
5.1277	20.296
5.1227	20.418
5.1176	20.534
5.1126	20.647
5.1075	20.698
5.1025	20.735
5.0975	20.729
5.0925	20.648
5.0875	20.534
5.0825	20.387
5.0775	20.261
5.0726	20.180
5.0676	20.115
5.0627	20.092
5.0577	20.116
5.0528	20.143
5.0479	20.152
5.0430	20.174
5.0380	20.219
5.0332	20.248
5.0283	20.252
5.0234	20.248
5.0185	20.248
5.0137	20.279
5.0088	20.330
5.0040	20.426
4.9992	20.591
4.9944	20.800
4.9896	21.051
4.9848	21.378
4.9800	21.800
4.9752	22.324
4.9704	22.945
4.9657	23.615
4.9609	24.236
4.9562	24.774
4.9514	25.232
4.9467	25.594
4.9420	25.861
4.9373	26.039
4.9326	26.256
4.9279	26.514
4.9232	26.819
4.9186	27.236
4.9139	27.785
4.9092	28.470
4.9046	29.239
4.9000	30.048
4.8953	30.898
4.8907	31.708
4.8861	32.425
4.8815	33.078
4.8769	33.675
4.8723	34.200
4.8678	34.656
4.8632	35.024
4.8586	35.374
4.8541	35.741
4.8495	36.071
4.8450	36.359
4.8405	36.604
4.8360	36.811
4.8315	37.014
4.8270	37.175
4.8225	37.312
4.8180	37.430
4.8135	37.500
4.8090	37.546
4.8046	37.576
4.8001	37.590
4.7957	37.578
4.7913	37.580
4.7868	37.591
4.7824	37.627
4.7780	37.667
4.7736	37.762
4.7692	37.908
4.7648	38.043
4.7605	38.185
4.7561	38.337
4.7517	38.509
4.7474	38.685
4.7431	38.819
4.7387	38.941
4.7344	39.050
4.7301	39.161
4.7258	39.241
4.7215	39.276
4.7172	39.330
4.7129	39.358
4.7086	39.320
4.7043	39.264
4.7000	39.183
4.6958	39.086
4.6915	38.957
4.6873	38.876
4.6831	38.881
4.6788	38.958
4.6746	39.105
4.6704	39.303
4.6662	39.534
4.6620	39.780
4.6578	40.000
4.6536	40.220
4.6495	40.455
4.6453	40.695
4.6411	40.937
4.6370	41.182
4.6328	41.474
4.6287	41.744
4.6246	41.962
4.6205	42.223
4.6163	42.475
4.6122	42.676
4.6081	42.861
4.6040	43.068
4.6000	43.279
4.5959	43.474
4.5918	43.656
4.5877	43.818
4.5837	43.967
4.5796	44.130
4.5756	44.288
4.5716	44.463
4.5675	44.626
4.5635	44.787
4.5595	44.938
4.5555	45.055
4.5515	45.148
4.5475	45.224
4.5435	45.295
4.5395	45.337
4.5356	45.335
4.5316	45.336
4.5276	45.338
4.5237	45.309
4.5197	45.248
4.5158	45.119
4.5119	44.989
4.5080	44.867
4.5040	44.740
4.5001	44.634
4.4962	44.549
4.4923	44.515
4.4884	44.532
4.4846	44.580
4.4807	44.621
4.4768	44.651
4.4730	44.666
4.4691	44.728
4.4652	44.864
4.4614	45.061
4.4576	45.302
4.4537	45.565
4.4499	45.844
4.4461	46.082
4.4423	46.282
4.4385	46.473
4.4347	46.679
4.4309	46.890
4.4271	47.075
4.4233	47.279
4.4196	47.496
4.4158	47.716
4.4120	47.919
4.4083	48.138
4.4045	48.383
4.4008	48.650
4.3971	48.898
4.3934	49.121
4.3896	49.389
4.3859	49.689
4.3822	49.960
4.3785	50.239
4.3748	50.516
4.3711	50.753
4.3674	50.999
4.3638	51.256
4.3601	51.481
4.3564	51.704
4.3528	51.927
4.3491	52.117
4.3455	52.284
4.3418	52.443
4.3382	52.592
4.3346	52.746
4.3310	52.924
4.3273	53.098
4.3237	53.207
4.3201	53.283
4.3165	53.357
4.3129	53.448
4.3094	53.518
4.3058	53.572
4.3022	53.618
4.2986	53.660
4.2951	53.740
4.2915	53.837
4.2880	53.892
4.2844	53.957
4.2809	54.098
4.2774	54.193
4.2738	54.197
4.2703	54.251
4.2668	54.382
4.2633	54.572
4.2598	54.760
4.2563	54.933
4.2528	55.054
4.2493	55.111
4.2458	55.141
4.2424	55.189
4.2389	55.230
4.2354	55.246
4.2320	55.308
4.2285	55.413
4.2251	55.491
4.2216	55.564
4.2182	55.638
4.2148	55.713
4.2113	55.774
4.2079	55.813
4.2045	55.879
4.2011	55.917
4.1977	55.959
4.1943	56.013
4.1909	56.068
4.1875	56.159
4.1841	56.244
4.1808	56.333
4.1774	56.416
4.1740	56.480
4.1707	56.543
4.1673	56.636
4.1640	56.670
4.1606	56.731
4.1573	56.802
4.1540	56.836
4.1506	56.888
4.1473	56.967
4.1440	57.044
4.1407	57.100
4.1374	57.137
4.1341	57.206
4.1308	57.284
4.1275	57.329
4.1242	57.364
4.1209	57.411
4.1177	57.488
4.1144	57.532
4.1111	57.583
4.1079	57.643
4.1046	57.686
4.1014	57.753
4.0981	57.807
4.0949	57.841
4.0917	57.882
4.0884	57.936
4.0852	57.993
4.0820	58.029
4.0788	58.063
4.0756	58.073
4.0724	58.078
4.0692	58.109
4.0660	58.117
4.0628	58.120
4.0596	58.099
4.0565	58.092
4.0533	58.049
4.0501	58.016
4.0470	57.986
4.0438	57.938
4.0406	57.863
4.0375	57.803
4.0344	57.708
4.0312	57.614
4.0281	57.539
4.0250	57.459
4.0218	57.379
4.0187	57.308
4.0156	57.268
4.0125	57.218
4.0094	57.128
4.0063	57.017
4.0032	56.910
4.0001	56.810
3.9970	56.659
3.9940	56.509
3.9909	56.403
3.9878	56.274
3.9847	56.173
3.9817	56.118
3.9786	56.108
3.9756	56.120
3.9725	56.158
3.9695	56.212
3.9665	56.320
3.9634	56.432
3.9604	56.544
3.9574	56.699
3.9544	56.872
3.9513	57.023
3.9483	57.193
3.9453	57.378
3.9423	57.568
3.9393	57.726
3.9363	57.856
3.9333	57.929
3.9304	57.948
3.9274	57.995
3.9244	58.036
3.9214	58.106
3.9185	58.154
3.9155	58.158
3.9126	58.154
3.9096	58.161
3.9067	58.155
3.9037	58.171
3.9008	58.184
3.8979	58.170
3.8949	58.179
3.8920	58.170
3.8891	58.145
3.8862	58.135
3.8833	58.130
3.8804	58.146
3.8775	58.142
3.8746	58.106
3.8717	58.104
3.8688	58.093
3.8659	58.060
3.8630	58.048
3.8601	58.054
3.8573	58.065
3.8544	58.093
3.8515	58.106
3.8487	58.096
3.8458	58.103
3.8430	58.126
3.8401	58.157
3.8373	58.166
3.8344	58.206
3.8316	58.236
3.8288	58.317
3.8259	58.357
3.8231	58.378
3.8203	58.438
3.8175	58.477
3.8147	58.520
3.8119	58.539
3.8091	58.565
3.8063	58.580
3.8035	58.600
3.8007	58.634
3.7979	58.660
3.7951	58.682
3.7924	58.697
3.7896	58.708
3.7868	58.696
3.7841	58.669
3.7813	58.639
3.7785	58.605
3.7758	58.599
3.7730	58.595
3.7703	58.577
3.7676	58.511
3.7648	58.440
3.7621	58.424
3.7594	58.424
3.7566	58.398
3.7539	58.345
3.7512	58.314
3.7485	58.302
3.7458	58.271
3.7431	58.215
3.7404	58.197
3.7377	58.199
3.7350	58.213
3.7323	58.208
3.7296	58.190
3.7269	58.162
3.7242	58.128
3.7216	58.113
3.7189	58.116
3.7162	58.107
3.7136	58.123
3.7109	58.117
3.7083	58.101
3.7056	58.089
3.7030	58.117
3.7003	58.116
3.6977	58.110
3.6950	58.091
3.6924	58.098
3.6898	58.120
3.6872	58.140
3.6845	58.107
3.6819	58.102
3.6793	58.131
3.6767	58.118
3.6741	58.083
3.6715	58.079
3.6689	58.080
3.6663	58.063
3.6637	58.055
3.6611	58.049
3.6585	58.025
3.6560	57.986
3.6534	57.948
3.6508	57.934
3.6482	57.925
3.6457	57.899
3.6431	57.874
3.6406	57.813
3.6380	57.764
3.6355	57.746
3.6329	57.687
3.6304	57.644
3.6278	57.632
3.6253	57.619
3.6227	57.567
3.6202	57.525
3.6177	57.486
3.6152	57.455
3.6127	57.391
3.6101	57.354
3.6076	57.322
3.6051	57.287
3.6026	57.245
3.6001	57.209
3.5976	57.148
3.5951	57.091
3.5926	57.041
3.5901	56.999
3.5876	56.961
3.5852	56.926
3.5827	56.887
3.5802	56.820
3.5777	56.752
3.5753	56.718
3.5728	56.706
3.5704	56.649
3.5679	56.595
3.5654	56.555
3.5630	56.481
3.5605	56.428
3.5581	56.396
3.5557	56.318
3.5532	56.261
3.5508	56.214
3.5484	56.141
3.5459	56.067
3.5435	56.028
3.5411	55.944
3.5387	55.879
3.5363	55.834
3.5338	55.743
3.5314	55.653
3.5290	55.552
3.5266	55.434
3.5242	55.331
3.5218	55.220
3.5195	55.076
3.5171	54.936
3.5147	54.827
3.5123	54.679
3.5099	54.511
3.5075	54.387
3.5052	54.245
3.5028	54.134
3.5004	54.077
3.4981	54.026
3.4957	53.983
3.4934	53.917
3.4910	53.850
3.4887	53.809
3.4863	53.715
3.4840	53.642
3.4816	53.590
3.4793	53.491
3.4770	53.420
3.4746	53.411
3.4723	53.424
3.4700	53.424
3.4677	53.421
3.4653	53.444
3.4630	53.442
3.4607	53.423
3.4584	53.392
3.4561	53.324
3.4538	53.270
3.4515	53.218
3.4492	53.154
3.4469	53.064
3.4446	52.962
3.4423	52.854
3.4400	52.725
3.4378	52.611
3.4355	52.556
3.4332	52.514
3.4309	52.389
3.4287	52.208
3.4264	52.077
3.4241	51.943
3.4219	51.804
3.4196	51.680
3.4174	51.555
3.4151	51.477
3.4129	51.407
3.4106	51.375
3.4084	51.324
3.4061	51.259
3.4039	51.236
3.4017	51.227
3.3994	51.179
3.3972	51.121
3.3950	51.085
3.3928	51.059
3.3906	50.981
3.3883	50.895
3.3861	50.817
3.3839	50.728
3.3817	50.645
3.3795	50.563
3.3773	50.446
3.3751	50.311
3.3729	50.233
3.3707	50.226
3.3685	50.193
3.3663	50.139
3.3641	50.052
3.3620	49.976
3.3598	49.923
3.3576	49.878
3.3554	49.758
3.3533	49.657
3.3511	49.577
3.3489	49.499
3.3468	49.470
3.3446	49.453
3.3425	49.421
3.3403	49.362
3.3382	49.326
3.3360	49.284
3.3339	49.216
3.3317	49.164
3.3296	49.109
3.3274	48.992
3.3253	48.888
3.3232	48.817
3.3210	48.712
3.3189	48.634
3.3168	48.567
3.3147	48.449
3.3126	48.317
3.3104	48.216
3.3083	48.108
3.3062	47.994
3.3041	47.893
3.3020	47.773
3.2999	47.659
3.2978	47.557
3.2957	47.478
3.2936	47.355
3.2915	47.184
3.2894	47.077
3.2874	46.968
3.2853	46.832
3.2832	46.723
3.2811	46.635
3.2790	46.521
3.2770	46.377
3.2749	46.239
3.2728	46.147
3.2708	46.041
3.2687	45.901
3.2666	45.796
3.2646	45.658
3.2625	45.491
3.2605	45.364
3.2584	45.264
3.2564	45.159
3.2543	45.037
3.2523	44.889
3.2503	44.763
3.2482	44.655
3.2462	44.527
3.2442	44.401
3.2421	44.267
3.2401	44.139
3.2381	43.993
3.2361	43.880
3.2340	43.734
3.2320	43.586
3.2300	43.483
3.2280	43.351
3.2260	43.208
3.2240	43.089
3.2220	42.949
3.2200	42.817
3.2180	42.699
3.2160	42.567
3.2140	42.398
3.2120	42.245
3.2100	42.113
3.2080	41.984
3.2060	41.841
3.2040	41.707
3.2021	41.525
3.2001	41.413
3.1981	41.305
3.1961	41.144
3.1942	41.020
3.1922	40.869
3.1902	40.734
3.1883	40.569
3.1863	40.431
3.1844	40.335
3.1824	40.216
3.1805	40.031
3.1785	39.842
3.1766	39.701
3.1746	39.562
3.1727	39.442
3.1707	39.298
3.1688	39.182
3.1669	39.036
3.1649	38.910
3.1630	38.770
3.1611	38.641
3.1591	38.488
3.1572	38.303
3.1553	38.174
3.1534	38.059
3.1515	37.936
3.1495	37.808
3.1476	37.633
3.1457	37.474
3.1438	37.351
3.1419	37.211
3.1400	37.052
3.1381	36.915
3.1362	36.780
3.1343	36.635
3.1324	36.518
3.1305	36.374
3.1286	36.252
3.1268	36.139
3.1249	36.034
3.1230	35.911
3.1211	35.784
3.1192	35.649
3.1174	35.517
3.1155	35.435
3.1136	35.322
3.1117	35.171
3.1099	35.045
3.1080	34.937
3.1061	34.845
3.1043	34.754
3.1024	34.626
3.1006	34.514
3.0987	34.402
3.0969	34.303
3.0950	34.168
3.0932	34.049
3.0913	33.998
3.0895	33.928
3.0876	33.817
3.0858	33.714
3.0840	33.632
3.0821	33.527
3.0803	33.440
3.0785	33.372
3.0766	33.294
3.0748	33.225
3.0730	33.153
3.0712	33.045
3.0694	32.984
3.0675	32.937
3.0657	32.831
3.0639	32.694
3.0621	32.654
3.0603	32.632
3.0585	32.551
3.0567	32.448
3.0549	32.308
3.0531	32.227
3.0513	32.198
3.0495	32.139
3.0477	32.039
3.0459	31.958
3.0441	31.915
3.0423	31.870
3.0406	31.779
3.0388	31.705
3.0370	31.623
3.0352	31.496
3.0334	31.422
3.0317	31.380
3.0299	31.305
3.0281	31.196
3.0264	31.130
3.0246	31.038
3.0228	30.949
3.0211	30.887
3.0193	30.831
3.0176	30.706
3.0158	30.615
3.0140	30.540
3.0123	30.452
3.0105	30.413
3.0088	30.365
3.0070	30.266
3.0053	30.190
3.0036	30.116
3.0018	30.022
3.0001	29.972
2.9984	29.891
2.9966	29.794
2.9949	29.691
2.9932	29.582
2.9914	29.560
2.9897	29.528
2.9880	29.448
2.9863	29.356
2.9845	29.279
2.9828	29.184
2.9811	29.111
2.9794	29.068
2.9777	29.004
2.9760	28.918
2.9743	28.781
2.9726	28.685
2.9709	28.656
2.9692	28.537
2.9675	28.437
2.9658	28.375
2.9641	28.327
2.9624	28.276
2.9607	28.206
2.9590	28.121
2.9573	28.083
2.9556	28.091
2.9539	28.093
2.9523	28.071
2.9506	28.027
2.9489	27.980
2.9472	27.960
2.9455	27.969
2.9439	27.992
2.9422	27.961
2.9405	27.901
2.9389	27.897
2.9372	27.934
2.9355	27.969
2.9339	27.901
2.9322	27.914
2.9306	27.924
2.9289	27.861
2.9272	27.855
2.9256	27.869
2.9239	27.883
2.9223	27.944
2.9207	27.945
2.9190	27.958
2.9174	27.996
2.9157	27.992
2.9141	28.037
2.9124	28.073
2.9108	28.107
2.9092	28.065
2.9075	28.059
2.9059	28.156
2.9043	28.200
2.9027	28.245
2.9010	28.333
2.8994	28.379
2.8978	28.416
2.8962	28.460
2.8946	28.537
2.8929	28.574
2.8913	28.607
2.8897	28.619
2.8881	28.708
2.8865	28.741
2.8849	28.741
2.8833	28.806
2.8817	28.862
2.8801	28.943
2.8785	29.000
2.8769	29.073
2.8753	29.106
2.8737	29.134
2.8721	29.226
2.8705	29.333
2.8689	29.362
2.8673	29.362
2.8658	29.452
2.8642	29.536
2.8626	29.582
2.8610	29.655
2.8594	29.691
2.8579	29.744
2.8563	29.818
2.8547	29.877
2.8531	29.972
2.8516	30.022
2.8500	30.039
2.8484	30.126
2.8469	30.217
2.8453	30.314
2.8437	30.403
2.8422	30.399
2.8406	30.419
2.8391	30.495
2.8375	30.588
2.8360	30.618
2.8344	30.664
2.8329	30.733
2.8313	30.772
2.8298	30.891
2.8282	30.925
2.8267	30.911
2.8252	30.990
2.8236	31.016
2.8221	31.037
2.8205	31.068
2.8190	31.095
2.8175	31.163
2.8159	31.199
2.8144	31.222
2.8129	31.227
2.8114	31.235
2.8098	31.301
2.8083	31.346
2.8068	31.337
2.8053	31.287
2.8038	31.207
2.8022	31.187
2.8007	31.236
2.7992	31.250
2.7977	31.235
2.7962	31.128
2.7947	31.040
2.7932	30.962
2.7917	30.836
2.7902	30.717
2.7887	30.611
2.7872	30.423
2.7857	30.270
2.7842	30.164
2.7827	30.010
2.7812	29.810
2.7797	29.620
2.7782	29.450
2.7767	29.291
2.7752	29.145
2.7738	28.935
2.7723	28.662
2.7708	28.382
2.7693	28.135
2.7678	27.837
2.7664	27.500
2.7649	27.083
2.7634	26.484
2.7619	26.164
2.7605	26.451
2.7590	26.909
2.7575	27.241
2.7561	27.406
2.7546	27.656
2.7531	28.093
2.7517	28.528
2.7502	28.910
2.7488	29.251
2.7473	29.624
2.7458	29.950
2.7444	30.248
2.7429	30.527
2.7415	30.776
2.7400	31.069
2.7386	31.473
2.7371	32.020
2.7357	32.548
2.7343	33.116
2.7328	33.835
2.7314	34.560
2.7299	35.164
2.7285	35.821
2.7271	36.493
2.7256	37.119
2.7242	37.841
2.7228	38.909
2.7213	39.905
2.7199	40.886
2.7185	42.044
2.7171	42.940
2.7156	43.621
2.7142	44.090
2.7128	44.376
2.7114	44.263
2.7100	44.162
2.7085	44.175
2.7071	44.076
2.7057	44.011
2.7043	44.207
2.7029	44.947
2.7015	46.205
2.7001	47.721
2.6987	49.270
2.6973	50.665
2.6959	51.822
2.6945	52.797
2.6931	53.743
2.6917	54.727
2.6903	55.518
2.6889	56.199
2.6875	56.746
2.6861	57.167
2.6847	57.577
2.6833	58.013
2.6819	58.428
2.6805	58.659
2.6791	58.687
2.6778	58.856
2.6764	58.958
2.6750	59.153
2.6736	59.423
2.6722	59.551
2.6709	59.385
2.6695	59.693
2.6681	60.359
2.6667	60.540
2.6654	60.694
2.6640	61.067
2.6626	61.460
2.6613	61.535
2.6599	61.585
2.6585	61.747
2.6572	61.939
2.6558	61.972
2.6545	62.127
2.6531	62.188
2.6517	62.256
2.6504	62.380
2.6490	62.478
2.6477	62.487
2.6463	62.467
2.6450	62.466
2.6436	62.637
2.6423	62.668
2.6409	62.696
2.6396	62.750
2.6382	62.810
2.6369	62.788
2.6356	62.786
2.6342	62.788
2.6329	62.816
2.6315	62.632
2.6302	62.475
2.6289	62.746
2.6275	62.836
2.6262	62.739
2.6249	62.967
2.6236	63.064
2.6222	63.017
2.6209	62.736
2.6196	62.655
2.6183	62.881
2.6169	62.750
2.6156	62.854
2.6143	63.046
2.6130	63.075
2.6117	63.145
2.6103	63.083
2.6090	63.024
2.6077	63.064
2.6064	62.887
2.6051	62.711
2.6038	62.915
2.6025	63.125
2.6012	63.173
2.5999	63.204
2.5986	63.242
2.5973	63.199
2.5960	62.823
2.5947	62.439
2.5934	62.743
2.5921	63.231
2.5908	63.343
2.5895	63.242
2.5882	63.119
2.5869	63.149
2.5856	63.293
2.5843	63.130
2.5830	63.104
2.5817	63.255
2.5805	63.332
2.5792	63.380
2.5779	63.277
2.5766	63.211
2.5753	63.257
2.5741	63.206
2.5728	63.163
2.5715	63.296
2.5702	63.340
2.5690	63.267
2.5677	63.363
2.5664	63.432
2.5651	63.394
2.5639	63.279
2.5626	63.253
2.5613	63.268
2.5601	63.400
2.5588	63.479
2.5575	63.475
2.5563	63.486
2.5550	63.476
2.5538	63.432
2.5525	63.374
2.5513	63.394
2.5500	63.478
2.5487	63.493
2.5475	63.474
2.5462	63.536
2.5450	63.502
2.5437	63.398
2.5425	63.400
2.5413	63.530
2.5400	63.592
2.5388	63.555
2.5375	63.552
2.5363	63.534
2.5350	63.548
2.5338	63.532
2.5326	63.477
2.5313	63.428
2.5301	63.443
2.5289	63.553
2.5276	63.598
2.5264	63.519
2.5252	63.515
2.5239	63.567
2.5227	63.553
2.5215	63.539
2.5202	63.574
2.5190	63.529
2.5178	63.537
2.5166	63.665
2.5154	63.725
2.5141	63.621
2.5129	63.496
2.5117	63.497
2.5105	63.576
2.5093	63.627
2.5081	63.639
2.5068	63.694
2.5056	63.629
2.5044	63.568
2.5032	63.607
2.5020	63.634
2.5008	63.591
2.4996	63.575
2.4984	63.653
2.4972	63.666
2.4960	63.607
2.4948	63.603
2.4936	63.628
2.4924	63.617
2.4912	63.683
2.4900	63.662
2.4888	63.681
2.4876	63.725
2.4864	63.684
2.4852	63.677
2.4840	63.715
2.4828	63.766
2.4816	63.684
2.4805	63.703
2.4793	63.755
2.4781	63.666
2.4769	63.664
2.4757	63.688
2.4745	63.677
2.4734	63.755
2.4722	63.796
2.4710	63.818
2.4698	63.773
2.4686	63.802
2.4675	63.899
2.4663	63.849
2.4651	63.774
2.4640	63.803
2.4628	63.836
2.4616	63.815
2.4604	63.788
2.4593	63.780
2.4581	63.844
2.4569	63.769
2.4558	63.734
2.4546	63.769
2.4535	63.841
2.4523	63.841
2.4511	63.776
2.4500	63.751
2.4488	63.784
2.4477	63.831
2.4465	63.859
2.4454	63.807
2.4442	63.846
2.4431	63.845
2.4419	63.863
2.4408	63.815
2.4396	63.788
2.4385	63.819
2.4373	63.881
2.4362	63.862
2.4350	63.846
2.4339	63.930
2.4327	63.920
2.4316	63.884
2.4305	63.991
2.4293	64.043
2.4282	63.981
2.4270	63.900
2.4259	63.905
2.4248	64.060
2.4236	64.081
2.4225	64.020
2.4214	64.037
2.4202	64.123
2.4191	64.065
2.4180	64.015
2.4169	64.009
2.4157	64.077
2.4146	64.122
2.4135	64.129
2.4124	64.152
2.4112	64.042
2.4101	64.062
2.4090	64.107
2.4079	64.223
2.4068	64.217
2.4056	64.195
2.4045	64.234
2.4034	64.187
2.4023	64.182
2.4012	64.228
2.4001	64.270
2.3990	64.247
2.3979	64.222
2.3967	64.166
2.3956	64.186
2.3945	64.186
2.3934	64.112
2.3923	64.131
2.3912	64.242
2.3901	64.247
2.3890	64.203
2.3879	64.193
2.3868	64.165
2.3857	64.130
2.3846	64.112
2.3835	64.067
2.3824	64.075
2.3813	64.030
2.3802	64.023
2.3791	64.147
2.3781	64.220
2.3770	64.204
2.3759	64.099
2.3748	64.053
2.3737	64.113
2.3726	64.219
2.3715	64.219
2.3704	64.192
2.3694	64.160
2.3683	64.148
2.3672	64.167
2.3661	64.222
2.3650	64.219
2.3640	64.216
2.3629	64.265
2.3618	64.152
2.3607	64.025
2.3597	64.026
2.3586	64.050
2.3575	64.099
2.3564	64.098
2.3554	64.090
2.3543	64.151
2.3532	64.153
2.3522	64.167
2.3511	64.179
2.3500	64.225
2.3490	64.279
2.3479	64.225
2.3468	64.203
2.3458	64.204
2.3447	64.180
2.3436	64.222
2.3426	64.177
2.3415	64.141
2.3405	64.166
2.3394	64.272
2.3384	64.244
2.3373	64.224
2.3363	64.233
2.3352	64.269
2.3342	64.350
2.3331	64.429
2.3321	64.466
2.3310	64.307
2.3300	64.297
2.3289	64.383
2.3279	64.454
2.3268	64.458
2.3258	64.418
2.3247	64.486
2.3237	64.511
2.3226	64.420
2.3216	64.444
2.3206	64.409
2.3195	64.459
2.3185	64.515
2.3175	64.478
2.3164	64.494
2.3154	64.501
2.3144	64.490
2.3133	64.475
2.3123	64.530
2.3113	64.596
2.3102	64.494
2.3092	64.550
2.3082	64.632
2.3071	64.602
2.3061	64.619
2.3051	64.620
2.3041	64.617
2.3030	64.656
2.3020	64.587
2.3010	64.587
2.3000	64.635
2.2990	64.697
2.2979	64.647
2.2969	64.620
2.2959	64.596
2.2949	64.596
2.2939	64.587
2.2929	64.595
2.2918	64.613
2.2908	64.649
2.2898	64.642
2.2888	64.635
2.2878	64.666
2.2868	64.563
2.2858	64.591
2.2848	64.654
2.2838	64.622
2.2828	64.567
2.2818	64.686
2.2808	64.714
2.2798	64.667
2.2787	64.588
2.2777	64.699
2.2767	64.669
2.2757	64.579
2.2747	64.603
2.2738	64.609
2.2728	64.669
2.2718	64.677
2.2708	64.655
2.2698	64.610
2.2688	64.549
2.2678	64.580
2.2668	64.617
2.2658	64.705
2.2648	64.662
2.2638	64.540
2.2628	64.555
2.2618	64.597
2.2609	64.541
2.2599	64.455
2.2589	64.417
2.2579	64.479
2.2569	64.519
2.2559	64.475
2.2550	64.430
2.2540	64.477
2.2530	64.423
2.2520	64.323
2.2510	64.434
2.2501	64.571
2.2491	64.538
2.2481	64.512
2.2471	64.450
2.2462	64.508
2.2452	64.506
2.2442	64.515
2.2433	64.527
2.2423	64.534
2.2413	64.477
2.2403	64.385
2.2394	64.363
2.2384	64.406
2.2374	64.531
2.2365	64.498
2.2355	64.427
2.2345	64.405
2.2336	64.447
2.2326	64.392
2.2317	64.429
2.2307	64.543
2.2297	64.437
2.2288	64.315
2.2278	64.273
2.2269	64.316
2.2259	64.329
2.2250	64.282
2.2240	64.231
2.2231	64.288
2.2221	64.289
2.2211	64.230
2.2202	64.229
2.2192	64.281
2.2183	64.220
2.2173	64.147
2.2164	64.146
2.2155	64.163
2.2145	64.150
2.2136	64.075
2.2126	64.000
2.2117	63.927
2.2107	63.903
2.2098	63.861
2.2088	63.829
2.2079	63.913
2.2070	63.935
2.2060	63.901
2.2051	63.968
2.2041	64.000
2.2032	64.013
2.2023	64.022
2.2013	64.044
2.2004	64.021
2.1995	64.063
2.1985	64.044
2.1976	63.997
2.1967	64.063
2.1957	64.169
2.1948	64.185
2.1939	64.229
2.1930	64.197
2.1920	64.200
2.1911	64.302
2.1902	64.316
2.1893	64.277
2.1883	64.303
2.1874	64.328
2.1865	64.395
2.1856	64.425
2.1846	64.530
2.1837	64.472
2.1828	64.467
2.1819	64.480
2.1810	64.457
2.1800	64.489
2.1791	64.601
2.1782	64.600
2.1773	64.573
2.1764	64.576
2.1755	64.616
2.1746	64.540
2.1736	64.527
2.1727	64.579
2.1718	64.680
2.1709	64.665
2.1700	64.740
2.1691	64.768
2.1682	64.806
2.1673	64.801
2.1664	64.719
2.1655	64.643
2.1646	64.710
2.1637	64.816
2.1628	64.741
2.1619	64.703
2.1610	64.768
2.1601	64.837
2.1592	64.830
2.1583	64.855
2.1574	64.864
2.1565	64.803
2.1556	64.694
2.1547	64.684
2.1538	64.799
2.1529	64.801
2.1520	64.768
2.1511	64.803
2.1502	64.809
2.1493	64.728
2.1484	64.761
2.1475	64.867
2.1466	64.947
2.1458	64.895
2.1449	64.862
2.1440	64.880
2.1431	64.921
2.1422	64.907
2.1413	64.806
2.1404	64.802
2.1396	64.851
2.1387	64.811
2.1378	64.789
2.1369	64.801
2.1360	64.820
2.1352	64.819
2.1343	64.789
2.1334	64.843
2.1325	64.873
2.1316	64.916
2.1308	64.931
2.1299	64.837
2.1290	64.827
2.1281	64.842
2.1273	64.758
2.1264	64.855
2.1255	64.911
2.1247	64.859
2.1238	64.827
2.1229	64.812
2.1220	64.810
2.1212	64.814
2.1203	64.839
2.1194	64.829
2.1186	64.881
2.1177	64.904
2.1168	64.829
2.1160	64.824
2.1151	64.832
2.1143	64.792
2.1134	64.783
2.1125	64.857
2.1117	64.873
2.1108	64.832
2.1100	64.792
2.1091	64.722
2.1082	64.783
2.1074	64.838
2.1065	64.821
2.1057	64.770
2.1048	64.751
2.1040	64.741
2.1031	64.772
2.1023	64.757
2.1014	64.787
2.1005	64.795
2.0997	64.833
2.0988	64.842
2.0980	64.888
2.0971	64.870
2.0963	64.789
2.0955	64.680
2.0946	64.683
2.0938	64.707
2.0929	64.736
2.0921	64.743
2.0912	64.813
2.0904	64.767
2.0895	64.788
2.0887	64.787
2.0879	64.729
2.0870	64.753
2.0862	64.804
2.0853	64.824
2.0845	64.738
2.0837	64.673
2.0828	64.710
2.0820	64.771
2.0812	64.832
2.0803	64.867
2.0795	64.815
2.0760	64.815
2.0720	64.893
2.0680	64.872
2.0640	64.872
2.0600	64.964
2.0560	64.971
2.0520	64.836
2.0480	64.497
2.0440	64.385
2.0400	64.073
2.0360	63.851
2.0320	64.015
2.0280	64.309
2.0240	64.198
2.0200	63.411
2.0160	63.320
2.0120	63.148
2.0080	63.684
2.0040	63.103
2.0000	63.211
1.9960	63.211
1.9920	62.848
1.9880	62.740
1.9840	62.636
1.9800	62.583
1.9760	62.283
1.9720	62.089
1.9680	61.983
1.9640	61.930
1.9600	61.930
1.9560	61.998
1.9520	62.121
1.9480	62.008
1.9440	62.001
1.9400	61.957
1.9360	61.635
1.9320	61.143
1.9280	61.357
1.9240	61.235
1.9200	61.037
1.9160	61.019
1.9120	61.388
1.9080	61.320
1.9040	61.337
1.9000	61.575
1.8960	61.577
1.8920	61.630
1.8880	62.023
1.8840	61.840
1.8800	62.023
1.8760	62.212
1.8720	62.451
1.8680	62.121
1.8640	62.150
1.8600	62.020
1.8560	62.106
1.8520	62.290
1.8480	62.379
1.8440	62.531
1.8400	62.689
1.8360	62.778
1.8320	62.871
1.8280	62.923
1.8240	62.713
1.8200	62.467
1.8160	62.222
1.8120	62.321
1.8080	62.067
1.8040	62.258
1.8000	62.258
1.7960	62.227
1.7920	62.061
1.7880	61.906
1.7840	61.869
1.7800	61.788
1.7760	62.258
1.7720	62.045
1.7680	61.692
1.7640	61.722
1.7600	61.773
1.7560	61.899
1.7520	62.128
1.7480	62.180
1.7440	62.113
1.7400	62.305
1.7360	62.693
1.7320	62.300
1.7280	62.033
1.7240	62.033
1.7200	62.300
1.7160	62.284
1.7120	62.217
1.7080	61.982
1.7040	61.957
1.7000	61.906
1.6960	61.906
1.6920	61.854
1.6880	61.869
1.6840	61.854
1.6800	61.626
1.6760	61.729
1.6720	61.781
1.6680	61.957
1.6640	61.729
1.6600	61.590
1.6560	61.461
1.6520	61.806
1.6480	61.806
1.6440	61.857
1.6400	61.438
1.6360	61.436
1.6320	61.651
1.6280	61.452
1.6240	61.618
1.6200	61.717
1.6160	61.438
1.6120	61.335
1.6080	61.349
1.6040	61.850
1.6000	61.761
1.5960	61.517
1.5920	61.377
1.5880	61.122
1.5840	60.919
1.5800	60.906
1.5760	61.247
1.5720	61.007
1.5680	61.007
1.5640	61.092
1.5600	61.196
1.5560	60.994
1.5520	61.204
1.5480	61.407
1.5440	61.407
1.5400	61.356
1.5360	61.204
1.5320	60.852
1.5280	61.054
1.5240	61.054
1.5200	60.916
1.5160	60.953
1.5120	60.714
1.5080	60.275
1.5040	60.122
1.5000	60.346
1.4960	59.484
1.4920	59.874
1.4880	59.863
1.4840	60.088
1.4800	60.060
1.4760	60.225
1.4720	60.137
1.4680	60.011
1.4640	60.049
1.4600	60.125
1.4560	60.186
1.4520	60.485
1.4480	60.359
1.4440	60.294
1.4400	60.267
1.4360	60.240
1.4320	60.151
1.4280	60.011
1.4240	60.138
1.4200	60.088
1.4160	59.834
1.4120	59.877
1.4080	59.888
1.4040	59.460
1.4000	59.938
1.3960	59.877
1.3920	60.084
1.3880	60.235
1.3840	60.336
1.3800	60.359
1.3760	60.297
1.3720	60.266
1.3680	60.027
1.3640	60.082
1.3600	60.205
1.3560	60.563
1.3520	60.430
1.3480	60.410
1.3440	60.698
1.3400	60.288
1.3360	60.174
1.3320	59.989
1.3280	60.027
1.3240	60.125
1.3200	60.421
1.3160	60.356
1.3120	60.075
1.3080	60.223
1.3040	60.273
1.3000	60.323
1.2960	60.284
1.2920	60.345
1.2880	60.406
1.2840	60.301
1.2800	60.144
1.2760	60.463
1.2720	60.716
1.2680	60.373
1.2640	59.845
1.2600	59.706
1.2560	59.667
1.2520	59.775
1.2480	60.243
1.2440	60.343
1.2400	60.366
1.2360	60.285
1.2320	59.934
1.2280	59.964
1.2240	60.293
1.2200	60.364
1.2160	60.245
1.2120	59.696
1.2080	59.450
1.2040	59.706
1.2000	59.834
1.1960	59.863
1.1920	59.913
1.1880	59.903
1.1840	59.805
1.1800	59.689
1.1760	59.795
1.1720	60.019
1.1680	59.865
1.1640	59.835
1.1600	59.757
1.1560	59.599
1.1520	59.431
1.1480	59.165
1.1440	59.578
1.1400	60.012
1.1360	60.311
1.1320	59.923
1.1280	59.883
1.1240	59.401
1.1200	59.498
1.1160	59.441
1.1120	59.569
1.1080	59.451
1.1040	59.500
1.1000	59.597
1.0960	59.451
1.0920	59.322
1.0880	59.225
1.0840	59.322
1.0800	59.066
1.0760	59.283
1.0720	59.187
1.0680	59.461
1.0640	59.034
1.0600	59.130
1.0560	59.042
1.0520	59.098
1.0480	59.227
1.0440	59.219
1.0400	58.802
1.0360	58.906
1.0320	58.921
1.0280	59.243
1.0240	59.438
1.0200	59.098
1.0160	58.969
1.0120	58.873
1.0080	59.098
1.0040	59.225
1.0000	58.807
0.9960	58.807
0.9920	58.451
0.9880	58.464
0.9840	58.567
0.9800	58.703
0.9760	58.645
0.9720	58.189
0.9680	58.155
0.9640	58.026
0.9600	57.884
0.9560	58.073
0.9520	57.937
0.9480	57.937
0.9440	57.671
0.9400	57.785
0.9360	57.703
0.9320	57.561
0.9280	57.110
0.9240	57.115
0.9200	57.115
0.9160	57.027
0.9120	56.851
0.9080	57.339
0.9040	56.809
0.9000	56.752
0.8960	56.538
0.8920	56.538
0.8880	56.677
0.8840	56.454
0.8800	56.522
0.8760	56.345
0.8720	56.303
0.8680	56.214
0.8640	56.129
0.8600	56.408
0.8560	56.183
0.8520	56.094
0.8480	56.051
0.8440	55.959
0.8400	55.732
0.8360	55.913
0.8320	55.729
0.8280	55.775
0.8240	55.772
0.8200	55.726
0.8160	55.896
0.8120	55.714
0.8080	55.799
0.8040	55.967
0.8000	55.783
0.7990	54.973
0.7980	54.973
0.7970	54.581
0.7960	54.881
0.7950	54.973
0.7940	54.877
0.7930	55.076
0.7920	55.244
0.7910	54.704
0.7900	54.793
0.7890	54.973
0.7880	54.980
0.7870	55.176
0.7860	55.032
0.7850	55.064
0.7840	54.961
0.7830	55.411
0.7820	55.128
0.7810	55.376
0.7800	55.376
0.7790	55.464
0.7780	55.076
0.7770	55.020
0.7760	55.024
0.7750	55.076
0.7740	54.968
0.7730	54.925
0.7720	55.112
0.7710	54.964
0.7700	55.268
0.7690	55.373
0.7680	55.233
0.7670	55.172
0.7660	55.373
0.7650	55.068
0.7640	55.304
0.7630	55.373
0.7620	55.076
0.7610	54.737
0.7600	54.928
0.7590	54.788
0.7580	55.129
0.7570	54.900
0.7560	54.788
0.7550	54.641
0.7540	54.785
0.7530	54.892
0.7520	54.996
0.7510	54.796
0.7500	54.852
0.7490	54.876
0.7480	54.589
0.7470	54.538
0.7460	54.449
0.7450	54.752
0.7440	54.804
0.7430	54.893
0.7420	54.501
0.7410	54.648
0.7400	54.566
0.7390	54.937
0.7380	54.545
0.7370	54.759
0.7360	54.760
0.7350	54.418
0.7340	54.322
0.7330	54.015
0.7320	54.015
0.7310	54.058
0.7300	54.212
0.7290	54.219
0.7280	54.411
0.7270	54.564
0.7260	54.277
0.7250	53.988
0.7240	54.026
0.7230	54.181
0.7220	54.174
0.7210	54.174
0.7200	53.923
0.7190	53.674
0.7180	53.721
0.7170	53.405
0.7160	53.291
0.7150	53.590
0.7140	53.309
0.7130	53.314
0.7120	53.347
0.7110	53.601
0.7100	53.420
0.7090	53.167
0.7080	53.212
0.7070	53.349
0.7060	52.967
0.7050	53.119
0.7040	53.114
0.7030	53.368
0.7020	53.416
0.7010	53.459
0.7000	53.311
0.6990	53.425
0.6980	52.843
0.6970	52.731
0.6960	52.872
0.6950	53.193
0.6940	53.094
0.6930	53.193
0.6920	53.339
0.6910	53.380
0.6900	53.281
0.6890	53.083
0.6880	53.093
0.6870	52.787
0.6860	53.140
0.6850	53.041
0.6840	52.834
0.6830	52.636
0.6820	52.484
0.6810	52.589
0.6800	52.385
0.6790	52.282
0.6780	51.888
0.6770	51.993
0.6760	51.996
0.6750	52.345
0.6740	52.652
0.6730	52.552
0.6720	52.146
0.6710	52.048
0.6700	51.996
0.6690	52.194
0.6680	51.894
0.6670	51.897
0.6660	51.695
0.6650	51.396
0.6640	51.852
0.6630	52.053
0.6620	51.951
0.6610	52.050
0.6600	51.951
0.6590	51.849
0.6580	51.849
0.6570	51.551
0.6560	51.201
0.6550	51.451
0.6540	51.352
0.6530	51.102
0.6520	51.156
0.6510	51.308
0.6500	51.207
0.6490	51.155
0.6480	51.054
0.6470	51.054
0.6460	51.104
0.6450	51.005
0.6440	51.005
0.6430	50.855
0.6420	50.606
0.6410	50.955
0.6400	50.856
0.6390	50.807
0.6380	50.757
0.6370	50.756
0.6360	51.055
0.6350	51.005
0.6340	50.855
0.6330	50.855
0.6320	50.806
0.6310	50.706
0.6300	50.507
0.6290	50.408
0.6280	50.159
0.6270	50.508
0.6260	50.608
0.6250	50.308
0.6240	50.208
0.6230	50.358
0.6220	50.208
0.6210	50.058
0.6200	50.158
0.6190	50.108
0.6180	50.258
0.6170	50.158
0.6160	50.108
0.6150	49.909
0.6140	49.958
0.6130	49.560
0.6120	49.461
0.6110	49.459
0.6100	49.408
0.6090	49.404
0.6080	49.157
0.6070	49.108
0.6060	49.057
0.6050	49.057
0.6040	48.853
0.6030	48.802
0.6020	48.701
0.6010	48.299
0.6000	48.339
0.5990	48.590
0.5980	48.586
0.5970	48.481
0.5960	48.177
0.5950	48.274
0.5940	48.221
0.5930	48.172
0.5920	48.115
0.5910	47.911
0.5900	48.115
0.5890	47.959
0.5880	47.809
0.5870	47.401
0.5860	47.202
0.5850	46.958
0.5840	47.197
0.5830	47.191
0.5820	46.851
0.5810	46.757
0.5800	46.267
0.5790	46.313
0.5780	46.267
0.5770	45.909
0.5760	45.844
0.5750	45.844
0.5740	45.807
0.5730	45.744
0.5720	45.517
0.5710	45.218
0.5700	44.974
0.5690	44.475
0.5680	44.045
0.5670	44.207
0.5660	44.183
0.5650	43.982
0.5640	43.550
0.5630	43.580
0.5620	43.423
0.5610	43.265
0.5600	43.034
0.5590	42.817
0.5580	41.408
0.5570	41.461
0.5560	41.247
0.5550	41.247
0.5540	41.059
0.5530	40.757
0.5520	40.695
0.5510	40.484
0.5500	40.520
0.5490	40.290
0.5480	40.329
0.5470	39.898
0.5460	39.742
0.5450	39.606
0.5440	39.760
0.5430	39.467
0.5420	39.567
0.5410	39.484
0.5400	39.041
0.5390	38.861
0.5380	38.874
0.5370	38.843
0.5360	38.783
0.5350	38.874
0.5340	38.815
0.5330	38.717
0.5320	38.312
0.5310	38.620
0.5300	38.658
0.5290	38.497
0.5280	38.363
0.5270	37.982
0.5260	37.786
0.5250	37.871
0.5240	37.796
0.5230	37.613
0.5220	37.312
0.5210	37.409
0.5200	37.309
0.5190	37.258
0.5180	37.454
0.5170	37.358
0.5160	37.235
0.5150	37.209
0.5140	37.029
0.5130	37.101
0.5120	37.039
0.5110	37.099
0.5100	36.506
0.5090	36.576
0.5080	36.252
0.5070	36.455
0.5060	36.855
0.5050	36.807
0.5040	36.828
0.5030	36.596
0.5020	36.385
0.5010	36.232
0.5000	36.266
0.4990	36.069
0.4980	36.126
0.4970	35.867
0.4960	36.091
0.4950	35.800
0.4940	35.596
0.4930	35.564
0.4920	35.568
0.4910	35.666
0.4900	35.477
0.4890	35.347
0.4880	35.575
0.4870	35.443
0.4860	35.286
0.4850	35.054
0.4840	34.956
0.4830	35.188
0.4820	35.020
0.4810	34.956
0.4800	34.795
0.4790	34.956
0.4780	34.895
0.4770	34.665
0.4760	34.567
0.4750	34.375
0.4740	34.309
0.4730	34.343
0.4720	34.180
0.4710	34.278
0.4700	34.278
0.4690	34.180
0.4680	34.113
0.4670	34.212
0.4660	34.018
0.4650	33.951
0.4640	33.953
0.4630	33.691
0.4620	33.890
0.4610	33.792
0.4600	33.532
0.4590	34.255
0.4580	34.084
0.4570	34.209
0.4560	33.942
0.4550	33.674
0.4540	33.942
0.4530	34.074
0.4520	34.002
0.4510	33.802
0.4500	33.899
0.4490	33.738
0.4480	33.765
0.4470	33.495
0.4460	33.185
0.4450	33.279
0.4440	33.200
0.4430	33.129
0.4420	33.484
0.4410	32.912
0.4400	32.781
0.4390	32.649
0.4380	32.538
0.4370	32.487
0.4360	32.385
0.4350	32.711
0.4340	32.414
0.4330	32.252
0.4320	32.067
0.4310	31.893
0.4300	32.023
0.4290	31.700
0.4280	31.493
0.4270	31.669
0.4260	31.449
0.4250	31.700
0.4240	31.288
0.4230	31.581
0.4220	31.155
0.4210	31.050
0.4200	31.005
0.4190	30.860
0.4180	31.168
0.4170	30.730
0.4160	30.535
0.4150	30.385
0.4140	30.330
0.4130	30.440
0.4120	30.412
0.4110	30.073
0.4100	30.227
0.4090	30.126
0.4080	30.025
0.4070	29.725
0.4060	30.111
0.4050	30.057
0.4040	29.934
0.4030	29.805
0.4020	29.858
0.4010	29.705
0.4000	29.135
