Name: Alkalic Syenite
Type: Rocks
Class: Igneous
Subclass: Intermediate
Particle Size: 0-75 micrometers
Sample No.: Syenite.H1
Owner: JHU
Wavelength range: All
Origin: Golden Cycle Mine, near Victor, Teller County, Colorado, via 
Ward's Scientific (Cat. No. W-14)
Description: Sample from which powder was derived is dark gray  fine-
grained rock spotted with white feldspar grains in a dark gray groundmass 
with scattered mafics, opaques, and sulfides.



Measurement: Directional (10 degree) hemispherical reflectance
First Column: X
Second Column: Y
X Units: Wavelength (micrometers)
Y Units: Reflectance (percent)
First X Value: 14.0112
Last X Value: 0.4000
Number of X Values: 2844
Additional information: syenit1a.txt

14.011	0.9637
13.973	1.2900
13.936	1.3556
13.899	0.9825
13.861	0.4322
13.824	0.2006
13.788	1.1813
13.751	0.9084
13.715	0.0000
13.679	0.3712
13.643	1.4672
13.607	0.2512
13.571	0.0000
13.536	0.0000
13.500	0.4880
13.465	0.7055
13.430	0.8536
13.396	0.9379
13.361	0.6811
13.327	0.6418
13.293	1.1405
13.259	0.6286
13.225	0.2935
13.191	0.3928
13.158	1.1489
13.124	1.3735
13.091	0.9572
13.058	0.7043
13.026	0.9019
12.993	0.9968
12.960	0.7327
12.928	0.7332
12.896	0.9237
12.864	1.0055
12.832	0.8039
12.800	0.5730
12.769	0.7943
12.737	1.1421
12.706	1.2314
12.675	1.0524
12.644	1.1002
12.614	1.1327
12.583	1.0554
12.552	1.1018
12.522	1.5415
12.492	1.8132
12.462	1.8338
12.432	1.9291
12.402	2.1333
12.373	2.4075
12.343	2.8912
12.314	3.0356
12.285	3.1678
12.256	3.3328
12.227	3.4284
12.198	3.5943
12.169	3.9567
12.141	4.2021
12.113	4.2304
12.084	4.3502
12.056	4.3767
12.028	4.3884
12.000	4.5586
11.973	4.5755
11.945	4.6425
11.918	4.7255
11.890	4.7372
11.863	4.6739
11.836	4.6629
11.809	4.7426
11.782	4.8084
11.755	4.7301
11.729	4.6467
11.702	4.5924
11.676	4.5881
11.650	4.6364
11.624	4.7217
11.598	4.6826
11.572	4.7015
11.546	4.6961
11.520	4.6270
11.495	4.4960
11.469	4.4585
11.444	4.4878
11.419	4.4412
11.394	4.4459
11.369	4.4990
11.344	4.4721
11.319	4.3737
11.294	4.3696
11.270	4.3929
11.245	4.3315
11.221	4.1867
11.197	4.1384
11.173	4.0955
11.149	3.9860
11.125	4.0237
11.101	3.9590
11.077	3.8527
11.054	3.7717
11.030	3.7104
11.007	3.6647
10.983	3.5779
10.960	3.5576
10.937	3.5088
10.914	3.4476
10.891	3.3855
10.868	3.2740
10.846	3.2062
10.823	3.1551
10.800	3.1273
10.778	3.0654
10.755	2.9852
10.733	2.9029
10.711	2.8650
10.689	2.8317
10.667	2.7900
10.645	2.8315
10.623	2.8275
10.602	2.7452
10.580	2.7951
10.558	2.7832
10.537	2.7605
10.516	2.7485
10.494	2.7089
10.473	2.6777
10.452	2.7084
10.431	2.7553
10.410	2.7607
10.389	2.7644
10.368	2.8319
10.348	2.8387
10.327	2.8094
10.306	2.8481
10.286	2.8643
10.266	2.9081
10.245	2.9937
10.225	3.0516
10.205	3.0637
10.185	3.0197
10.165	3.0171
10.145	3.0340
10.125	3.0740
10.106	3.1181
10.086	3.1662
10.066	3.1636
10.047	3.1657
10.027	3.1816
10.008	3.2004
9.9887	3.2602
9.9695	3.2506
9.9504	3.2306
9.9313	3.3084
9.9123	3.3546
9.8934	3.3307
9.8746	3.3769
9.8558	3.4114
9.8371	3.3921
9.8185	3.4085
9.7999	3.3756
9.7814	3.2909
9.7630	3.2930
9.7447	3.3560
9.7264	3.4067
9.7082	3.4013
9.6900	3.3372
9.6719	3.4263
9.6539	3.5796
9.6360	3.5740
9.6181	3.5660
9.6003	3.5686
9.5825	3.5372
9.5649	3.5335
9.5472	3.5369
9.5297	3.5252
9.5122	3.4877
9.4948	3.4603
9.4774	3.3553
9.4601	3.2039
9.4429	3.1432
9.4257	3.1094
9.4086	3.0138
9.3916	2.9166
9.3746	2.8242
9.3577	2.7586
9.3408	2.6644
9.3240	2.6065
9.3073	2.6023
9.2906	2.5802
9.2740	2.5120
9.2574	2.4825
9.2409	2.4298
9.2245	2.3533
9.2081	2.3501
9.1918	2.4000
9.1755	2.3555
9.1593	2.3369
9.1431	2.3457
9.1270	2.2929
9.1110	2.2974
9.0950	2.2943
9.0791	2.2502
9.0632	2.2860
9.0474	2.2847
9.0316	2.1940
9.0159	2.1452
9.0003	2.1581
8.9847	2.1928
8.9691	2.1968
8.9536	2.1732
8.9382	2.1975
8.9228	2.1636
8.9075	2.1443
8.8922	2.1998
8.8770	2.2535
8.8618	2.2345
8.8467	2.2891
8.8316	2.3426
8.8166	2.3418
8.8016	2.3557
8.7867	2.4117
8.7718	2.4492
8.7570	2.4912
8.7422	2.4888
8.7275	2.4832
8.7129	2.4828
8.6982	2.5141
8.6837	2.5751
8.6692	2.5877
8.6547	2.5936
8.6403	2.5826
8.6259	2.5788
8.6116	2.6013
8.5973	2.6182
8.5830	2.6226
8.5688	2.6888
8.5547	2.7036
8.5406	2.6972
8.5266	2.7239
8.5126	2.7321
8.4986	2.7696
8.4847	2.7902
8.4708	2.8031
8.4570	2.8345
8.4432	2.8575
8.4295	2.8714
8.4158	2.8680
8.4022	2.8596
8.3886	2.8673
8.3750	2.8547
8.3615	2.8608
8.3481	2.8647
8.3347	2.7881
8.3213	2.6939
8.3079	2.6316
8.2946	2.5953
8.2814	2.5286
8.2682	2.4309
8.2550	2.3436
8.2419	2.2626
8.2288	2.1977
8.2158	2.1166
8.2028	1.9912
8.1898	1.8956
8.1769	1.8291
8.1640	1.7109
8.1512	1.6428
8.1384	1.5759
8.1256	1.5345
8.1129	1.5010
8.1002	1.4482
8.0876	1.4245
8.0750	1.3814
8.0624	1.3259
8.0499	1.3130
8.0374	1.2816
8.0250	1.2628
8.0126	1.2345
8.0002	1.1782
7.9879	1.1735
7.9756	1.1990
7.9634	1.2309
7.9512	1.2213
7.9390	1.1768
7.9268	1.1859
7.9147	1.2057
7.9027	1.2270
7.8906	1.2699
7.8786	1.3050
7.8667	1.3109
7.8548	1.3013
7.8429	1.2977
7.8310	1.3478
7.8192	1.3943
7.8075	1.4418
7.7957	1.4655
7.7840	1.4698
7.7723	1.4789
7.7607	1.5204
7.7491	1.5621
7.7375	1.5870
7.7260	1.6636
7.7145	1.6964
7.7031	1.6933
7.6916	1.7482
7.6802	1.8063
7.6689	1.8665
7.6575	1.9348
7.6462	1.9716
7.6350	1.9694
7.6238	2.0351
7.6126	2.0984
7.6014	2.1232
7.5903	2.1403
7.5792	2.1925
7.5681	2.2714
7.5571	2.3076
7.5461	2.3559
7.5351	2.4335
7.5242	2.4637
7.5133	2.5013
7.5024	2.5743
7.4916	2.6393
7.4807	2.7068
7.4700	2.7431
7.4592	2.7902
7.4485	2.8437
7.4378	2.8641
7.4272	2.9093
7.4165	2.9901
7.4059	3.0413
7.3954	3.0764
7.3848	3.1324
7.3743	3.1694
7.3639	3.2416
7.3534	3.3347
7.3430	3.3881
7.3326	3.4428
7.3223	3.4833
7.3119	3.5124
7.3016	3.5745
7.2914	3.6169
7.2811	3.6701
7.2709	3.6996
7.2607	3.7673
7.2506	3.8636
7.2404	3.9220
7.2303	3.9724
7.2203	4.0498
7.2102	4.1245
7.2002	4.1655
7.1902	4.2316
7.1803	4.2710
7.1703	4.3146
7.1604	4.3549
7.1506	4.3877
7.1407	4.4259
7.1309	4.5156
7.1211	4.6249
7.1113	4.6860
7.1016	4.7428
7.0919	4.7737
7.0822	4.8023
7.0725	4.8769
7.0629	4.9688
7.0533	4.9922
7.0437	5.0449
7.0341	5.1039
7.0246	5.1454
7.0151	5.1909
7.0056	5.2306
6.9962	5.2589
6.9867	5.3200
6.9773	5.3410
6.9679	5.3800
6.9586	5.4065
6.9493	5.4223
6.9400	5.4691
6.9307	5.4813
6.9214	5.4996
6.9122	5.5528
6.9030	5.5896
6.8938	5.6053
6.8847	5.6198
6.8755	5.6334
6.8664	5.7049
6.8573	5.7787
6.8483	5.7790
6.8393	5.8017
6.8302	5.8355
6.8213	5.8472
6.8123	5.8449
6.8034	5.8722
6.7944	5.9343
6.7855	5.9510
6.7767	5.9620
6.7678	6.0119
6.7590	6.0450
6.7502	6.0755
6.7414	6.1402
6.7327	6.2013
6.7239	6.2168
6.7152	6.2555
6.7065	6.3379
6.6979	6.3553
6.6892	6.3902
6.6806	6.4509
6.6720	6.4652
6.6634	6.5041
6.6549	6.5550
6.6464	6.6293
6.6378	6.6724
6.6294	6.6811
6.6209	6.7270
6.6124	6.7767
6.6040	6.7875
6.5956	6.8137
6.5872	6.8932
6.5789	6.9778
6.5705	6.9956
6.5622	6.9691
6.5539	7.0221
6.5456	7.0790
6.5374	7.1288
6.5292	7.1597
6.5209	7.1792
6.5128	7.2374
6.5046	7.2652
6.4964	7.2852
6.4883	7.3298
6.4802	7.3725
6.4721	7.3650
6.4640	7.3434
6.4560	7.3659
6.4480	7.3849
6.4399	7.3641
6.4320	7.3556
6.4240	7.3849
6.4160	7.3882
6.4081	7.3451
6.4002	7.3104
6.3923	7.3071
6.3844	7.2623
6.3766	7.1833
6.3687	7.1592
6.3609	7.1470
6.3531	7.1275
6.3454	7.1008
6.3376	7.0364
6.3299	7.0179
6.3221	6.9680
6.3144	6.8995
6.3068	6.8548
6.2991	6.8226
6.2914	6.7512
6.2838	6.6488
6.2762	6.6073
6.2686	6.5712
6.2611	6.5025
6.2535	6.4488
6.2460	6.4195
6.2385	6.3532
6.2310	6.2556
6.2235	6.1338
6.2160	6.0480
6.2086	5.9519
6.2011	5.8139
6.1937	5.6672
6.1863	5.4919
6.1790	5.2478
6.1716	4.9716
6.1643	4.7480
6.1570	4.6017
6.1496	4.4662
6.1424	4.3420
6.1351	4.2750
6.1278	4.2738
6.1206	4.2511
6.1134	4.2691
6.1062	4.3706
6.0990	4.5110
6.0918	4.6870
6.0847	4.8633
6.0776	5.0418
6.0704	5.1872
6.0633	5.3257
6.0563	5.4729
6.0492	5.5929
6.0421	5.7039
6.0351	5.8280
6.0281	5.9431
6.0211	6.0682
6.0141	6.1906
6.0071	6.2885
6.0002	6.4003
5.9932	6.4893
5.9863	6.5672
5.9794	6.6602
5.9725	6.7249
5.9657	6.7688
5.9588	6.8210
5.9520	6.8920
5.9451	6.9106
5.9383	6.9358
5.9315	7.0013
5.9247	7.0943
5.9180	7.2363
5.9112	7.3645
5.9045	7.4920
5.8978	7.6387
5.8911	7.7779
5.8844	7.9020
5.8777	8.0299
5.8711	8.0885
5.8644	8.1553
5.8578	8.2010
5.8512	8.2781
5.8446	8.3704
5.8380	8.4710
5.8314	8.5122
5.8249	8.5277
5.8184	8.5704
5.8118	8.6072
5.8053	8.6501
5.7988	8.6963
5.7923	8.6864
5.7859	8.7127
5.7794	8.7571
5.7730	8.7804
5.7666	8.8092
5.7602	8.8286
5.7538	8.8314
5.7474	8.8521
5.7410	8.8675
5.7347	8.8483
5.7283	8.8213
5.7220	8.8449
5.7157	8.8558
5.7094	8.8638
5.7031	8.8641
5.6969	8.8877
5.6906	8.9072
5.6844	8.9125
5.6782	8.9311
5.6719	8.9737
5.6657	9.0059
5.6596	9.0059
5.6534	9.0384
5.6472	9.1021
5.6411	9.1460
5.6349	9.1797
5.6288	9.2205
5.6227	9.2868
5.6166	9.3447
5.6106	9.4431
5.6045	9.5410
5.5984	9.5745
5.5924	9.5930
5.5864	9.6295
5.5804	9.6881
5.5744	9.7572
5.5684	9.7875
5.5624	9.8880
5.5564	10.023
5.5505	10.129
5.5445	10.254
5.5386	10.399
5.5327	10.539
5.5268	10.685
5.5209	10.825
5.5151	10.960
5.5092	11.086
5.5033	11.231
5.4975	11.351
5.4917	11.462
5.4859	11.587
5.4801	11.711
5.4743	11.844
5.4685	11.955
5.4628	12.082
5.4570	12.207
5.4513	12.300
5.4455	12.389
5.4398	12.512
5.4341	12.646
5.4284	12.775
5.4228	12.909
5.4171	13.022
5.4114	13.138
5.4058	13.274
5.4002	13.373
5.3945	13.479
5.3889	13.578
5.3833	13.658
5.3778	13.758
5.3722	13.864
5.3666	13.967
5.3611	14.054
5.3555	14.122
5.3500	14.229
5.3445	14.341
5.3390	14.425
5.3335	14.505
5.3280	14.582
5.3225	14.657
5.3171	14.716
5.3116	14.725
5.3062	14.768
5.3008	14.861
5.2954	14.929
5.2900	14.996
5.2846	15.072
5.2792	15.139
5.2738	15.192
5.2684	15.260
5.2631	15.366
5.2578	15.469
5.2524	15.508
5.2471	15.539
5.2418	15.595
5.2365	15.653
5.2312	15.747
5.2260	15.851
5.2207	15.928
5.2154	16.016
5.2102	16.135
5.2050	16.237
5.1998	16.318
5.1945	16.396
5.1893	16.484
5.1842	16.619
5.1790	16.708
5.1738	16.778
5.1686	16.825
5.1635	16.861
5.1584	16.892
5.1532	16.938
5.1481	16.969
5.1430	16.995
5.1379	17.028
5.1328	17.082
5.1277	17.226
5.1227	17.384
5.1176	17.505
5.1126	17.618
5.1075	17.774
5.1025	17.975
5.0975	18.103
5.0925	18.213
5.0875	18.339
5.0825	18.461
5.0775	18.580
5.0726	18.681
5.0676	18.758
5.0627	18.868
5.0577	18.962
5.0528	19.031
5.0479	19.080
5.0430	19.153
5.0380	19.264
5.0332	19.329
5.0283	19.361
5.0234	19.413
5.0185	19.453
5.0137	19.490
5.0088	19.540
5.0040	19.601
4.9992	19.650
4.9944	19.706
4.9896	19.774
4.9848	19.829
4.9800	19.868
4.9752	19.914
4.9704	20.060
4.9657	20.103
4.9609	20.064
4.9562	20.068
4.9514	20.086
4.9467	20.081
4.9420	20.057
4.9373	20.011
4.9326	19.977
4.9279	19.954
4.9232	19.889
4.9186	19.886
4.9139	19.917
4.9092	19.892
4.9046	19.843
4.9000	19.825
4.8953	19.840
4.8907	19.837
4.8861	19.861
4.8815	19.876
4.8769	19.878
4.8723	19.942
4.8678	20.026
4.8632	20.065
4.8586	20.079
4.8541	20.129
4.8495	20.210
4.8450	20.273
4.8405	20.276
4.8360	20.294
4.8315	20.410
4.8270	20.470
4.8225	20.464
4.8180	20.479
4.8135	20.491
4.8090	20.494
4.8046	20.505
4.8001	20.522
4.7957	20.525
4.7913	20.535
4.7868	20.553
4.7824	20.607
4.7780	20.607
4.7736	20.634
4.7692	20.692
4.7648	20.694
4.7605	20.712
4.7561	20.773
4.7517	20.819
4.7474	20.872
4.7431	20.926
4.7387	20.940
4.7344	20.958
4.7301	21.024
4.7258	21.053
4.7215	21.103
4.7172	21.175
4.7129	21.198
4.7086	21.186
4.7043	21.225
4.7000	21.280
4.6958	21.308
4.6915	21.349
4.6873	21.390
4.6831	21.419
4.6788	21.487
4.6746	21.541
4.6704	21.604
4.6662	21.676
4.6620	21.727
4.6578	21.790
4.6536	21.825
4.6495	21.879
4.6453	21.955
4.6411	22.041
4.6370	22.127
4.6328	22.222
4.6287	22.311
4.6246	22.390
4.6205	22.447
4.6163	22.510
4.6122	22.594
4.6081	22.687
4.6040	22.778
4.6000	22.844
4.5959	22.885
4.5918	22.988
4.5877	23.092
4.5837	23.154
4.5796	23.230
4.5756	23.317
4.5716	23.382
4.5675	23.431
4.5635	23.515
4.5595	23.576
4.5555	23.641
4.5515	23.714
4.5475	23.814
4.5435	23.889
4.5395	23.963
4.5356	24.009
4.5316	24.052
4.5276	24.101
4.5237	24.196
4.5197	24.275
4.5158	24.343
4.5119	24.444
4.5080	24.520
4.5040	24.565
4.5001	24.624
4.4962	24.707
4.4923	24.805
4.4884	24.861
4.4846	24.862
4.4807	24.923
4.4768	25.006
4.4730	25.058
4.4691	25.099
4.4652	25.186
4.4614	25.254
4.4576	25.326
4.4537	25.413
4.4499	25.455
4.4461	25.501
4.4423	25.557
4.4385	25.605
4.4347	25.671
4.4309	25.723
4.4271	25.786
4.4233	25.868
4.4196	25.910
4.4158	25.983
4.4120	26.068
4.4083	26.111
4.4045	26.180
4.4008	26.238
4.3971	26.270
4.3934	26.331
4.3896	26.395
4.3859	26.466
4.3822	26.514
4.3785	26.556
4.3748	26.633
4.3711	26.727
4.3674	26.763
4.3638	26.813
4.3601	26.889
4.3564	26.944
4.3528	26.973
4.3491	27.057
4.3455	27.119
4.3418	27.155
4.3382	27.234
4.3346	27.301
4.3310	27.349
4.3273	27.439
4.3237	27.492
4.3201	27.571
4.3165	27.650
4.3129	27.707
4.3094	27.777
4.3058	27.860
4.3022	27.955
4.2986	28.019
4.2951	28.058
4.2915	28.113
4.2880	28.193
4.2844	28.289
4.2809	28.372
4.2774	28.380
4.2738	28.419
4.2703	28.534
4.2668	28.618
4.2633	28.650
4.2598	28.698
4.2563	28.795
4.2528	28.847
4.2493	28.866
4.2458	28.884
4.2424	28.916
4.2389	28.958
4.2354	28.999
4.2320	29.090
4.2285	29.169
4.2251	29.206
4.2216	29.247
4.2182	29.283
4.2148	29.319
4.2113	29.384
4.2079	29.416
4.2045	29.429
4.2011	29.500
4.1977	29.561
4.1943	29.594
4.1909	29.616
4.1875	29.665
4.1841	29.708
4.1808	29.784
4.1774	29.814
4.1740	29.801
4.1707	29.808
4.1673	29.838
4.1640	29.871
4.1606	29.912
4.1573	29.926
4.1540	29.947
4.1506	30.001
4.1473	30.007
4.1440	30.024
4.1407	30.079
4.1374	30.113
4.1341	30.140
4.1308	30.174
4.1275	30.164
4.1242	30.192
4.1209	30.242
4.1177	30.255
4.1144	30.268
4.1111	30.313
4.1079	30.350
4.1046	30.336
4.1014	30.343
4.0981	30.381
4.0949	30.418
4.0917	30.435
4.0884	30.477
4.0852	30.460
4.0820	30.479
4.0788	30.537
4.0756	30.576
4.0724	30.568
4.0692	30.566
4.0660	30.607
4.0628	30.629
4.0596	30.635
4.0565	30.635
4.0533	30.660
4.0501	30.684
4.0470	30.695
4.0438	30.708
4.0406	30.718
4.0375	30.723
4.0344	30.711
4.0312	30.717
4.0281	30.745
4.0250	30.789
4.0218	30.810
4.0187	30.814
4.0156	30.779
4.0125	30.761
4.0094	30.726
4.0063	30.729
4.0032	30.741
4.0001	30.726
3.9970	30.686
3.9940	30.663
3.9909	30.667
3.9878	30.679
3.9847	30.660
3.9817	30.637
3.9786	30.661
3.9756	30.658
3.9725	30.698
3.9695	30.731
3.9665	30.717
3.9634	30.719
3.9604	30.734
3.9574	30.799
3.9544	30.832
3.9513	30.838
3.9483	30.841
3.9453	30.861
3.9423	30.908
3.9393	30.993
3.9363	30.985
3.9333	30.969
3.9304	31.015
3.9274	31.032
3.9244	31.011
3.9214	30.994
3.9185	30.985
3.9155	31.024
3.9126	31.052
3.9096	31.031
3.9067	31.044
3.9037	31.034
3.9008	30.999
3.8979	31.007
3.8949	31.024
3.8920	31.041
3.8891	31.057
3.8862	31.043
3.8833	31.039
3.8804	31.060
3.8775	31.042
3.8746	31.029
3.8717	31.027
3.8688	31.020
3.8659	31.035
3.8630	31.067
3.8601	31.061
3.8573	31.057
3.8544	31.054
3.8515	31.046
3.8487	31.038
3.8458	31.008
3.8430	31.006
3.8401	31.026
3.8373	31.028
3.8344	31.021
3.8316	31.021
3.8288	31.006
3.8259	30.982
3.8231	30.978
3.8203	30.992
3.8175	31.009
3.8147	31.011
3.8119	31.007
3.8091	30.999
3.8063	30.970
3.8035	30.976
3.8007	30.977
3.7979	30.946
3.7951	30.953
3.7924	30.991
3.7896	30.945
3.7868	30.908
3.7841	30.887
3.7813	30.874
3.7785	30.887
3.7758	30.883
3.7730	30.881
3.7703	30.889
3.7676	30.884
3.7648	30.854
3.7621	30.835
3.7594	30.798
3.7566	30.786
3.7539	30.780
3.7512	30.767
3.7485	30.765
3.7458	30.759
3.7431	30.719
3.7404	30.697
3.7377	30.657
3.7350	30.664
3.7323	30.662
3.7296	30.632
3.7269	30.650
3.7242	30.622
3.7216	30.606
3.7189	30.605
3.7162	30.562
3.7136	30.552
3.7109	30.525
3.7083	30.461
3.7056	30.422
3.7030	30.390
3.7003	30.397
3.6977	30.424
3.6950	30.400
3.6924	30.365
3.6898	30.317
3.6872	30.277
3.6845	30.275
3.6819	30.259
3.6793	30.277
3.6767	30.289
3.6741	30.219
3.6715	30.189
3.6689	30.192
3.6663	30.164
3.6637	30.142
3.6611	30.089
3.6585	30.050
3.6560	30.019
3.6534	29.994
3.6508	29.953
3.6482	29.945
3.6457	29.900
3.6431	29.868
3.6406	29.851
3.6380	29.823
3.6355	29.791
3.6329	29.784
3.6304	29.739
3.6278	29.699
3.6253	29.648
3.6227	29.629
3.6202	29.625
3.6177	29.561
3.6152	29.515
3.6127	29.491
3.6101	29.476
3.6076	29.469
3.6051	29.443
3.6026	29.381
3.6001	29.320
3.5976	29.288
3.5951	29.288
3.5926	29.278
3.5901	29.253
3.5876	29.200
3.5852	29.147
3.5827	29.109
3.5802	29.085
3.5777	29.043
3.5753	29.006
3.5728	28.968
3.5704	28.884
3.5679	28.853
3.5654	28.865
3.5630	28.809
3.5605	28.717
3.5581	28.702
3.5557	28.682
3.5532	28.666
3.5508	28.661
3.5484	28.622
3.5459	28.541
3.5435	28.469
3.5411	28.443
3.5387	28.379
3.5363	28.327
3.5338	28.284
3.5314	28.276
3.5290	28.253
3.5266	28.193
3.5242	28.136
3.5218	28.098
3.5195	28.078
3.5171	28.042
3.5147	27.986
3.5123	27.910
3.5099	27.858
3.5075	27.842
3.5052	27.826
3.5028	27.757
3.5004	27.688
3.4981	27.625
3.4957	27.565
3.4934	27.523
3.4910	27.466
3.4887	27.418
3.4863	27.371
3.4840	27.297
3.4816	27.251
3.4793	27.229
3.4770	27.181
3.4746	27.110
3.4723	27.009
3.4700	26.967
3.4677	26.979
3.4653	26.934
3.4630	26.886
3.4607	26.854
3.4584	26.809
3.4561	26.726
3.4538	26.627
3.4515	26.585
3.4492	26.558
3.4469	26.505
3.4446	26.440
3.4423	26.364
3.4400	26.354
3.4378	26.286
3.4355	26.204
3.4332	26.178
3.4309	26.076
3.4287	25.985
3.4264	25.934
3.4241	25.866
3.4219	25.770
3.4196	25.689
3.4174	25.636
3.4151	25.587
3.4129	25.541
3.4106	25.517
3.4084	25.431
3.4061	25.309
3.4039	25.236
3.4017	25.201
3.3994	25.153
3.3972	25.135
3.3950	25.016
3.3928	24.935
3.3906	24.898
3.3883	24.814
3.3861	24.742
3.3839	24.678
3.3817	24.622
3.3795	24.562
3.3773	24.494
3.3751	24.424
3.3729	24.379
3.3707	24.324
3.3685	24.195
3.3663	24.123
3.3641	24.085
3.3620	23.971
3.3598	23.848
3.3576	23.782
3.3554	23.732
3.3533	23.654
3.3511	23.578
3.3489	23.458
3.3468	23.373
3.3446	23.271
3.3425	23.192
3.3403	23.148
3.3382	23.076
3.3360	22.962
3.3339	22.915
3.3317	22.812
3.3296	22.701
3.3274	22.680
3.3253	22.599
3.3232	22.413
3.3210	22.330
3.3189	22.313
3.3168	22.204
3.3147	22.066
3.3126	22.020
3.3104	21.981
3.3083	21.890
3.3062	21.799
3.3041	21.726
3.3020	21.680
3.2999	21.576
3.2978	21.486
3.2957	21.479
3.2936	21.410
3.2915	21.276
3.2894	21.146
3.2874	21.048
3.2853	20.933
3.2832	20.829
3.2811	20.821
3.2790	20.787
3.2770	20.660
3.2749	20.535
3.2728	20.410
3.2708	20.359
3.2687	20.262
3.2666	20.121
3.2646	20.032
3.2625	19.951
3.2605	19.845
3.2584	19.764
3.2564	19.678
3.2543	19.543
3.2523	19.385
3.2503	19.277
3.2482	19.182
3.2462	19.114
3.2442	19.023
3.2421	18.890
3.2401	18.763
3.2381	18.666
3.2361	18.588
3.2340	18.466
3.2320	18.371
3.2300	18.279
3.2280	18.151
3.2260	18.045
3.2240	17.955
3.2220	17.831
3.2200	17.714
3.2180	17.621
3.2160	17.520
3.2140	17.364
3.2120	17.246
3.2100	17.196
3.2080	17.106
3.2060	17.013
3.2040	16.903
3.2021	16.770
3.2001	16.687
3.1981	16.622
3.1961	16.504
3.1942	16.384
3.1922	16.282
3.1902	16.209
3.1883	16.123
3.1863	16.003
3.1844	15.883
3.1824	15.799
3.1805	15.689
3.1785	15.617
3.1766	15.551
3.1746	15.475
3.1727	15.399
3.1707	15.279
3.1688	15.178
3.1669	15.069
3.1649	14.946
3.1630	14.889
3.1611	14.809
3.1591	14.722
3.1572	14.644
3.1553	14.540
3.1534	14.462
3.1515	14.370
3.1495	14.262
3.1476	14.188
3.1457	14.120
3.1438	14.017
3.1419	13.931
3.1400	13.858
3.1381	13.807
3.1362	13.710
3.1343	13.587
3.1324	13.549
3.1305	13.526
3.1286	13.429
3.1268	13.288
3.1249	13.236
3.1230	13.223
3.1211	13.119
3.1192	13.031
3.1174	12.929
3.1155	12.834
3.1136	12.752
3.1117	12.691
3.1099	12.610
3.1080	12.530
3.1061	12.507
3.1043	12.467
3.1024	12.362
3.1006	12.258
3.0987	12.174
3.0969	12.161
3.0950	12.075
3.0932	11.957
3.0913	11.851
3.0895	11.808
3.0876	11.789
3.0858	11.719
3.0840	11.690
3.0821	11.671
3.0803	11.621
3.0785	11.514
3.0766	11.458
3.0748	11.413
3.0730	11.401
3.0712	11.415
3.0694	11.382
3.0675	11.295
3.0657	11.271
3.0639	11.292
3.0621	11.223
3.0603	11.197
3.0585	11.175
3.0567	11.098
3.0549	11.102
3.0531	11.170
3.0513	11.111
3.0495	10.996
3.0477	10.988
3.0459	11.035
3.0441	11.015
3.0423	10.971
3.0406	10.985
3.0388	10.986
3.0370	10.951
3.0352	10.945
3.0334	10.940
3.0317	10.868
3.0299	10.847
3.0281	10.896
3.0264	10.893
3.0246	10.838
3.0228	10.796
3.0211	10.772
3.0193	10.762
3.0176	10.744
3.0158	10.757
3.0140	10.736
3.0123	10.689
3.0105	10.631
3.0088	10.586
3.0070	10.590
3.0053	10.564
3.0036	10.527
3.0018	10.462
3.0001	10.390
2.9984	10.394
2.9966	10.405
2.9949	10.350
2.9932	10.217
2.9914	10.197
2.9897	10.167
2.9880	10.119
2.9863	10.102
2.9845	10.060
2.9828	10.030
2.9811	9.9966
2.9794	9.9459
2.9777	9.9302
2.9760	9.8841
2.9743	9.8873
2.9726	9.9082
2.9709	9.8631
2.9692	9.7795
2.9675	9.7113
2.9658	9.6349
2.9641	9.5958
2.9624	9.5719
2.9607	9.5296
2.9590	9.5142
2.9573	9.4987
2.9556	9.4317
2.9539	9.3525
2.9523	9.3342
2.9506	9.2779
2.9489	9.1865
2.9472	9.1486
2.9455	9.1101
2.9439	9.1125
2.9422	9.1378
2.9405	9.0825
2.9389	8.9602
2.9372	8.9503
2.9355	8.9672
2.9339	8.9610
2.9322	8.9854
2.9306	8.9615
2.9289	8.9245
2.9272	8.9662
2.9256	9.0023
2.9239	9.0075
2.9223	8.9911
2.9207	8.9484
2.9190	8.9953
2.9174	9.0431
2.9157	9.1275
2.9141	9.1125
2.9124	9.0361
2.9108	9.0970
2.9092	9.1233
2.9075	9.1120
2.9059	9.1230
2.9043	9.1955
2.9027	9.2564
2.9010	9.2343
2.8994	9.2184
2.8978	9.2468
2.8962	9.2010
2.8946	9.1763
2.8929	9.1889
2.8913	9.2564
2.8897	9.3023
2.8881	9.2920
2.8865	9.2606
2.8849	9.2665
2.8833	9.2540
2.8817	9.2545
2.8801	9.2686
2.8785	9.2390
2.8769	9.1743
2.8753	9.1631
2.8737	9.2174
2.8721	9.2423
2.8705	9.2241
2.8689	9.1490
2.8673	9.1537
2.8658	9.2142
2.8642	9.2025
2.8626	9.1711
2.8610	9.1987
2.8594	9.2371
2.8579	9.2288
2.8563	9.2410
2.8547	9.2449
2.8531	9.2503
2.8516	9.3089
2.8500	9.3030
2.8484	9.2604
2.8469	9.2493
2.8453	9.2742
2.8437	9.2501
2.8422	9.2241
2.8406	9.2072
2.8391	9.1800
2.8375	9.1688
2.8360	9.2268
2.8344	9.2578
2.8329	9.2273
2.8313	9.1839
2.8298	9.1355
2.8282	9.1200
2.8267	9.1218
2.8252	9.1452
2.8236	9.1763
2.8221	9.1948
2.8205	9.1969
2.8190	9.1668
2.8175	9.1935
2.8159	9.2582
2.8144	9.2943
2.8129	9.3005
2.8114	9.3488
2.8098	9.4242
2.8083	9.4884
2.8068	9.4945
2.8053	9.5325
2.8038	9.6651
2.8022	9.7935
2.8007	9.9408
2.7992	10.018
2.7977	10.064
2.7962	10.180
2.7947	10.195
2.7932	10.197
2.7917	10.236
2.7902	10.320
2.7887	10.339
2.7872	10.393
2.7857	10.381
2.7842	10.323
2.7827	10.337
2.7812	10.423
2.7797	10.418
2.7782	10.425
2.7767	10.490
2.7752	10.535
2.7738	10.545
2.7723	10.517
2.7708	10.526
2.7693	10.596
2.7678	10.652
2.7664	10.739
2.7649	10.811
2.7634	10.846
2.7619	10.901
2.7605	11.066
2.7590	11.280
2.7575	11.513
2.7561	11.804
2.7546	12.065
2.7531	12.349
2.7517	12.699
2.7502	13.026
2.7488	13.432
2.7473	13.862
2.7458	14.301
2.7444	14.781
2.7429	15.288
2.7415	15.738
2.7400	16.254
2.7386	16.774
2.7371	17.134
2.7357	17.538
2.7343	18.052
2.7328	18.416
2.7314	18.720
2.7299	19.030
2.7285	19.368
2.7271	19.769
2.7256	20.208
2.7242	20.565
2.7228	20.859
2.7213	21.246
2.7199	21.620
2.7185	21.843
2.7171	22.145
2.7156	22.465
2.7142	22.761
2.7128	23.064
2.7114	23.379
2.7100	23.679
2.7085	23.914
2.7071	24.138
2.7057	24.411
2.7043	24.627
2.7029	24.834
2.7015	25.120
2.7001	25.372
2.6987	25.612
2.6973	25.819
2.6959	26.014
2.6945	26.265
2.6931	26.506
2.6917	26.691
2.6903	26.848
2.6889	27.024
2.6875	27.222
2.6861	27.383
2.6847	27.506
2.6833	27.677
2.6819	27.889
2.6805	28.050
2.6791	28.183
2.6778	28.293
2.6764	28.418
2.6750	28.517
2.6736	28.550
2.6722	28.611
2.6709	28.801
2.6695	28.946
2.6681	29.047
2.6667	29.086
2.6654	29.211
2.6640	29.292
2.6626	29.229
2.6613	29.264
2.6599	29.390
2.6585	29.479
2.6572	29.501
2.6558	29.510
2.6545	29.555
2.6531	29.610
2.6517	29.663
2.6504	29.707
2.6490	29.729
2.6477	29.766
2.6463	29.850
2.6450	29.952
2.6436	29.892
2.6423	29.905
2.6409	30.030
2.6396	30.067
2.6382	30.053
2.6369	30.044
2.6356	30.064
2.6342	30.112
2.6329	30.145
2.6315	30.180
2.6302	30.210
2.6289	30.248
2.6275	30.290
2.6262	30.295
2.6249	30.266
2.6236	30.318
2.6222	30.352
2.6209	30.334
2.6196	30.275
2.6183	30.233
2.6169	30.315
2.6156	30.400
2.6143	30.411
2.6130	30.374
2.6117	30.295
2.6103	30.276
2.6090	30.356
2.6077	30.379
2.6064	30.344
2.6051	30.387
2.6038	30.434
2.6025	30.417
2.6012	30.449
2.5999	30.395
2.5986	30.345
2.5973	30.382
2.5960	30.451
2.5947	30.510
2.5934	30.481
2.5921	30.380
2.5908	30.413
2.5895	30.448
2.5882	30.374
2.5869	30.372
2.5856	30.385
2.5843	30.354
2.5830	30.375
2.5817	30.377
2.5805	30.341
2.5792	30.313
2.5779	30.379
2.5766	30.304
2.5753	30.204
2.5741	30.235
2.5728	30.312
2.5715	30.342
2.5702	30.268
2.5690	30.201
2.5677	30.203
2.5664	30.195
2.5651	30.189
2.5639	30.180
2.5626	30.212
2.5613	30.171
2.5601	30.143
2.5588	30.129
2.5575	30.097
2.5563	30.029
2.5550	29.981
2.5538	29.881
2.5525	29.937
2.5513	30.016
2.5500	29.999
2.5487	29.992
2.5475	29.937
2.5462	29.889
2.5450	29.860
2.5437	29.841
2.5425	29.852
2.5413	29.895
2.5400	29.906
2.5388	29.817
2.5375	29.765
2.5363	29.817
2.5350	29.908
2.5338	29.880
2.5326	29.824
2.5313	29.825
2.5301	29.882
2.5289	29.983
2.5276	29.972
2.5264	29.913
2.5252	29.925
2.5239	30.001
2.5227	30.048
2.5215	29.999
2.5202	29.967
2.5190	29.976
2.5178	30.008
2.5166	30.077
2.5154	30.064
2.5141	30.025
2.5129	30.123
2.5117	30.115
2.5105	30.099
2.5093	30.078
2.5081	30.086
2.5068	30.099
2.5056	30.085
2.5044	30.033
2.5032	29.977
2.5020	30.020
2.5008	30.102
2.4996	30.148
2.4984	30.222
2.4972	30.168
2.4960	30.032
2.4948	30.082
2.4936	30.230
2.4924	30.181
2.4912	30.177
2.4900	30.219
2.4888	30.228
2.4876	30.218
2.4864	30.282
2.4852	30.264
2.4840	30.187
2.4828	30.293
2.4816	30.397
2.4805	30.340
2.4793	30.359
2.4781	30.389
2.4769	30.384
2.4757	30.393
2.4745	30.488
2.4734	30.500
2.4722	30.484
2.4710	30.438
2.4698	30.411
2.4686	30.546
2.4675	30.675
2.4663	30.695
2.4651	30.667
2.4640	30.687
2.4628	30.713
2.4616	30.657
2.4604	30.756
2.4593	30.875
2.4581	30.798
2.4569	30.761
2.4558	30.869
2.4546	30.871
2.4535	30.883
2.4523	30.909
2.4511	30.936
2.4500	30.925
2.4488	30.864
2.4477	30.951
2.4465	30.994
2.4454	30.898
2.4442	30.962
2.4431	30.983
2.4419	30.989
2.4408	31.093
2.4396	31.044
2.4385	30.943
2.4373	30.976
2.4362	31.072
2.4350	31.112
2.4339	31.118
2.4327	31.170
2.4316	31.150
2.4305	31.191
2.4293	31.290
2.4282	31.348
2.4270	31.233
2.4259	31.176
2.4248	31.295
2.4236	31.335
2.4225	31.385
2.4214	31.337
2.4202	31.302
2.4191	31.378
2.4180	31.377
2.4169	31.349
2.4157	31.389
2.4146	31.427
2.4135	31.466
2.4124	31.588
2.4112	31.550
2.4101	31.541
2.4090	31.568
2.4079	31.646
2.4068	31.552
2.4056	31.431
2.4045	31.484
2.4034	31.556
2.4023	31.522
2.4012	31.473
2.4001	31.567
2.3990	31.631
2.3979	31.720
2.3967	31.694
2.3956	31.601
2.3945	31.725
2.3934	31.697
2.3923	31.655
2.3912	31.761
2.3901	31.813
2.3890	31.738
2.3879	31.722
2.3868	31.704
2.3857	31.705
2.3846	31.740
2.3835	31.753
2.3824	31.804
2.3813	31.817
2.3802	31.802
2.3791	31.838
2.3781	31.804
2.3770	31.806
2.3759	31.842
2.3748	31.959
2.3737	31.934
2.3726	31.871
2.3715	31.816
2.3704	31.842
2.3694	31.883
2.3683	31.979
2.3672	32.010
2.3661	31.994
2.3650	31.989
2.3640	31.999
2.3629	31.968
2.3618	31.931
2.3607	31.982
2.3597	31.958
2.3586	31.900
2.3575	31.960
2.3564	31.991
2.3554	32.013
2.3543	31.936
2.3532	31.873
2.3522	31.986
2.3511	32.023
2.3500	31.971
2.3490	31.916
2.3479	31.941
2.3468	31.979
2.3458	32.005
2.3447	31.986
2.3436	31.938
2.3426	31.961
2.3415	31.941
2.3405	31.960
2.3394	31.920
2.3384	31.898
2.3373	31.975
2.3363	32.055
2.3352	32.081
2.3342	32.091
2.3331	32.074
2.3321	32.038
2.3310	32.005
2.3300	32.035
2.3289	32.104
2.3279	32.041
2.3268	32.002
2.3258	32.108
2.3247	32.120
2.3237	32.111
2.3226	32.154
2.3216	32.147
2.3206	32.152
2.3195	32.175
2.3185	32.151
2.3175	32.115
2.3164	32.106
2.3154	32.149
2.3144	32.208
2.3133	32.198
2.3123	32.168
2.3113	32.201
2.3102	32.124
2.3092	32.167
2.3082	32.230
2.3071	32.284
2.3061	32.215
2.3051	32.206
2.3041	32.234
2.3030	32.195
2.3020	32.138
2.3010	32.132
2.3000	32.183
2.2990	32.165
2.2979	32.167
2.2969	32.231
2.2959	32.223
2.2949	32.248
2.2939	32.324
2.2929	32.364
2.2918	32.319
2.2908	32.344
2.2898	32.295
2.2888	32.207
2.2878	32.258
2.2868	32.237
2.2858	32.144
2.2848	32.182
2.2838	32.224
2.2828	32.153
2.2818	32.097
2.2808	32.216
2.2798	32.272
2.2787	32.210
2.2777	32.184
2.2767	32.276
2.2757	32.221
2.2747	32.131
2.2738	32.073
2.2728	32.136
2.2718	32.160
2.2708	32.138
2.2698	32.250
2.2688	32.261
2.2678	32.075
2.2668	32.008
2.2658	32.074
2.2648	32.131
2.2638	32.119
2.2628	32.136
2.2618	32.127
2.2609	32.021
2.2599	31.967
2.2589	31.997
2.2579	32.040
2.2569	32.029
2.2559	32.006
2.2550	32.030
2.2540	32.068
2.2530	32.056
2.2520	32.007
2.2510	31.950
2.2501	31.978
2.2491	31.962
2.2481	31.900
2.2471	31.994
2.2462	32.039
2.2452	32.025
2.2442	32.019
2.2433	31.995
2.2423	31.904
2.2413	31.942
2.2403	32.004
2.2394	31.988
2.2384	31.959
2.2374	31.991
2.2365	32.007
2.2355	32.007
2.2345	31.979
2.2336	32.015
2.2326	32.010
2.2317	32.005
2.2307	32.078
2.2297	32.089
2.2288	32.096
2.2278	32.043
2.2269	32.010
2.2259	32.015
2.2250	32.007
2.2240	31.990
2.2231	31.957
2.2221	31.973
2.2211	31.987
2.2202	31.970
2.2192	31.986
2.2183	31.952
2.2173	31.897
2.2164	31.948
2.2155	31.942
2.2145	31.980
2.2136	31.993
2.2126	31.896
2.2117	31.890
2.2107	31.958
2.2098	31.948
2.2088	31.940
2.2079	31.912
2.2070	31.900
2.2060	31.871
2.2051	31.899
2.2041	31.964
2.2032	31.955
2.2023	31.912
2.2013	31.937
2.2004	31.951
2.1995	31.955
2.1985	32.029
2.1976	32.055
2.1967	32.063
2.1957	32.077
2.1948	32.109
2.1939	32.014
2.1930	32.018
2.1920	32.156
2.1911	32.021
2.1902	31.938
2.1893	32.008
2.1883	32.088
2.1874	32.096
2.1865	32.006
2.1856	31.891
2.1846	31.957
2.1837	32.006
2.1828	32.049
2.1819	31.975
2.1810	31.976
2.1800	32.000
2.1791	32.049
2.1782	31.993
2.1773	31.851
2.1764	31.867
2.1755	31.974
2.1746	31.988
2.1736	31.985
2.1727	31.981
2.1718	32.104
2.1709	32.088
2.1700	32.006
2.1691	32.020
2.1682	31.973
2.1673	31.939
2.1664	32.002
2.1655	32.037
2.1646	32.139
2.1637	32.121
2.1628	32.120
2.1619	32.085
2.1610	32.101
2.1601	32.045
2.1592	31.917
2.1583	31.965
2.1574	32.054
2.1565	32.087
2.1556	32.007
2.1547	32.027
2.1538	32.021
2.1529	32.000
2.1520	32.008
2.1511	31.931
2.1502	31.983
2.1493	31.986
2.1484	32.010
2.1475	32.007
2.1466	31.966
2.1458	31.934
2.1449	31.974
2.1440	32.025
2.1431	31.990
2.1422	31.977
2.1413	31.944
2.1404	31.954
2.1396	32.045
2.1387	32.069
2.1378	32.021
2.1369	31.928
2.1360	31.933
2.1352	31.913
2.1343	31.990
2.1334	32.053
2.1325	32.058
2.1316	31.996
2.1308	31.965
2.1299	31.985
2.1290	32.049
2.1281	32.037
2.1273	31.928
2.1264	31.886
2.1255	31.911
2.1247	31.852
2.1238	31.939
2.1229	31.991
2.1220	32.060
2.1212	31.966
2.1203	31.861
2.1194	31.850
2.1186	31.991
2.1177	32.024
2.1168	31.995
2.1160	31.895
2.1151	31.912
2.1143	31.980
2.1134	31.938
2.1125	31.896
2.1117	31.903
2.1108	31.976
2.1100	32.068
2.1091	31.956
2.1082	31.931
2.1074	31.931
2.1065	31.952
2.1057	31.894
2.1048	31.953
2.1040	31.904
2.1031	31.900
2.1023	31.989
2.1014	31.906
2.1005	31.812
2.0997	31.842
2.0988	31.964
2.0980	31.960
2.0971	31.872
2.0963	31.919
2.0955	31.880
2.0946	31.858
2.0938	31.923
2.0929	31.934
2.0921	31.905
2.0912	32.002
2.0904	31.914
2.0895	31.907
2.0887	31.957
2.0879	31.926
2.0870	31.923
2.0862	31.854
2.0853	31.786
2.0845	31.828
2.0837	31.852
2.0828	31.889
2.0820	31.845
2.0812	31.868
2.0803	31.943
2.0795	31.894
2.0760	31.894
2.0720	31.994
2.0680	31.835
2.0640	31.927
2.0600	31.650
2.0560	31.816
2.0520	31.868
2.0480	31.485
2.0440	31.603
2.0400	31.636
2.0360	31.505
2.0320	31.074
2.0280	31.138
2.0240	31.257
2.0200	30.973
2.0160	31.064
2.0120	30.550
2.0080	30.790
2.0040	30.482
2.0000	30.454
1.9960	30.545
1.9920	30.454
1.9880	30.482
1.9840	30.173
1.9800	30.052
1.9760	30.226
1.9720	30.238
1.9680	30.085
1.9640	30.054
1.9600	30.054
1.9560	29.604
1.9520	29.454
1.9480	29.364
1.9440	29.243
1.9400	29.244
1.9360	29.083
1.9320	29.029
1.9280	29.060
1.9240	28.845
1.9200	28.784
1.9160	28.837
1.9120	28.560
1.9080	28.745
1.9040	28.876
1.9000	29.000
1.8960	29.181
1.8920	29.477
1.8880	29.714
1.8840	29.930
1.8800	30.159
1.8760	30.196
1.8720	30.238
1.8680	30.272
1.8640	30.324
1.8600	30.145
1.8560	30.224
1.8520	30.427
1.8480	30.516
1.8440	30.467
1.8400	30.560
1.8360	30.560
1.8320	30.583
1.8280	30.971
1.8240	30.580
1.8200	30.665
1.8160	30.749
1.8120	30.559
1.8080	30.569
1.8040	30.366
1.8000	30.542
1.7960	30.447
1.7920	30.280
1.7880	30.277
1.7840	30.396
1.7800	30.244
1.7760	30.542
1.7720	30.573
1.7680	30.396
1.7640	30.341
1.7600	30.372
1.7560	30.341
1.7520	30.460
1.7480	30.580
1.7440	30.311
1.7400	30.372
1.7360	30.583
1.7320	30.614
1.7280	30.703
1.7240	30.614
1.7200	30.436
1.7160	30.375
1.7120	30.283
1.7080	30.202
1.7040	30.308
1.7000	30.277
1.6960	30.366
1.6920	30.335
1.6880	30.308
1.6840	30.247
1.6800	30.217
1.6760	30.189
1.6720	30.131
1.6680	30.219
1.6640	30.189
1.6600	30.159
1.6560	29.963
1.6520	30.114
1.6480	30.025
1.6440	30.144
1.6400	30.053
1.6360	29.893
1.6320	29.935
1.6280	30.025
1.6240	29.926
1.6200	30.025
1.6160	29.965
1.6120	29.905
1.6080	29.965
1.6040	30.207
1.6000	30.207
1.5960	29.938
1.5920	29.908
1.5880	29.670
1.5840	29.815
1.5800	29.844
1.5760	29.905
1.5720	29.639
1.5680	29.639
1.5640	29.573
1.5600	29.875
1.5560	29.756
1.5520	29.397
1.5480	29.603
1.5440	29.514
1.5400	29.573
1.5360	29.397
1.5320	29.397
1.5280	29.603
1.5240	29.603
1.5200	29.485
1.5160	29.367
1.5120	29.280
1.5080	29.192
1.5040	29.044
1.5000	29.012
1.4960	28.665
1.4920	28.811
1.4880	28.842
1.4840	28.870
1.4800	28.822
1.4760	28.899
1.4720	28.899
1.4680	28.793
1.4640	28.765
1.4600	28.795
1.4560	28.881
1.4520	29.055
1.4480	28.907
1.4440	28.935
1.4400	28.933
1.4360	28.843
1.4320	28.843
1.4280	28.588
1.4240	28.560
1.4200	28.531
1.4160	28.411
1.4120	28.641
1.4080	28.520
1.4040	28.555
1.4000	28.549
1.3960	28.641
1.3920	28.644
1.3880	28.641
1.3840	28.520
1.3800	28.816
1.3760	28.729
1.3720	28.531
1.3680	28.575
1.3640	28.685
1.3600	28.590
1.3560	28.769
1.3520	28.780
1.3480	28.642
1.3440	28.732
1.3400	28.515
1.3360	28.425
1.3320	28.282
1.3280	28.167
1.3240	28.223
1.3200	28.303
1.3160	28.415
1.3120	28.377
1.3080	28.461
1.3040	28.490
1.3000	28.518
1.2960	28.458
1.2920	28.543
1.2880	28.540
1.2840	28.415
1.2800	28.350
1.2760	28.200
1.2720	28.253
1.2680	28.110
1.2640	27.913
1.2600	27.974
1.2560	28.002
1.2520	27.979
1.2480	28.092
1.2440	28.148
1.2400	28.172
1.2360	28.091
1.2320	27.984
1.2280	28.035
1.2240	27.941
1.2200	28.035
1.2160	28.029
1.2120	27.811
1.2080	27.672
1.2040	27.617
1.2000	27.855
1.1960	27.772
1.1920	27.667
1.1880	27.700
1.1840	27.558
1.1800	27.464
1.1760	27.591
1.1720	27.706
1.1680	27.464
1.1640	27.545
1.1600	27.511
1.1560	27.354
1.1520	27.320
1.1480	27.408
1.1440	27.357
1.1400	27.458
1.1360	27.623
1.1320	27.547
1.1280	27.575
1.1240	27.357
1.1200	27.411
1.1160	27.330
1.1120	27.303
1.1080	27.251
1.1040	27.189
1.1000	27.332
1.0960	27.251
1.0920	27.278
1.0880	27.136
1.0840	27.278
1.0800	27.199
1.0760	27.173
1.0720	27.208
1.0680	27.261
1.0640	27.074
1.0600	27.304
1.0560	27.304
1.0520	27.208
1.0480	27.181
1.0440	27.304
1.0400	27.171
1.0360	27.101
1.0320	27.119
1.0280	27.288
1.0240	27.396
1.0200	27.208
1.0160	27.146
1.0120	27.092
1.0080	27.208
1.0040	27.313
1.0000	27.179
0.9960	27.091
0.9920	26.995
0.9880	27.013
0.9840	27.031
0.9800	26.969
0.9760	27.020
0.9720	27.002
0.9680	27.082
0.9640	27.109
0.9600	26.852
0.9560	26.959
0.9520	26.932
0.9480	27.020
0.9440	26.932
0.9400	26.930
0.9360	27.072
0.9320	26.904
0.9280	26.886
0.9240	26.939
0.9200	27.027
0.9160	26.939
0.9120	27.027
0.9080	27.239
0.9040	26.965
0.9000	27.016
0.8960	27.097
0.8920	27.185
0.8880	27.177
0.8840	27.150
0.8800	27.307
0.8760	27.218
0.8720	27.068
0.8680	27.068
0.8640	27.034
0.8600	27.196
0.8560	27.169
0.8520	26.991
0.8480	27.018
0.8440	26.964
0.8400	26.883
0.8360	26.937
0.8320	26.830
0.8280	26.945
0.8240	26.891
0.8200	26.865
0.8160	26.758
0.8120	26.827
0.8080	26.950
0.8040	26.844
0.8000	26.773
0.7990	26.773
0.7980	26.773
0.7970	26.756
0.7960	27.160
0.7950	27.251
0.7940	26.964
0.7930	26.928
0.7920	26.984
0.7910	26.991
0.7900	26.932
0.7890	26.869
0.7880	26.928
0.7870	26.740
0.7860	26.957
0.7850	27.151
0.7840	27.092
0.7830	27.241
0.7820	26.957
0.7810	27.043
0.7800	27.043
0.7790	26.983
0.7780	26.736
0.7770	26.894
0.7760	26.803
0.7750	26.736
0.7740	26.769
0.7730	26.607
0.7720	26.986
0.7710	26.860
0.7700	27.075
0.7690	26.847
0.7680	26.876
0.7670	26.787
0.7660	26.751
0.7650	26.632
0.7640	26.750
0.7630	26.654
0.7620	26.500
0.7610	26.662
0.7600	26.758
0.7590	26.691
0.7580	26.965
0.7570	26.714
0.7560	26.500
0.7550	26.470
0.7540	26.445
0.7530	26.654
0.7520	26.810
0.7510	26.654
0.7500	26.495
0.7490	26.779
0.7480	26.537
0.7470	26.507
0.7460	26.566
0.7450	26.684
0.7440	26.617
0.7430	26.610
0.7420	26.308
0.7410	26.581
0.7400	26.454
0.7390	26.581
0.7380	26.183
0.7370	26.358
0.7360	26.603
0.7350	26.232
0.7340	26.425
0.7330	26.249
0.7320	26.249
0.7310	26.462
0.7300	26.551
0.7290	26.270
0.7280	26.418
0.7270	26.696
0.7260	26.507
0.7250	26.261
0.7240	26.418
0.7230	26.507
0.7220	26.447
0.7210	26.255
0.7200	26.263
0.7190	26.079
0.7180	26.296
0.7170	26.203
0.7160	26.175
0.7150	26.292
0.7140	26.107
0.7130	26.165
0.7120	26.166
0.7110	26.314
0.7100	26.186
0.7090	26.040
0.7080	25.818
0.7070	26.318
0.7060	26.225
0.7050	26.120
0.7040	26.255
0.7030	26.112
0.7020	26.235
0.7010	26.396
0.7000	26.366
0.6990	26.298
0.6980	26.500
0.6970	26.515
0.6960	26.522
0.6950	26.729
0.6940	26.729
0.6930	26.829
0.6920	26.500
0.6910	26.506
0.6900	26.506
0.6890	26.704
0.6880	26.828
0.6870	26.705
0.6860	26.499
0.6850	26.301
0.6840	26.081
0.6830	26.081
0.6820	26.246
0.6810	26.012
0.6800	26.148
0.6790	25.890
0.6780	25.890
0.6770	26.209
0.6760	26.369
0.6750	26.400
0.6740	26.522
0.6730	26.522
0.6720	26.598
0.6710	26.499
0.6700	26.468
0.6690	26.269
0.6680	26.209
0.6670	26.270
0.6660	25.911
0.6650	25.950
0.6640	26.262
0.6630	26.622
0.6620	26.162
0.6610	26.162
0.6600	26.262
0.6590	25.903
0.6580	25.903
0.6570	26.002
0.6560	26.110
0.6550	26.101
0.6540	26.101
0.6530	26.110
0.6520	26.024
0.6510	26.215
0.6500	26.254
0.6490	26.063
0.6480	26.002
0.6470	26.101
0.6460	26.131
0.6450	26.231
0.6440	26.032
0.6430	26.101
0.6420	26.208
0.6410	25.963
0.6400	25.963
0.6390	26.154
0.6380	26.123
0.6370	26.002
0.6360	25.863
0.6350	25.933
0.6340	26.002
0.6330	26.002
0.6320	26.131
0.6310	25.971
0.6300	26.032
0.6290	26.054
0.6280	26.062
0.6270	26.254
0.6260	26.115
0.6250	26.115
0.6240	26.054
0.6230	26.085
0.6220	25.815
0.6210	25.985
0.6200	25.985
0.6190	25.915
0.6180	26.207
0.6170	26.146
0.6160	26.015
0.6150	25.755
0.6140	25.785
0.6130	25.724
0.6120	25.625
0.6110	25.685
0.6100	25.715
0.6090	25.836
0.6080	25.645
0.6070	25.715
0.6060	25.745
0.6050	25.645
0.6040	25.706
0.6030	25.736
0.6020	25.535
0.6010	25.334
0.6000	25.687
0.5990	25.515
0.5980	25.981
0.5970	25.941
0.5960	25.637
0.5950	25.698
0.5940	25.627
0.5930	25.393
0.5920	25.484
0.5910	25.281
0.5900	25.688
0.5890	25.719
0.5880	25.586
0.5870	25.586
0.5860	25.625
0.5850	25.331
0.5840	25.688
0.5830	25.750
0.5820	25.596
0.5810	25.637
0.5800	25.414
0.5790	25.444
0.5780	25.313
0.5770	25.444
0.5760	25.637
0.5750	25.637
0.5740	25.545
0.5730	25.605
0.5720	25.555
0.5710	25.555
0.5700	25.625
0.5690	25.625
0.5680	25.535
0.5670	25.515
0.5660	25.535
0.5650	25.434
0.5640	25.345
0.5630	25.334
0.5620	25.364
0.5610	25.294
0.5600	25.212
0.5590	25.272
0.5580	24.488
0.5570	24.649
0.5560	24.757
0.5550	24.757
0.5540	24.665
0.5530	24.436
0.5520	24.171
0.5510	24.130
0.5500	24.292
0.5490	24.406
0.5480	24.574
0.5470	24.403
0.5460	24.528
0.5450	24.306
0.5440	24.418
0.5430	24.515
0.5420	24.420
0.5410	24.306
0.5400	24.099
0.5390	24.182
0.5380	24.264
0.5370	24.194
0.5360	24.222
0.5350	24.362
0.5340	24.294
0.5330	24.294
0.5320	24.310
0.5310	24.099
0.5300	24.225
0.5290	24.251
0.5280	24.028
0.5270	23.891
0.5260	23.989
0.5250	24.028
0.5240	24.070
0.5230	23.834
0.5220	23.559
0.5210	23.559
0.5200	23.459
0.5190	23.763
0.5180	23.959
0.5170	23.863
0.5160	23.820
0.5150	23.777
0.5140	23.641
0.5130	23.695
0.5120	23.722
0.5110	23.595
0.5100	23.321
0.5090	23.472
0.5080	23.254
0.5070	23.236
0.5060	23.415
0.5050	23.401
0.5040	23.468
0.5030	23.638
0.5020	23.476
0.5010	23.193
0.5000	23.316
0.4990	23.316
0.4980	23.308
0.4970	23.236
0.4960	23.183
0.4950	22.990
0.4940	22.833
0.4930	22.980
0.4920	22.961
0.4910	22.961
0.4900	23.042
0.4890	22.920
0.4880	23.042
0.4870	23.114
0.4860	23.025
0.4850	22.920
0.4840	22.822
0.4830	22.927
0.4820	22.503
0.4810	22.822
0.4800	22.556
0.4790	22.529
0.4780	22.535
0.4770	22.510
0.4760	22.510
0.4750	22.219
0.4740	22.342
0.4730	22.271
0.4720	22.221
0.4710	22.221
0.4700	22.024
0.4690	22.122
0.4680	22.266
0.4670	22.148
0.4660	22.051
0.4650	22.076
0.4640	21.979
0.4630	22.026
0.4620	21.952
0.4610	21.952
0.4600	21.783
0.4590	22.674
0.4580	22.652
0.4570	22.630
0.4560	22.556
0.4550	22.481
0.4540	22.257
0.4530	22.082
0.4520	22.081
0.4510	22.081
0.4500	22.357
0.4490	22.031
0.4480	22.532
0.4470	22.356
0.4460	22.227
0.4450	22.100
0.4440	21.994
0.4430	22.120
0.4420	22.217
0.4410	21.847
0.4400	21.824
0.4390	21.698
0.4380	21.669
0.4370	21.687
0.4360	21.789
0.4350	21.886
0.4340	21.710
0.4330	21.560
0.4320	21.758
0.4310	21.680
0.4300	21.702
0.4290	21.810
0.4280	21.399
0.4270	21.643
0.4260	21.446
0.4250	21.505
0.4240	21.194
0.4230	21.266
0.4220	20.924
0.4210	20.820
0.4200	20.968
0.4190	20.954
0.4180	21.058
0.4170	20.727
0.4160	20.570
0.4150	20.612
0.4140	20.669
0.4130	20.656
0.4120	20.736
0.4110	20.524
0.4100	20.567
0.4090	20.263
0.4080	20.465
0.4070	20.551
0.4060	20.617
0.4050	20.472
0.4040	20.333
0.4030	20.209
0.4020	20.151
0.4010	20.191
0.4000	19.733
