Name: Tremolite Schist 
Type:  Rocks
Class:  Metamorphic 
Subclass: Schist 
Particle Size:  0-75 Micrometer
Sample No.:   schist6.doc
Owner:  JHU
Wavelength Range:  All
Origin:  Sample No. 468, The Hunt and Salisbury Collection at the U.S. 
Geological Survey, Denver, Co.
Description:  This is another coarse-grained rock composed of bent folia of 
tremolite and lenses and stringers of quartz.  Unlike the previous one, however, 
this sample is completely unaltered.  The bent folia are due to brittle deformation 
of the amphibole as a result of shear stress, with regions of concomittant 
granulation of this mineral.  Modes for this rock gave 75.4% amphibole and 
24.6% quartz.
Measurement:  Directional (10 Degree) Hemispherical Reflectance
First Column:  X
Second Column:  Y  
X Units:  Wavelength (micrometers)
Y Units:  Reflectance (percent)
First X Value: 14.9831	
Last X Value:  0.4
Number of X Values: 2868
Additional Information:  None

14.983	2.6748
14.940	2.7745
14.897	2.8638
14.854	2.9900
14.812	3.0684
14.770	3.0781
14.728	3.1305
14.686	3.1809
14.645	3.1222
14.603	3.0592
14.562	2.9619
14.521	2.7861
14.481	2.5803
14.441	2.3454
14.400	2.1553
14.361	2.0234
14.321	2.0056
14.281	2.1451
14.242	2.4037
14.203	2.7241
14.164	3.0772
14.126	3.4075
14.087	3.6875
14.049	3.9207
14.011	4.1258
13.973	4.3145
13.936	4.4796
13.899	4.5942
13.861	4.6764
13.824	4.7287
13.788	4.7522
13.751	4.7465
13.715	4.7276
13.679	4.7029
13.643	4.6740
13.607	4.6338
13.571	4.6179
13.536	4.6544
13.500	4.7240
13.465	4.7811
13.430	4.8102
13.396	4.7941
13.361	4.7183
13.327	4.5824
13.293	4.4126
13.259	4.2553
13.225	4.1303
13.191	4.0382
13.158	3.9809
13.124	3.9418
13.091	3.9039
13.058	3.8468
13.026	3.7682
12.993	3.6972
12.960	3.6512
12.928	3.6306
12.896	3.6325
12.864	3.6517
12.832	3.6702
12.800	3.6536
12.769	3.5892
12.737	3.4892
12.706	3.3798
12.675	3.3007
12.644	3.2898
12.614	3.3614
12.583	3.5004
12.552	3.6775
12.522	3.8506
12.492	3.9778
12.462	4.0349
12.432	4.0316
12.402	4.0005
12.373	3.9728
12.343	3.9868
12.314	4.0784
12.285	4.2563
12.256	4.5028
12.227	4.7913
12.198	5.0975
12.169	5.4044
12.141	5.6983
12.113	5.9813
12.084	6.2534
12.056	6.5181
12.028	6.7644
12.000	6.9846
11.973	7.1739
11.945	7.3316
11.918	7.4554
11.890	7.5525
11.863	7.6200
11.836	7.6709
11.809	7.7129
11.782	7.7349
11.755	7.7394
11.729	7.7351
11.702	7.7190
11.676	7.6851
11.650	7.6326
11.624	7.5746
11.598	7.5144
11.572	7.4445
11.546	7.3707
11.520	7.2987
11.495	7.2238
11.469	7.1407
11.444	7.0498
11.419	6.9558
11.394	6.8492
11.369	6.7223
11.344	6.5768
11.319	6.4236
11.294	6.2664
11.270	6.1108
11.245	5.9576
11.221	5.8214
11.197	5.7075
11.173	5.6066
11.149	5.5159
11.125	5.4382
11.101	5.3719
11.077	5.3184
11.054	5.2682
11.030	5.2201
11.007	5.1721
10.983	5.1223
10.960	5.0681
10.937	5.0120
10.914	4.9592
10.891	4.9092
10.868	4.8564
10.846	4.7995
10.823	4.7441
10.800	4.7058
10.778	4.6932
10.755	4.7150
10.733	4.7699
10.711	4.8488
10.689	4.9461
10.667	5.0518
10.645	5.1552
10.623	5.2528
10.602	5.3504
10.580	5.4524
10.558	5.5630
10.537	5.6807
10.516	5.8003
10.494	5.9168
10.473	6.0203
10.452	6.1044
10.431	6.1726
10.410	6.2235
10.389	6.2747
10.368	6.3339
10.348	6.4049
10.327	6.4982
10.306	6.6107
10.286	6.7343
10.266	6.8556
10.245	6.9681
10.225	7.0846
10.205	7.2065
10.185	7.3193
10.165	7.4116
10.145	7.4696
10.125	7.4867
10.106	7.4538
10.086	7.3761
10.066	7.2686
10.047	7.1431
10.027	7.0000
10.008	6.8454
9.9887	6.6879
9.9695	6.5321
9.9504	6.3751
9.9313	6.2216
9.9123	6.0691
9.8934	5.9107
9.8746	5.7421
9.8558	5.5735
9.8371	5.4127
9.8185	5.2687
9.7999	5.1571
9.7814	5.0960
9.7630	5.0885
9.7447	5.1233
9.7264	5.1891
9.7082	5.2777
9.6900	5.3762
9.6719	5.4757
9.6539	5.5675
9.6360	5.6457
9.6181	5.7163
9.6003	5.7750
9.5825	5.8254
9.5649	5.8818
9.5472	5.9557
9.5297	6.0476
9.5122	6.1470
9.4948	6.2427
9.4774	6.3370
9.4601	6.4447
9.4429	6.5918
9.4257	6.8186
9.4086	7.1412
9.3916	7.5438
9.3746	7.9913
9.3577	8.4351
9.3408	8.8275
9.3240	9.1425
9.3073	9.3658
9.2906	9.5129
9.2740	9.5991
9.2574	9.6365
9.2409	9.6408
9.2245	9.6275
9.2081	9.6074
9.1918	9.6012
9.1755	9.6185
9.1593	9.6578
9.1431	9.7154
9.1270	9.7774
9.1110	9.8257
9.0950	9.8480
9.0791	9.8316
9.0632	9.7900
9.0474	9.7327
9.0316	9.6680
9.0159	9.6140
9.0003	9.5830
8.9847	9.5754
8.9691	9.5875
8.9536	9.6119
8.9382	9.6488
8.9228	9.6931
8.9075	9.7409
8.8922	9.8001
8.8770	9.8781
8.8618	9.9538
8.8467	10.023
8.8316	10.089
8.8166	10.148
8.8016	10.193
8.7867	10.221
8.7718	10.245
8.7570	10.272
8.7422	10.285
8.7275	10.277
8.7129	10.238
8.6982	10.124
8.6837	9.8617
8.6692	9.4253
8.6547	8.9066
8.6403	8.4647
8.6259	8.2267
8.6116	8.2540
8.5973	8.5256
8.5830	8.9216
8.5688	9.2758
8.5547	9.4793
8.5406	9.5373
8.5266	9.5091
8.5126	9.4357
8.4986	9.3369
8.4847	9.2261
8.4708	9.1049
8.4570	8.9805
8.4432	8.8628
8.4295	8.7636
8.4158	8.6874
8.4022	8.6312
8.3886	8.5881
8.3750	8.5623
8.3615	8.5569
8.3481	8.5711
8.3347	8.6118
8.3213	8.6829
8.3079	8.7830
8.2946	8.9081
8.2814	9.0592
8.2682	9.2361
8.2550	9.4305
8.2419	9.6280
8.2288	9.8172
8.2158	9.9844
8.2028	10.103
8.1898	10.143
8.1769	10.090
8.1640	9.9349
8.1512	9.6787
8.1384	9.3369
8.1256	8.9384
8.1129	8.5199
8.1002	8.1048
8.0876	7.7093
8.0750	7.3406
8.0624	6.9989
8.0499	6.6893
8.0374	6.4099
8.0250	6.1572
8.0126	5.9284
8.0002	5.7158
7.9879	5.5121
7.9756	5.3063
7.9634	5.0906
7.9512	4.8706
7.9390	4.6506
7.9268	4.4365
7.9147	4.2362
7.9027	4.0578
7.8906	3.8992
7.8786	3.7580
7.8667	3.6361
7.8548	3.5354
7.8429	3.4495
7.8310	3.3765
7.8192	3.3235
7.8075	3.2951
7.7957	3.2853
7.7840	3.2934
7.7723	3.3133
7.7607	3.3363
7.7491	3.3505
7.7375	3.3526
7.7260	3.3526
7.7145	3.3547
7.7031	3.3644
7.6916	3.3884
7.6802	3.4196
7.6689	3.4495
7.6575	3.4736
7.6462	3.4892
7.6350	3.5006
7.6238	3.5084
7.6126	3.5207
7.6014	3.5515
7.5903	3.5958
7.5792	3.6467
7.5681	3.7012
7.5571	3.7557
7.5461	3.8071
7.5351	3.8497
7.5242	3.8883
7.5133	3.9231
7.5024	3.9562
7.4916	3.9913
7.4807	4.0297
7.4700	4.0756
7.4592	4.1317
7.4485	4.1945
7.4378	4.2632
7.4272	4.3344
7.4165	4.4097
7.4059	4.4877
7.3954	4.5625
7.3848	4.6359
7.3743	4.7105
7.3639	4.7820
7.3534	4.8540
7.3430	4.9360
7.3326	5.0276
7.3223	5.1278
7.3119	5.2374
7.3016	5.3636
7.2914	5.5060
7.2811	5.6568
7.2709	5.8176
7.2607	5.9914
7.2506	6.1660
7.2404	6.3296
7.2303	6.4814
7.2203	6.6254
7.2102	6.7540
7.2002	6.8634
7.1902	6.9569
7.1803	7.0491
7.1703	7.1417
7.1604	7.2414
7.1506	7.3647
7.1407	7.5125
7.1309	7.6724
7.1211	7.8346
7.1113	7.9871
7.1016	8.1287
7.0919	8.2528
7.0822	8.3627
7.0725	8.4655
7.0629	8.5663
7.0533	8.6736
7.0437	8.7942
7.0341	8.9284
7.0246	9.0745
7.0151	9.2280
7.0056	9.3893
6.9962	9.5515
6.9867	9.7149
6.9773	9.8863
6.9679	10.064
6.9586	10.238
6.9493	10.401
6.9400	10.554
6.9307	10.694
6.9214	10.813
6.9122	10.909
6.9030	10.988
6.8938	11.049
6.8847	11.088
6.8755	11.113
6.8664	11.138
6.8573	11.165
6.8483	11.194
6.8393	11.227
6.8302	11.263
6.8213	11.296
6.8123	11.316
6.8034	11.328
6.7944	11.337
6.7855	11.339
6.7767	11.326
6.7678	11.304
6.7590	11.279
6.7502	11.257
6.7414	11.239
6.7327	11.232
6.7239	11.244
6.7152	11.274
6.7065	11.331
6.6979	11.425
6.6892	11.562
6.6806	11.738
6.6720	11.939
6.6634	12.132
6.6549	12.294
6.6464	12.417
6.6378	12.503
6.6294	12.563
6.6209	12.605
6.6124	12.638
6.6040	12.660
6.5956	12.660
6.5872	12.645
6.5789	12.624
6.5705	12.607
6.5622	12.623
6.5539	12.697
6.5456	12.857
6.5374	13.125
6.5292	13.497
6.5209	13.947
6.5128	14.440
6.5046	14.935
6.4964	15.404
6.4883	15.824
6.4802	16.191
6.4721	16.512
6.4640	16.780
6.4560	16.987
6.4480	17.135
6.4399	17.218
6.4320	17.239
6.4240	17.205
6.4160	17.121
6.4081	16.987
6.4002	16.795
6.3923	16.550
6.3844	16.261
6.3766	15.935
6.3687	15.588
6.3609	15.244
6.3531	14.907
6.3454	14.564
6.3376	14.203
6.3299	13.815
6.3221	13.409
6.3144	12.995
6.3068	12.584
6.2991	12.184
6.2914	11.797
6.2838	11.424
6.2762	11.062
6.2686	10.711
6.2611	10.382
6.2535	10.086
6.2460	9.8267
6.2385	9.5974
6.2310	9.4028
6.2235	9.2467
6.2160	9.1292
6.2086	9.0525
6.2011	9.0243
6.1937	9.0535
6.1863	9.1468
6.1790	9.3043
6.1716	9.5190
6.1643	9.7781
6.1570	10.065
6.1496	10.363
6.1424	10.657
6.1351	10.936
6.1278	11.201
6.1206	11.449
6.1134	11.681
6.1062	11.904
6.0990	12.119
6.0918	12.332
6.0847	12.538
6.0776	12.735
6.0704	12.918
6.0633	13.087
6.0563	13.253
6.0492	13.427
6.0421	13.607
6.0351	13.787
6.0281	13.960
6.0211	14.105
6.0141	14.197
6.0071	14.225
6.0002	14.190
5.9932	14.098
5.9863	13.955
5.9794	13.775
5.9725	13.578
5.9657	13.379
5.9588	13.193
5.9520	13.037
5.9451	12.932
5.9383	12.891
5.9315	12.919
5.9247	13.019
5.9180	13.179
5.9112	13.388
5.9045	13.628
5.8978	13.885
5.8911	14.152
5.8844	14.419
5.8777	14.679
5.8711	14.937
5.8644	15.194
5.8578	15.450
5.8512	15.698
5.8446	15.933
5.8380	16.157
5.8314	16.368
5.8249	16.569
5.8184	16.763
5.8118	16.956
5.8053	17.144
5.7988	17.321
5.7923	17.487
5.7859	17.644
5.7794	17.801
5.7730	17.960
5.7666	18.123
5.7602	18.291
5.7538	18.455
5.7474	18.619
5.7410	18.780
5.7347	18.922
5.7283	19.044
5.7220	19.143
5.7157	19.211
5.7094	19.237
5.7031	19.213
5.6969	19.140
5.6906	19.013
5.6844	18.826
5.6782	18.583
5.6719	18.291
5.6657	17.950
5.6596	17.563
5.6534	17.144
5.6472	16.713
5.6411	16.288
5.6349	15.895
5.6288	15.549
5.6227	15.262
5.6166	15.030
5.6106	14.844
5.6045	14.701
5.5984	14.588
5.5924	14.498
5.5864	14.432
5.5804	14.400
5.5744	14.407
5.5684	14.450
5.5624	14.541
5.5564	14.677
5.5505	14.848
5.5445	15.052
5.5386	15.288
5.5327	15.554
5.5268	15.838
5.5209	16.134
5.5151	16.431
5.5092	16.716
5.5033	16.983
5.4975	17.228
5.4917	17.448
5.4859	17.652
5.4801	17.845
5.4743	18.036
5.4685	18.222
5.4628	18.397
5.4570	18.551
5.4513	18.662
5.4455	18.713
5.4398	18.688
5.4341	18.576
5.4284	18.366
5.4228	18.052
5.4171	17.638
5.4114	17.135
5.4058	16.562
5.4002	15.942
5.3945	15.309
5.3889	14.698
5.3833	14.138
5.3778	13.657
5.3722	13.266
5.3666	12.967
5.3611	12.750
5.3555	12.606
5.3500	12.523
5.3445	12.491
5.3390	12.498
5.3335	12.535
5.3280	12.596
5.3225	12.672
5.3171	12.765
5.3116	12.881
5.3062	13.021
5.3008	13.193
5.2954	13.397
5.2900	13.636
5.2846	13.906
5.2792	14.202
5.2738	14.521
5.2684	14.858
5.2631	15.212
5.2578	15.591
5.2524	16.008
5.2471	16.473
5.2418	16.991
5.2365	17.559
5.2312	18.164
5.2260	18.776
5.2207	19.360
5.2154	19.882
5.2102	20.320
5.2050	20.660
5.1998	20.897
5.1945	21.045
5.1893	21.125
5.1842	21.156
5.1790	21.158
5.1738	21.140
5.1686	21.118
5.1635	21.087
5.1584	21.044
5.1532	20.990
5.1481	20.927
5.1430	20.864
5.1379	20.816
5.1328	20.795
5.1277	20.806
5.1227	20.849
5.1176	20.912
5.1126	20.977
5.1075	21.016
5.1025	21.016
5.0975	20.977
5.0925	20.897
5.0875	20.784
5.0825	20.664
5.0775	20.559
5.0726	20.485
5.0676	20.448
5.0627	20.452
5.0577	20.490
5.0528	20.550
5.0479	20.616
5.0430	20.678
5.0380	20.725
5.0332	20.753
5.0283	20.766
5.0234	20.772
5.0185	20.788
5.0137	20.831
5.0088	20.909
5.0040	21.024
4.9992	21.176
4.9944	21.374
4.9896	21.633
4.9848	21.961
4.9800	22.373
4.9752	22.875
4.9704	23.448
4.9657	24.049
4.9609	24.633
4.9562	25.170
4.9514	25.631
4.9467	26.006
4.9420	26.322
4.9373	26.617
4.9326	26.934
4.9279	27.312
4.9232	27.782
4.9186	28.374
4.9139	29.090
4.9092	29.912
4.9046	30.813
4.9000	31.750
4.8953	32.680
4.8907	33.567
4.8861	34.382
4.8815	35.114
4.8769	35.769
4.8723	36.356
4.8678	36.889
4.8632	37.375
4.8586	37.818
4.8541	38.217
4.8495	38.576
4.8450	38.893
4.8405	39.181
4.8360	39.439
4.8315	39.675
4.8270	39.894
4.8225	40.100
4.8180	40.297
4.8135	40.492
4.8090	40.690
4.8046	40.899
4.8001	41.119
4.7957	41.353
4.7913	41.605
4.7868	41.874
4.7824	42.150
4.7780	42.429
4.7736	42.712
4.7692	43.000
4.7648	43.290
4.7605	43.583
4.7561	43.880
4.7517	44.184
4.7474	44.484
4.7431	44.773
4.7387	45.048
4.7344	45.305
4.7301	45.544
4.7258	45.764
4.7215	45.965
4.7172	46.145
4.7129	46.292
4.7086	46.393
4.7043	46.444
4.7000	46.452
4.6958	46.440
4.6915	46.446
4.6873	46.515
4.6831	46.682
4.6788	46.964
4.6746	47.356
4.6704	47.831
4.6662	48.352
4.6620	48.882
4.6578	49.407
4.6536	49.923
4.6495	50.427
4.6453	50.927
4.6411	51.427
4.6370	51.918
4.6328	52.391
4.6287	52.844
4.6246	53.281
4.6205	53.701
4.6163	54.102
4.6122	54.489
4.6081	54.869
4.6040	55.238
4.6000	55.595
4.5959	55.942
4.5918	56.279
4.5877	56.607
4.5837	56.922
4.5796	57.222
4.5756	57.511
4.5716	57.785
4.5675	58.039
4.5635	58.272
4.5595	58.481
4.5555	58.660
4.5515	58.799
4.5475	58.884
4.5435	58.912
4.5395	58.877
4.5356	58.780
4.5316	58.631
4.5276	58.430
4.5237	58.173
4.5197	57.862
4.5158	57.502
4.5119	57.104
4.5080	56.692
4.5040	56.306
4.5001	55.981
4.4962	55.736
4.4923	55.572
4.4884	55.479
4.4846	55.420
4.4807	55.367
4.4768	55.323
4.4730	55.306
4.4691	55.345
4.4652	55.472
4.4614	55.699
4.4576	56.020
4.4537	56.394
4.4499	56.770
4.4461	57.119
4.4423	57.430
4.4385	57.704
4.4347	57.956
4.4309	58.208
4.4271	58.475
4.4233	58.754
4.4196	59.042
4.4158	59.342
4.4120	59.648
4.4083	59.960
4.4045	60.285
4.4008	60.628
4.3971	60.981
4.3934	61.343
4.3896	61.719
4.3859	62.099
4.3822	62.472
4.3785	62.836
4.3748	63.194
4.3711	63.543
4.3674	63.873
4.3638	64.185
4.3601	64.488
4.3564	64.769
4.3528	65.022
4.3491	65.249
4.3455	65.450
4.3418	65.622
4.3382	65.765
4.3346	65.882
4.3310	65.977
4.3273	66.041
4.3237	66.079
4.3201	66.092
4.3165	66.079
4.3129	66.046
4.3094	66.005
4.3058	65.956
4.3022	65.906
4.2986	65.868
4.2951	65.853
4.2915	65.860
4.2880	65.889
4.2844	65.950
4.2809	66.046
4.2774	66.168
4.2738	66.316
4.2703	66.475
4.2668	66.631
4.2633	66.771
4.2598	66.877
4.2563	66.945
4.2528	66.976
4.2493	66.984
4.2458	66.974
4.2424	66.948
4.2389	66.925
4.2354	66.917
4.2320	66.924
4.2285	66.949
4.2251	66.992
4.2216	67.040
4.2182	67.080
4.2148	67.108
4.2113	67.128
4.2079	67.140
4.2045	67.154
4.2011	67.179
4.1977	67.216
4.1943	67.269
4.1909	67.344
4.1875	67.442
4.1841	67.551
4.1808	67.663
4.1774	67.773
4.1740	67.879
4.1707	67.976
4.1673	68.071
4.1640	68.162
4.1606	68.248
4.1573	68.333
4.1540	68.412
4.1506	68.488
4.1473	68.571
4.1440	68.662
4.1407	68.760
4.1374	68.856
4.1341	68.955
4.1308	69.056
4.1275	69.153
4.1242	69.250
4.1209	69.352
4.1177	69.460
4.1144	69.567
4.1111	69.675
4.1079	69.786
4.1046	69.893
4.1014	70.001
4.0981	70.111
4.0949	70.217
4.0917	70.322
4.0884	70.418
4.0852	70.505
4.0820	70.583
4.0788	70.652
4.0756	70.720
4.0724	70.783
4.0692	70.836
4.0660	70.879
4.0628	70.914
4.0596	70.937
4.0565	70.946
4.0533	70.941
4.0501	70.931
4.0470	70.911
4.0438	70.878
4.0406	70.839
4.0375	70.800
4.0344	70.753
4.0312	70.695
4.0281	70.631
4.0250	70.571
4.0218	70.522
4.0187	70.480
4.0156	70.448
4.0125	70.421
4.0094	70.387
4.0063	70.345
4.0032	70.290
4.0001	70.228
3.9970	70.168
3.9940	70.105
3.9909	70.050
3.9878	70.010
3.9847	69.988
3.9817	69.996
3.9786	70.026
3.9756	70.079
3.9725	70.157
3.9695	70.254
3.9665	70.358
3.9634	70.473
3.9604	70.604
3.9574	70.746
3.9544	70.894
3.9513	71.052
3.9483	71.226
3.9453	71.400
3.9423	71.551
3.9393	71.679
3.9363	71.786
3.9333	71.869
3.9304	71.928
3.9274	71.976
3.9244	72.026
3.9214	72.078
3.9185	72.125
3.9155	72.161
3.9126	72.186
3.9096	72.205
3.9067	72.217
3.9037	72.223
3.9008	72.224
3.8979	72.221
3.8949	72.210
3.8920	72.191
3.8891	72.170
3.8862	72.150
3.8833	72.128
3.8804	72.101
3.8775	72.075
3.8746	72.054
3.8717	72.028
3.8688	72.002
3.8659	71.984
3.8630	71.977
3.8601	71.972
3.8573	71.970
3.8544	71.976
3.8515	71.990
3.8487	72.002
3.8458	72.020
3.8430	72.052
3.8401	72.096
3.8373	72.145
3.8344	72.193
3.8316	72.239
3.8288	72.283
3.8259	72.328
3.8231	72.374
3.8203	72.424
3.8175	72.474
3.8147	72.522
3.8119	72.565
3.8091	72.604
3.8063	72.636
3.8035	72.663
3.8007	72.679
3.7979	72.690
3.7951	72.692
3.7924	72.687
3.7896	72.675
3.7868	72.654
3.7841	72.626
3.7813	72.590
3.7785	72.549
3.7758	72.506
3.7730	72.455
3.7703	72.404
3.7676	72.351
3.7648	72.303
3.7621	72.258
3.7594	72.214
3.7566	72.175
3.7539	72.143
3.7512	72.114
3.7485	72.087
3.7458	72.068
3.7431	72.062
3.7404	72.058
3.7377	72.058
3.7350	72.066
3.7323	72.082
3.7296	72.103
3.7269	72.126
3.7242	72.155
3.7216	72.189
3.7189	72.226
3.7162	72.276
3.7136	72.343
3.7109	72.404
3.7083	72.425
3.7056	72.414
3.7030	72.356
3.7003	72.236
3.6977	72.103
3.6950	72.057
3.6924	72.140
3.6898	72.322
3.6872	72.548
3.6845	72.787
3.6819	72.975
3.6793	73.066
3.6767	73.091
3.6741	73.106
3.6715	73.130
3.6689	73.153
3.6663	73.171
3.6637	73.180
3.6611	73.181
3.6585	73.185
3.6560	73.193
3.6534	73.207
3.6508	73.222
3.6482	73.229
3.6457	73.234
3.6431	73.225
3.6406	73.204
3.6380	73.183
3.6355	73.169
3.6329	73.157
3.6304	73.138
3.6278	73.119
3.6253	73.105
3.6227	73.087
3.6202	73.063
3.6177	73.051
3.6152	73.052
3.6127	73.043
3.6101	73.020
3.6076	73.000
3.6051	72.978
3.6026	72.951
3.6001	72.925
3.5976	72.913
3.5951	72.908
3.5926	72.897
3.5901	72.883
3.5876	72.873
3.5852	72.860
3.5827	72.848
3.5802	72.829
3.5777	72.804
3.5753	72.777
3.5728	72.750
3.5704	72.728
3.5679	72.703
3.5654	72.678
3.5630	72.647
3.5605	72.599
3.5581	72.537
3.5557	72.473
3.5532	72.402
3.5508	72.327
3.5484	72.249
3.5459	72.166
3.5435	72.074
3.5411	71.969
3.5387	71.855
3.5363	71.735
3.5338	71.596
3.5314	71.436
3.5290	71.267
3.5266	71.075
3.5242	70.864
3.5218	70.638
3.5195	70.413
3.5171	70.194
3.5147	69.980
3.5123	69.775
3.5099	69.602
3.5075	69.464
3.5052	69.375
3.5028	69.341
3.5004	69.373
3.4981	69.459
3.4957	69.567
3.4934	69.672
3.4910	69.759
3.4887	69.821
3.4863	69.857
3.4840	69.867
3.4816	69.866
3.4793	69.885
3.4770	69.914
3.4746	69.938
3.4723	69.959
3.4700	69.975
3.4677	69.980
3.4653	69.967
3.4630	69.928
3.4607	69.877
3.4584	69.801
3.4561	69.683
3.4538	69.537
3.4515	69.373
3.4492	69.202
3.4469	69.027
3.4446	68.857
3.4423	68.692
3.4400	68.527
3.4378	68.360
3.4355	68.202
3.4332	68.040
3.4309	67.851
3.4287	67.643
3.4264	67.438
3.4241	67.228
3.4219	67.019
3.4196	66.836
3.4174	66.689
3.4151	66.568
3.4129	66.466
3.4106	66.389
3.4084	66.349
3.4061	66.334
3.4039	66.324
3.4017	66.311
3.3994	66.274
3.3972	66.202
3.3950	66.099
3.3928	65.962
3.3906	65.803
3.3883	65.637
3.3861	65.472
3.3839	65.320
3.3817	65.178
3.3795	65.059
3.3773	64.972
3.3751	64.905
3.3729	64.835
3.3707	64.748
3.3685	64.625
3.3663	64.442
3.3641	64.196
3.3620	63.914
3.3598	63.614
3.3576	63.321
3.3554	63.070
3.3533	62.884
3.3511	62.778
3.3489	62.761
3.3468	62.832
3.3446	62.987
3.3425	63.202
3.3403	63.453
3.3382	63.718
3.3360	63.955
3.3339	64.145
3.3317	64.278
3.3296	64.356
3.3274	64.398
3.3253	64.429
3.3232	64.473
3.3210	64.532
3.3189	64.592
3.3168	64.638
3.3147	64.668
3.3126	64.696
3.3104	64.732
3.3083	64.797
3.3062	64.920
3.3041	65.085
3.3020	65.271
3.2999	65.465
3.2978	65.658
3.2957	65.842
3.2936	66.016
3.2915	66.192
3.2894	66.388
3.2874	66.581
3.2853	66.751
3.2832	66.902
3.2811	67.024
3.2790	67.109
3.2770	67.160
3.2749	67.190
3.2728	67.205
3.2708	67.195
3.2687	67.153
3.2666	67.098
3.2646	67.043
3.2625	66.981
3.2605	66.913
3.2584	66.852
3.2564	66.787
3.2543	66.706
3.2523	66.615
3.2503	66.518
3.2482	66.421
3.2462	66.323
3.2442	66.231
3.2421	66.155
3.2401	66.077
3.2381	65.990
3.2361	65.901
3.2340	65.805
3.2320	65.698
3.2300	65.588
3.2280	65.481
3.2260	65.381
3.2240	65.276
3.2220	65.169
3.2200	65.060
3.2180	64.939
3.2160	64.802
3.2140	64.651
3.2120	64.483
3.2100	64.306
3.2080	64.124
3.2060	63.935
3.2040	63.741
3.2021	63.547
3.2001	63.359
3.1981	63.169
3.1961	62.959
3.1942	62.736
3.1922	62.516
3.1902	62.295
3.1883	62.075
3.1863	61.878
3.1844	61.712
3.1824	61.579
3.1805	61.468
3.1785	61.377
3.1766	61.305
3.1746	61.246
3.1727	61.202
3.1707	61.184
3.1688	61.198
3.1669	61.238
3.1649	61.294
3.1630	61.347
3.1611	61.387
3.1591	61.418
3.1572	61.442
3.1553	61.473
3.1534	61.517
3.1515	61.572
3.1495	61.625
3.1476	61.661
3.1457	61.687
3.1438	61.692
3.1419	61.675
3.1400	61.641
3.1381	61.602
3.1362	61.560
3.1343	61.502
3.1324	61.436
3.1305	61.367
3.1286	61.300
3.1268	61.241
3.1249	61.183
3.1230	61.123
3.1211	61.057
3.1192	60.986
3.1174	60.916
3.1155	60.847
3.1136	60.792
3.1117	60.738
3.1099	60.685
3.1080	60.630
3.1061	60.565
3.1043	60.499
3.1024	60.438
3.1006	60.375
3.0987	60.310
3.0969	60.241
3.0950	60.184
3.0932	60.131
3.0913	60.073
3.0895	60.018
3.0876	59.958
3.0858	59.884
3.0840	59.813
3.0821	59.754
3.0803	59.706
3.0785	59.659
3.0766	59.628
3.0748	59.604
3.0730	59.581
3.0712	59.561
3.0694	59.546
3.0675	59.530
3.0657	59.503
3.0639	59.462
3.0621	59.422
3.0603	59.376
3.0585	59.334
3.0567	59.286
3.0549	59.230
3.0531	59.173
3.0513	59.100
3.0495	59.020
3.0477	58.941
3.0459	58.871
3.0441	58.819
3.0423	58.771
3.0406	58.723
3.0388	58.684
3.0370	58.646
3.0352	58.614
3.0334	58.587
3.0317	58.570
3.0299	58.558
3.0281	58.542
3.0264	58.516
3.0246	58.478
3.0228	58.433
3.0211	58.388
3.0193	58.346
3.0176	58.300
3.0158	58.249
3.0140	58.199
3.0123	58.151
3.0105	58.101
3.0088	58.057
3.0070	58.021
3.0053	57.985
3.0036	57.949
3.0018	57.917
3.0001	57.879
2.9984	57.842
2.9966	57.803
2.9949	57.758
2.9932	57.708
2.9914	57.654
2.9897	57.616
2.9880	57.583
2.9863	57.541
2.9845	57.503
2.9828	57.462
2.9811	57.419
2.9794	57.380
2.9777	57.348
2.9760	57.324
2.9743	57.303
2.9726	57.275
2.9709	57.253
2.9692	57.237
2.9675	57.227
2.9658	57.229
2.9641	57.247
2.9624	57.278
2.9607	57.320
2.9590	57.356
2.9573	57.390
2.9556	57.426
2.9539	57.466
2.9523	57.494
2.9506	57.523
2.9489	57.552
2.9472	57.569
2.9455	57.558
2.9439	57.525
2.9422	57.498
2.9405	57.491
2.9389	57.482
2.9372	57.479
2.9355	57.482
2.9339	57.476
2.9322	57.456
2.9306	57.438
2.9289	57.435
2.9272	57.445
2.9256	57.446
2.9239	57.438
2.9223	57.411
2.9207	57.368
2.9190	57.321
2.9174	57.284
2.9157	57.251
2.9141	57.223
2.9124	57.202
2.9108	57.187
2.9092	57.173
2.9075	57.163
2.9059	57.158
2.9043	57.147
2.9027	57.140
2.9010	57.145
2.8994	57.146
2.8978	57.140
2.8962	57.133
2.8946	57.123
2.8929	57.111
2.8913	57.110
2.8897	57.125
2.8881	57.143
2.8865	57.157
2.8849	57.165
2.8833	57.174
2.8817	57.181
2.8801	57.179
2.8785	57.178
2.8769	57.163
2.8753	57.134
2.8737	57.110
2.8721	57.083
2.8705	57.062
2.8689	57.057
2.8673	57.068
2.8658	57.079
2.8642	57.084
2.8626	57.086
2.8610	57.082
2.8594	57.058
2.8579	57.023
2.8563	56.989
2.8547	56.954
2.8531	56.913
2.8516	56.866
2.8500	56.819
2.8484	56.773
2.8469	56.735
2.8453	56.701
2.8437	56.646
2.8422	56.568
2.8406	56.483
2.8391	56.373
2.8375	56.239
2.8360	56.105
2.8344	55.991
2.8329	55.887
2.8313	55.798
2.8298	55.746
2.8282	55.730
2.8267	55.725
2.8252	55.722
2.8236	55.721
2.8221	55.711
2.8205	55.679
2.8190	55.634
2.8175	55.584
2.8159	55.518
2.8144	55.440
2.8129	55.356
2.8114	55.266
2.8098	55.182
2.8083	55.097
2.8068	55.000
2.8053	54.896
2.8038	54.791
2.8022	54.683
2.8007	54.569
2.7992	54.451
2.7977	54.330
2.7962	54.191
2.7947	54.034
2.7932	53.874
2.7917	53.721
2.7902	53.587
2.7887	53.476
2.7872	53.340
2.7857	53.103
2.7842	52.815
2.7827	52.602
2.7812	52.513
2.7797	52.552
2.7782	52.698
2.7767	52.888
2.7752	53.009
2.7738	52.982
2.7723	52.864
2.7708	52.763
2.7693	52.701
2.7678	52.684
2.7664	52.703
2.7649	52.706
2.7634	52.654
2.7619	52.549
2.7605	52.373
2.7590	52.143
2.7575	51.886
2.7561	51.625
2.7546	51.369
2.7531	51.121
2.7517	50.870
2.7502	50.619
2.7488	50.344
2.7473	49.910
2.7458	49.177
2.7444	48.174
2.7429	46.969
2.7415	45.658
2.7400	44.276
2.7386	42.668
2.7371	40.554
2.7357	37.544
2.7343	33.456
2.7328	28.708
2.7314	24.007
2.7299	19.930
2.7285	16.733
2.7271	14.416
2.7256	12.781
2.7242	11.604
2.7228	11.176
2.7213	12.500
2.7199	16.324
2.7185	22.273
2.7171	29.289
2.7156	36.243
2.7142	42.088
2.7128	46.144
2.7114	48.411
2.7100	49.434
2.7085	49.663
2.7071	49.285
2.7057	48.589
2.7043	47.941
2.7029	47.648
2.7015	47.924
2.7001	48.813
2.6987	50.181
2.6973	51.809
2.6959	53.561
2.6945	55.345
2.6931	57.016
2.6917	58.401
2.6903	59.443
2.6889	60.223
2.6875	60.853
2.6861	61.421
2.6847	62.041
2.6833	62.791
2.6819	63.712
2.6805	64.751
2.6791	65.803
2.6778	66.780
2.6764	67.643
2.6750	68.406
2.6736	69.163
2.6722	70.008
2.6709	70.947
2.6695	71.898
2.6681	72.769
2.6667	73.480
2.6654	73.974
2.6640	74.249
2.6626	74.387
2.6613	74.488
2.6599	74.567
2.6585	74.642
2.6572	74.720
2.6558	74.782
2.6545	74.807
2.6531	74.778
2.6517	74.679
2.6504	74.524
2.6490	74.333
2.6477	74.157
2.6463	74.014
2.6450	73.895
2.6436	73.802
2.6423	73.743
2.6409	73.708
2.6396	73.676
2.6382	73.640
2.6369	73.619
2.6356	73.604
2.6342	73.579
2.6329	73.560
2.6315	73.553
2.6302	73.547
2.6289	73.530
2.6275	73.505
2.6262	73.479
2.6249	73.432
2.6236	73.373
2.6222	73.344
2.6209	73.329
2.6196	73.321
2.6183	73.344
2.6169	73.408
2.6156	73.493
2.6143	73.554
2.6130	73.589
2.6117	73.597
2.6103	73.549
2.6090	73.448
2.6077	73.323
2.6064	73.199
2.6051	73.080
2.6038	72.963
2.6025	72.863
2.6012	72.795
2.5999	72.733
2.5986	72.652
2.5973	72.591
2.5960	72.583
2.5947	72.607
2.5934	72.638
2.5921	72.660
2.5908	72.660
2.5895	72.620
2.5882	72.510
2.5869	72.392
2.5856	72.312
2.5843	72.252
2.5830	72.201
2.5817	72.141
2.5805	72.068
2.5792	71.989
2.5779	71.888
2.5766	71.777
2.5753	71.671
2.5741	71.558
2.5728	71.445
2.5715	71.327
2.5702	71.218
2.5690	71.135
2.5677	71.072
2.5664	71.023
2.5651	70.990
2.5639	70.978
2.5626	70.992
2.5613	71.029
2.5601	71.104
2.5588	71.213
2.5575	71.352
2.5563	71.509
2.5550	71.661
2.5538	71.806
2.5525	71.933
2.5513	72.029
2.5500	72.089
2.5487	72.120
2.5475	72.147
2.5462	72.175
2.5450	72.204
2.5437	72.239
2.5425	72.276
2.5413	72.308
2.5400	72.340
2.5388	72.373
2.5375	72.403
2.5363	72.430
2.5350	72.455
2.5338	72.461
2.5326	72.446
2.5313	72.416
2.5301	72.384
2.5289	72.341
2.5276	72.282
2.5264	72.201
2.5252	72.090
2.5239	71.937
2.5227	71.752
2.5215	71.536
2.5202	71.309
2.5190	71.089
2.5178	70.898
2.5166	70.753
2.5154	70.682
2.5141	70.685
2.5129	70.738
2.5117	70.819
2.5105	70.894
2.5093	70.937
2.5081	70.929
2.5068	70.873
2.5056	70.800
2.5044	70.686
2.5032	70.546
2.5020	70.396
2.5008	70.234
2.4996	70.063
2.4984	69.895
2.4972	69.742
2.4960	69.620
2.4948	69.507
2.4936	69.404
2.4924	69.308
2.4912	69.216
2.4900	69.128
2.4888	69.047
2.4876	68.978
2.4864	68.927
2.4852	68.875
2.4840	68.798
2.4828	68.698
2.4816	68.574
2.4805	68.435
2.4793	68.296
2.4781	68.167
2.4769	68.061
2.4757	67.960
2.4745	67.848
2.4734	67.731
2.4722	67.602
2.4710	67.465
2.4698	67.341
2.4686	67.246
2.4675	67.199
2.4663	67.199
2.4651	67.242
2.4640	67.324
2.4628	67.455
2.4616	67.621
2.4604	67.803
2.4593	68.003
2.4581	68.218
2.4569	68.432
2.4558	68.627
2.4546	68.792
2.4535	68.934
2.4523	69.041
2.4511	69.111
2.4500	69.145
2.4488	69.135
2.4477	69.061
2.4465	68.928
2.4454	68.757
2.4442	68.571
2.4431	68.410
2.4419	68.333
2.4408	68.360
2.4396	68.497
2.4385	68.708
2.4373	68.965
2.4362	69.226
2.4350	69.467
2.4339	69.679
2.4327	69.855
2.4316	69.975
2.4305	70.036
2.4293	70.046
2.4282	70.021
2.4270	69.966
2.4259	69.899
2.4248	69.826
2.4236	69.728
2.4225	69.594
2.4214	69.421
2.4202	69.238
2.4191	69.074
2.4180	68.948
2.4169	68.887
2.4157	68.908
2.4146	68.998
2.4135	69.134
2.4124	69.267
2.4112	69.360
2.4101	69.403
2.4090	69.387
2.4079	69.318
2.4068	69.195
2.4056	69.020
2.4045	68.779
2.4034	68.441
2.4023	67.992
2.4012	67.429
2.4001	66.766
2.3990	66.029
2.3979	65.270
2.3967	64.541
2.3956	63.863
2.3945	63.241
2.3934	62.653
2.3923	62.063
2.3912	61.444
2.3901	60.788
2.3890	60.123
2.3879	59.495
2.3868	58.958
2.3857	58.598
2.3846	58.467
2.3835	58.576
2.3824	58.897
2.3813	59.387
2.3802	59.985
2.3791	60.644
2.3781	61.344
2.3770	62.069
2.3759	62.805
2.3748	63.522
2.3737	64.198
2.3726	64.826
2.3715	65.383
2.3704	65.878
2.3694	66.342
2.3683	66.783
2.3672	67.216
2.3661	67.662
2.3650	68.117
2.3640	68.565
2.3629	68.968
2.3618	69.307
2.3607	69.585
2.3597	69.791
2.3586	69.928
2.3575	70.024
2.3564	70.092
2.3554	70.154
2.3543	70.235
2.3532	70.359
2.3522	70.530
2.3511	70.738
2.3500	70.970
2.3490	71.210
2.3479	71.442
2.3468	71.667
2.3458	71.879
2.3447	72.067
2.3436	72.210
2.3426	72.305
2.3415	72.357
2.3405	72.366
2.3394	72.330
2.3384	72.251
2.3373	72.125
2.3363	71.950
2.3352	71.715
2.3342	71.410
2.3331	71.038
2.3321	70.590
2.3310	70.040
2.3300	69.343
2.3289	68.455
2.3279	67.350
2.3268	66.026
2.3258	64.524
2.3247	62.936
2.3237	61.395
2.3226	60.021
2.3216	58.861
2.3206	57.898
2.3195	57.062
2.3185	56.269
2.3175	55.449
2.3164	54.594
2.3154	53.773
2.3144	53.051
2.3133	52.480
2.3123	52.097
2.3113	51.893
2.3102	51.846
2.3092	51.933
2.3082	52.146
2.3071	52.495
2.3061	52.936
2.3051	53.391
2.3041	53.752
2.3030	53.919
2.3020	53.881
2.3010	53.712
2.3000	53.552
2.2990	53.556
2.2979	53.784
2.2969	54.182
2.2959	54.627
2.2949	55.012
2.2939	55.313
2.2929	55.587
2.2918	55.951
2.2908	56.509
2.2898	57.269
2.2888	58.168
2.2878	59.125
2.2868	60.066
2.2858	60.937
2.2848	61.714
2.2838	62.400
2.2828	63.026
2.2818	63.590
2.2808	64.083
2.2798	64.519
2.2787	64.913
2.2777	65.257
2.2767	65.531
2.2757	65.721
2.2747	65.865
2.2738	65.961
2.2728	66.003
2.2718	66.041
2.2708	66.130
2.2698	66.298
2.2688	66.579
2.2678	66.984
2.2668	67.513
2.2658	68.118
2.2648	68.760
2.2638	69.436
2.2628	70.127
2.2618	70.801
2.2609	71.456
2.2599	72.061
2.2589	72.588
2.2579	73.051
2.2569	73.476
2.2559	73.858
2.2550	74.191
2.2540	74.463
2.2530	74.671
2.2520	74.805
2.2510	74.864
2.2501	74.854
2.2491	74.787
2.2481	74.674
2.2471	74.536
2.2462	74.406
2.2452	74.323
2.2442	74.313
2.2433	74.394
2.2423	74.545
2.2413	74.728
2.2403	74.934
2.2394	75.145
2.2384	75.343
2.2374	75.532
2.2365	75.717
2.2355	75.904
2.2345	76.081
2.2336	76.225
2.2326	76.352
2.2317	76.473
2.2307	76.576
2.2297	76.659
2.2288	76.730
2.2278	76.804
2.2269	76.866
2.2259	76.909
2.2250	76.944
2.2240	76.987
2.2231	77.031
2.2221	77.073
2.2211	77.117
2.2202	77.177
2.2192	77.216
2.2183	77.236
2.2173	77.248
2.2164	77.254
2.2155	77.266
2.2145	77.286
2.2136	77.314
2.2126	77.356
2.2117	77.386
2.2107	77.412
2.2098	77.436
2.2088	77.448
2.2079	77.458
2.2070	77.462
2.2060	77.481
2.2051	77.520
2.2041	77.564
2.2032	77.600
2.2023	77.627
2.2013	77.642
2.2004	77.637
2.1995	77.622
2.1985	77.616
2.1976	77.626
2.1967	77.656
2.1957	77.688
2.1948	77.706
2.1939	77.720
2.1930	77.717
2.1920	77.696
2.1911	77.670
2.1902	77.661
2.1893	77.684
2.1883	77.715
2.1874	77.737
2.1865	77.758
2.1856	77.773
2.1846	77.782
2.1837	77.795
2.1828	77.830
2.1819	77.874
2.1810	77.903
2.1800	77.903
2.1791	77.892
2.1782	77.895
2.1773	77.919
2.1764	77.965
2.1755	78.037
2.1746	78.118
2.1736	78.178
2.1727	78.208
2.1718	78.227
2.1709	78.250
2.1700	78.275
2.1691	78.293
2.1682	78.302
2.1673	78.315
2.1664	78.321
2.1655	78.305
2.1646	78.289
2.1637	78.277
2.1628	78.255
2.1619	78.207
2.1610	78.146
2.1601	78.114
2.1592	78.110
2.1583	78.128
2.1574	78.175
2.1565	78.233
2.1556	78.281
2.1547	78.309
2.1538	78.331
2.1529	78.352
2.1520	78.361
2.1511	78.344
2.1502	78.314
2.1493	78.276
2.1484	78.233
2.1475	78.190
2.1466	78.158
2.1458	78.131
2.1449	78.106
2.1440	78.099
2.1431	78.107
2.1422	78.123
2.1413	78.143
2.1404	78.169
2.1396	78.189
2.1387	78.194
2.1378	78.205
2.1369	78.206
2.1360	78.176
2.1352	78.133
2.1343	78.087
2.1334	78.036
2.1325	77.981
2.1316	77.931
2.1308	77.902
2.1299	77.894
2.1290	77.921
2.1281	77.967
2.1273	78.017
2.1264	78.050
2.1255	78.065
2.1247	78.035
2.1238	77.977
2.1229	77.938
2.1220	77.919
2.1212	77.900
2.1203	77.905
2.1194	77.950
2.1186	78.007
2.1177	78.059
2.1168	78.096
2.1160	78.103
2.1151	78.073
2.1143	78.029
2.1134	78.002
2.1125	78.004
2.1117	78.018
2.1108	78.040
2.1100	78.077
2.1091	78.137
2.1082	78.245
2.1074	78.447
2.1065	78.710
2.1057	78.987
2.1048	79.234
2.1040	79.407
2.1031	79.526
2.1023	79.598
2.1014	79.660
2.1005	79.726
2.0997	79.783
2.0988	79.829
2.0980	79.873
2.0971	79.912
2.0963	79.966
2.0955	80.006
2.0946	80.032
2.0938	80.031
2.0929	80.030
2.0921	80.035
2.0912	80.056
2.0904	80.072
2.0895	80.088
2.0887	80.102
2.0879	80.112
2.0870	80.132
2.0862	80.168
2.0853	80.222
2.0845	80.288
2.0837	80.349
2.0828	80.403
2.0820	80.493
2.0812	80.557
2.0803	80.608
2.0795	80.704
2.0760	80.704
2.0720	80.989
2.0680	81.107
2.0640	81.107
2.0600	81.319
2.0560	81.486
2.0520	81.603
2.0480	81.670
2.0440	81.881
2.0400	81.997
2.0360	81.875
2.0320	81.611
2.0280	81.677
2.0240	81.842
2.0200	82.172
2.0160	82.194
2.0120	82.165
2.0080	81.743
2.0040	81.415
2.0000	81.344
1.9960	81.226
1.9920	81.481
1.9880	81.248
1.9840	81.340
1.9800	81.569
1.9760	81.451
1.9720	81.196
1.9680	80.759
1.9640	80.896
1.9600	81.288
1.9560	81.635
1.9520	81.565
1.9480	81.494
1.9440	81.494
1.9400	81.380
1.9360	81.385
1.9320	81.567
1.9280	81.650
1.9240	81.490
1.9200	81.677
1.9160	81.792
1.9120	82.165
1.9080	82.631
1.9040	82.957
1.9000	82.853
1.8960	82.419
1.8920	82.614
1.8880	82.956
1.8840	82.586
1.8800	82.998
1.8760	83.708
1.8720	83.838
1.8680	83.520
1.8640	83.303
1.8600	83.302
1.8560	83.270
1.8520	83.853
1.8480	83.933
1.8440	84.232
1.8400	84.681
1.8360	84.993
1.8320	85.160
1.8280	85.201
1.8240	84.624
1.8200	84.126
1.8160	84.325
1.8120	84.113
1.8080	84.401
1.8040	84.703
1.8000	84.793
1.7960	84.259
1.7920	84.490
1.7880	84.471
1.7840	84.382
1.7800	84.164
1.7760	83.844
1.7720	83.793
1.7680	83.803
1.7640	83.893
1.7600	83.813
1.7560	84.100
1.7520	84.068
1.7480	84.461
1.7440	84.494
1.7400	84.546
1.7360	84.557
1.7320	84.590
1.7280	84.733
1.7240	84.824
1.7200	85.132
1.7160	85.223
1.7120	85.475
1.7080	85.520
1.7040	85.385
1.7000	84.593
1.6960	84.805
1.6920	85.039
1.6880	85.091
1.6840	84.686
1.6800	85.600
1.6760	85.314
1.6720	85.591
1.6680	84.645
1.6640	84.894
1.6600	85.144
1.6560	85.002
1.6520	84.382
1.6480	84.593
1.6440	85.232
1.6400	85.216
1.6360	84.947
1.6320	85.071
1.6280	85.018
1.6240	84.876
1.6200	85.002
1.6160	84.808
1.6120	84.471
1.6080	84.716
1.6040	85.071
1.6000	85.142
1.5960	85.108
1.5920	85.142
1.5880	84.892
1.5840	84.963
1.5800	85.249
1.5760	85.034
1.5720	85.071
1.5680	84.876
1.5640	84.205
1.5600	83.680
1.5560	83.542
1.5520	84.085
1.5480	84.453
1.5440	84.294
1.5400	83.857
1.5360	84.396
1.5320	84.697
1.5280	84.768
1.5240	84.645
1.5200	84.453
1.5160	84.491
1.5120	84.791
1.5080	85.340
1.5040	85.320
1.5000	85.225
1.4960	85.461
1.4920	84.342
1.4880	84.150
1.4840	83.921
1.4800	83.464
1.4760	83.236
1.4720	83.167
1.4680	84.092
1.4640	84.375
1.4600	84.362
1.4560	84.470
1.4520	84.438
1.4480	84.317
1.4440	84.509
1.4400	84.602
1.4360	84.924
1.4320	85.067
1.4280	85.014
1.4240	84.262
1.4200	83.742
1.4160	83.383
1.4120	83.282
1.4080	83.584
1.4040	83.939
1.4000	82.671
1.3960	79.731
1.3920	74.825
1.3880	71.012
1.3840	70.862
1.3800	74.686
1.3760	79.313
1.3720	81.172
1.3680	82.314
1.3640	83.069
1.3600	83.732
1.3560	84.319
1.3520	84.251
1.3480	83.968
1.3440	84.185
1.3400	83.839
1.3360	83.533
1.3320	83.591
1.3280	83.909
1.3240	83.988
1.3200	84.227
1.3160	84.077
1.3120	83.918
1.3080	83.829
1.3040	83.690
1.3000	83.512
1.2960	83.423
1.2920	83.451
1.2880	83.321
1.2840	83.579
1.2800	83.707
1.2760	83.767
1.2720	83.494
1.2680	83.706
1.2640	84.129
1.2600	84.220
1.2560	84.078
1.2520	83.987
1.2480	83.825
1.2440	83.947
1.2400	84.046
1.2360	84.117
1.2320	84.097
1.2280	84.380
1.2240	83.734
1.2200	84.117
1.2160	84.440
1.2120	84.137
1.2080	83.675
1.2040	83.675
1.2000	83.765
1.1960	83.704
1.1920	83.586
1.1880	83.534
1.1840	83.465
1.1800	83.396
1.1760	83.189
1.1720	82.874
1.1680	82.874
1.1640	82.615
1.1600	82.541
1.1560	82.614
1.1520	82.717
1.1480	82.873
1.1440	82.488
1.1400	82.648
1.1360	82.178
1.1320	82.334
1.1280	81.951
1.1240	82.065
1.1200	81.802
1.1160	81.325
1.1120	81.552
1.1080	81.119
1.1040	80.394
1.1000	80.004
1.0960	80.687
1.0920	80.103
1.0880	79.759
1.0840	79.612
1.0800	78.523
1.0760	78.175
1.0720	77.473
1.0680	76.505
1.0640	75.768
1.0600	75.568
1.0560	74.625
1.0520	74.145
1.0480	73.750
1.0440	73.644
1.0400	73.497
1.0360	73.167
1.0320	72.985
1.0280	72.473
1.0240	72.140
1.0200	71.959
1.0160	71.928
1.0120	71.062
1.0080	71.207
1.0040	71.053
1.0000	70.309
0.99600	69.939
0.99200	69.875
0.98800	69.783
0.98400	69.317
0.98000	69.141
0.97600	68.857
0.97200	68.437
0.96800	68.191
0.96400	68.145
0.96000	67.921
0.95600	67.615
0.95200	67.178
0.94800	67.088
0.94400	67.178
0.94000	66.977
0.93600	66.957
0.93200	67.102
0.92800	67.221
0.92400	67.356
0.92000	67.399
0.91600	67.335
0.91200	67.726
0.90800	67.927
0.90400	68.083
0.90000	68.731
0.89600	68.765
0.89200	68.943
0.88800	69.357
0.88400	69.740
0.88000	69.999
0.87600	70.352
0.87200	71.122
0.86800	71.094
0.86400	71.633
0.86000	72.278
0.85600	72.385
0.85200	72.809
0.84800	73.370
0.84400	73.630
0.84000	74.086
0.83600	74.580
0.83200	74.718
0.82800	75.110
0.82400	75.738
0.82000	76.664
0.81600	76.461
0.81200	76.595
0.80800	77.353
0.80400	78.125
0.80000	78.470
0.79900	78.207
0.79800	78.207
0.79700	78.035
0.79600	78.183
0.79500	78.573
0.79400	78.885
0.79300	78.716
0.79200	78.207
0.79100	78.324
0.79000	78.863
0.78900	78.985
0.78800	78.642
0.78700	79.202
0.78600	78.590
0.78500	79.180
0.78400	79.080
0.78300	78.982
0.78200	78.807
0.78100	79.191
0.78000	79.080
0.77900	79.305
0.77800	79.350
0.77700	79.588
0.77600	79.172
0.77500	78.826
0.77400	78.923
0.77300	79.116
0.77200	79.135
0.77100	79.138
0.77000	79.015
0.76900	78.960
0.76800	79.135
0.76700	79.294
0.76600	79.391
0.76500	79.307
0.76400	79.957
0.76300	79.996
0.76200	79.169
0.76100	79.505
0.76000	79.285
0.75900	79.640
0.75800	79.061
0.75700	79.350
0.75600	79.360
0.75500	79.466
0.75400	80.024
0.75300	78.942
0.75200	79.113
0.75100	79.210
0.75000	79.350
0.74900	79.844
0.74800	79.457
0.74700	79.360
0.74600	79.113
0.74500	79.360
0.74400	79.376
0.74300	78.719
0.74200	79.107
0.74100	80.034
0.74000	80.037
0.73900	79.174
0.73800	79.369
0.73700	79.360
0.73600	79.322
0.73500	78.875
0.73400	79.369
0.73300	79.483
0.73200	79.729
0.73100	79.276
0.73000	79.151
0.72900	80.087
0.72800	80.219
0.72700	79.267
0.72600	79.396
0.72500	79.493
0.72400	79.191
0.72300	79.288
0.72200	78.866
0.72100	79.072
0.72000	79.454
0.71900	80.203
0.71800	79.985
0.71700	80.202
0.71600	79.894
0.71500	79.827
0.71400	79.437
0.71300	79.786
0.71200	79.760
0.71100	79.817
0.71000	80.124
0.70900	79.502
0.70800	79.655
0.70700	79.101
0.70600	79.252
0.70500	79.328
0.70400	79.458
0.70300	79.522
0.70200	79.326
0.70100	79.036
0.70000	79.513
0.69900	80.306
0.69800	80.049
0.69700	80.272
0.69600	79.658
0.69500	79.814
0.69400	79.814
0.69300	79.936
0.69200	79.802
0.69100	80.415
0.69000	80.536
0.68900	80.372
0.68800	80.114
0.68700	79.514
0.68600	79.714
0.68500	80.071
0.68400	79.914
0.68300	79.914
0.68200	79.736
0.68100	79.936
0.68000	80.573
0.67900	80.451
0.67800	80.172
0.67700	80.214
0.67600	79.814
0.67500	80.351
0.67400	80.150
0.67300	80.150
0.67200	79.936
0.67100	80.509
0.67000	80.531
0.66900	80.811
0.66800	80.731
0.66700	80.027
0.66600	80.250
0.66500	79.670
0.66400	79.436
0.66300	79.758
0.66200	80.567
0.66100	80.567
0.66000	80.610
0.65900	80.909
0.65800	81.010
0.65700	80.243
0.65600	79.749
0.65500	79.425
0.65400	79.269
0.65300	79.514
0.65200	79.614
0.65100	80.057
0.65000	79.901
0.64900	79.569
0.64800	79.568
0.64700	80.228
0.64600	80.909
0.64500	80.807
0.64400	80.707
0.64300	80.244
0.64200	79.950
0.64100	79.169
0.64000	79.920
0.63900	80.368
0.63800	80.330
0.63700	79.636
0.63600	79.103
0.63500	79.336
0.63400	79.614
0.63300	79.736
0.63200	79.758
0.63100	79.849
0.63000	79.614
0.62900	79.058
0.62800	78.482
0.62700	78.582
0.62600	78.958
0.62500	79.648
0.62400	79.771
0.62300	79.936
0.62200	79.879
0.62100	79.900
0.62000	79.928
0.61900	80.281
0.61800	80.783
0.61700	80.644
0.61600	80.707
0.61500	80.547
0.61400	80.430
0.61300	80.515
0.61200	81.153
0.61100	81.111
0.61000	80.627
0.60900	80.144
0.60800	79.963
0.60700	79.559
0.60600	79.615
0.60500	79.537
0.60400	79.436
0.60300	79.392
0.60200	79.325
0.60100	79.210
0.60000	79.175
0.59900	79.002
0.59800	79.665
0.59700	80.067
0.59600	80.000
0.59500	79.793
0.59400	79.722
0.59300	79.852
0.59200	79.486
0.59100	79.716
0.59000	79.299
0.58900	79.474
0.58800	79.486
0.58700	79.325
0.58600	79.900
0.58500	80.616
0.58400	79.562
0.58300	79.417
0.58200	78.900
0.58100	78.820
0.58000	78.547
0.57900	79.222
0.57800	79.348
0.57700	79.337
0.57600	79.440
0.57500	79.623
0.57400	79.975
0.57300	80.003
0.57200	79.898
0.57100	79.709
0.57000	79.089
0.56900	78.909
0.56800	78.809
0.56700	78.918
0.56600	78.998
0.56500	78.412
0.56400	78.054
0.56300	78.365
0.56200	78.084
0.56100	77.881
0.56000	78.197
0.55900	78.404
0.55800	78.404
0.55700	78.748
0.55600	78.503
0.55500	78.257
0.55400	78.404
0.55300	78.403
0.55200	78.230
0.55100	78.352
0.55000	78.377
0.54900	78.924
0.54800	78.177
0.54700	78.103
0.54600	78.274
0.54500	78.423
0.54400	78.225
0.54300	78.774
0.54200	78.849
0.54100	78.648
0.54000	78.347
0.53900	78.773
0.53800	78.749
0.53700	78.622
0.53600	78.420
0.53500	78.446
0.53400	78.697
0.53300	77.948
0.53200	77.234
0.53100	77.161
0.53000	77.108
0.52900	77.475
0.52800	77.516
0.52700	77.643
0.52600	77.843
0.52500	77.844
0.52400	77.992
0.52300	77.870
0.52200	77.845
0.52100	77.670
0.52000	78.216
0.51900	78.040
0.51800	77.717
0.51700	77.590
0.51600	77.315
0.51500	77.638
0.51400	77.315
0.51300	77.388
0.51200	76.448
0.51100	76.576
0.51000	76.867
0.50900	76.521
0.50800	76.785
0.50700	77.024
0.50600	76.848
0.50500	76.930
0.50400	77.178
0.50300	77.346
0.50200	76.950
0.50100	77.146
0.50000	77.320
0.49900	76.483
0.49800	76.830
0.49700	76.701
0.49600	76.208
0.49500	76.426
0.49400	76.281
0.49300	76.297
0.49200	76.460
0.49100	76.319
0.49000	76.866
0.48900	76.864
0.48800	76.530
0.48700	75.994
0.48600	75.834
0.48500	75.846
0.48400	75.950
0.48300	76.270
0.48200	76.008
0.48100	75.603
0.48000	76.253
0.47900	75.990
0.47800	76.313
0.47700	75.817
0.47600	75.801
0.47500	75.453
0.47400	75.990
0.47300	75.740
0.47200	75.392
0.47100	75.176
0.47000	74.770
0.46900	74.375
0.46800	74.901
0.46700	74.515
0.46600	74.586
0.46500	74.344
0.46400	75.260
0.46300	75.229
0.46200	74.645
0.46100	74.804
0.46000	74.779
0.45900	76.809
0.45800	76.944
0.45700	76.960
0.45600	77.005
0.45500	76.680
0.45400	76.296
0.45300	75.804
0.45200	75.680
0.45100	75.801
0.45000	76.369
0.44900	76.383
0.44800	76.161
0.44700	76.131
0.44600	76.360
0.44500	75.838
0.44400	75.739
0.44300	75.417
0.44200	75.598
0.44100	75.642
0.44000	75.219
0.43900	75.259
0.43800	75.549
0.43700	75.472
0.43600	75.581
0.43500	75.622
0.43400	75.303
0.43300	75.017
0.43200	75.194
0.43100	75.306
0.43000	75.347
0.42900	75.349
0.42800	74.711
0.42700	74.210
0.42600	74.567
0.42500	74.310
0.42400	74.452
0.42300	74.822
0.42200	74.215
0.42100	74.035
0.42000	74.652
0.41900	74.284
0.41800	73.998
0.41700	73.493
0.41600	73.487
0.41500	73.633
0.41400	73.809
0.41300	73.207
0.41200	73.334
0.41100	72.986
0.41000	72.665
0.40900	73.300
0.40800	73.510
0.40700	73.262
0.40600	73.502
0.40500	73.468
0.40400	73.254
0.40300	73.148
0.40200	73.324
0.40100	73.528
0.40000	73.535
