Name: Serpentine Marble 
Type:  Rocks
Class:  Metamorphic 
Subclass:  Marble 
Particle Size:  0-75 Micrometer
Sample No.:  marble5.doc
Owner:  JHU
Wavelength Range:  All
Origin:  Sample No. 361, The Hunt and Salisbury Collection at the U.S. 
Geological Survey, Denver, Co.
Description: A  medium grained sample of anhedral calcite heavily altered to 
serpentine.




Measurement:  Directional (10 Degree) Hemispherical Reflectance
First Column:  X
Second Column:  Y  
X Units:  Wavelength (micrometers)
Y Units:  Reflectance (percent)
First X Value: 14.9831
Last X Value:  0.4
Number of X Values: 2868
Additional Information:  None

14.983	1.9592
14.940	2.2616
14.897	2.5389
14.854	2.7878
14.812	3.0102
14.770	3.2131
14.728	3.4042
14.686	3.5901
14.645	3.7760
14.603	3.9681
14.562	4.1739
14.521	4.3989
14.481	4.6423
14.441	4.8940
14.400	5.1311
14.361	5.3165
14.321	5.4025
14.281	5.3409
14.242	5.0967
14.203	4.6622
14.164	4.0685
14.126	3.3881
14.087	2.7246
14.049	2.1891
14.011	1.8706
13.973	1.8107
13.936	1.9911
13.899	2.3440
13.861	2.7764
13.824	3.2046
13.788	3.5821
13.751	3.9077
13.715	4.2170
13.679	4.5575
13.643	4.9641
13.607	5.4442
13.571	5.9753
13.536	6.5186
13.500	7.0341
13.465	7.4959
13.430	7.8957
13.396	8.2398
13.361	8.5431
13.327	8.8200
13.293	9.0802
13.259	9.3279
13.225	9.5629
13.191	9.7826
13.158	9.9846
13.124	10.166
13.091	10.325
13.058	10.460
13.026	10.573
12.993	10.666
12.960	10.745
12.928	10.821
12.896	10.903
12.864	11.001
12.832	11.124
12.800	11.276
12.769	11.456
12.737	11.660
12.706	11.877
12.675	12.098
12.644	12.311
12.614	12.510
12.583	12.691
12.552	12.856
12.522	13.011
12.492	13.161
12.462	13.312
12.432	13.468
12.402	13.630
12.373	13.794
12.343	13.960
12.314	14.123
12.285	14.283
12.256	14.438
12.227	14.587
12.198	14.727
12.169	14.857
12.141	14.974
12.113	15.082
12.084	15.187
12.056	15.291
12.028	15.388
12.000	15.449
11.973	15.426
11.945	15.260
11.918	14.907
11.890	14.362
11.863	13.680
11.836	12.971
11.809	12.369
11.782	11.990
11.755	11.881
11.729	12.002
11.702	12.233
11.676	12.403
11.650	12.350
11.624	11.961
11.598	11.197
11.572	10.104
11.546	8.7906
11.520	7.3991
11.495	6.0743
11.469	4.9374
11.444	4.0737
11.419	3.5300
11.394	3.3213
11.369	3.4397
11.344	3.8627
11.319	4.5504
11.294	5.4430
11.270	6.4573
11.245	7.4931
11.221	8.4467
11.197	9.2297
11.173	9.7871
11.149	10.107
11.125	10.213
11.101	10.157
11.077	9.9939
11.054	9.7722
11.030	9.5243
11.007	9.2657
10.983	8.9992
10.960	8.7217
10.937	8.4269
10.914	8.1093
10.891	7.7647
10.868	7.3920
10.846	6.9920
10.823	6.5697
10.800	6.1338
10.778	5.6959
10.755	5.2694
10.733	4.8668
10.711	4.4983
10.689	4.1706
10.667	3.8857
10.645	3.6425
10.623	3.4362
10.602	3.2624
10.580	3.1148
10.558	2.9891
10.537	2.8813
10.516	2.7887
10.494	2.7096
10.473	2.6431
10.452	2.5879
10.431	2.5436
10.410	2.5091
10.389	2.4821
10.368	2.4612
10.348	2.4446
10.327	2.4312
10.306	2.4205
10.286	2.4127
10.266	2.4087
10.245	2.4089
10.225	2.4143
10.205	2.4250
10.185	2.4402
10.165	2.4591
10.145	2.4809
10.125	2.5046
10.106	2.5299
10.086	2.5564
10.066	2.5839
10.047	2.6128
10.027	2.6426
10.008	2.6734
9.9887	2.7047
9.9695	2.7366
9.9504	2.7693
9.9313	2.8032
9.9123	2.8385
9.8934	2.8752
9.8746	2.9140
9.8558	2.9545
9.8371	2.9967
9.8185	3.0400
9.7999	3.0852
9.7814	3.1324
9.7630	3.1823
9.7447	3.2359
9.7264	3.2941
9.7082	3.3571
9.6900	3.4244
9.6719	3.4949
9.6539	3.5669
9.6360	3.6394
9.6181	3.7111
9.6003	3.7817
9.5825	3.8506
9.5649	3.9169
9.5472	3.9790
9.5297	4.0332
9.5122	4.0758
9.4948	4.1033
9.4774	4.1125
9.4601	4.1028
9.4429	4.0749
9.4257	4.0318
9.4086	3.9778
9.3916	3.9179
9.3746	3.8561
9.3577	3.7959
9.3408	3.7384
9.3240	3.6839
9.3073	3.6323
9.2906	3.5844
9.2740	3.5432
9.2574	3.5153
9.2409	3.5094
9.2245	3.5347
9.2081	3.5996
9.1918	3.7102
9.1755	3.8698
9.1593	4.0808
9.1431	4.3470
9.1270	4.6752
9.1110	5.0740
9.0950	5.5507
9.0791	6.1080
9.0632	6.7391
9.0474	7.4270
9.0316	8.1458
9.0159	8.8652
9.0003	9.5558
8.9847	10.195
8.9691	10.770
8.9536	11.277
8.9382	11.722
8.9228	12.118
8.9075	12.477
8.8922	12.814
8.8770	13.140
8.8618	13.462
8.8467	13.779
8.8316	14.086
8.8166	14.374
8.8016	14.632
8.7867	14.851
8.7718	15.025
8.7570	15.152
8.7422	15.233
8.7275	15.273
8.7129	15.269
8.6982	15.222
8.6837	15.127
8.6692	14.984
8.6547	14.795
8.6403	14.575
8.6259	14.342
8.6116	14.119
8.5973	13.927
8.5830	13.778
8.5688	13.671
8.5547	13.598
8.5406	13.544
8.5266	13.495
8.5126	13.441
8.4986	13.385
8.4847	13.335
8.4708	13.301
8.4570	13.293
8.4432	13.318
8.4295	13.376
8.4158	13.462
8.4022	13.574
8.3886	13.704
8.3750	13.849
8.3615	14.005
8.3481	14.171
8.3347	14.346
8.3213	14.531
8.3079	14.727
8.2946	14.937
8.2814	15.160
8.2682	15.393
8.2550	15.629
8.2419	15.857
8.2288	16.064
8.2158	16.239
8.2028	16.375
8.1898	16.472
8.1769	16.535
8.1640	16.574
8.1512	16.598
8.1384	16.615
8.1256	16.628
8.1129	16.641
8.1002	16.655
8.0876	16.676
8.0750	16.711
8.0624	16.767
8.0499	16.850
8.0374	16.959
8.0250	17.085
8.0126	17.214
8.0002	17.328
7.9879	17.409
7.9756	17.445
7.9634	17.435
7.9512	17.385
7.9390	17.308
7.9268	17.223
7.9147	17.148
7.9027	17.094
7.8906	17.065
7.8786	17.055
7.8667	17.052
7.8548	17.039
7.8429	17.004
7.8310	16.941
7.8192	16.853
7.8075	16.746
7.7957	16.633
7.7840	16.522
7.7723	16.416
7.7607	16.311
7.7491	16.199
7.7375	16.067
7.7260	15.908
7.7145	15.715
7.7031	15.488
7.6916	15.231
7.6802	14.953
7.6689	14.663
7.6575	14.369
7.6462	14.082
7.6350	13.807
7.6238	13.552
7.6126	13.320
7.6014	13.113
7.5903	12.930
7.5792	12.767
7.5681	12.621
7.5571	12.484
7.5461	12.350
7.5351	12.212
7.5242	12.066
7.5133	11.908
7.5024	11.739
7.4916	11.559
7.4807	11.370
7.4700	11.175
7.4592	10.977
7.4485	10.776
7.4378	10.573
7.4272	10.366
7.4165	10.151
7.4059	9.9247
7.3954	9.6815
7.3848	9.4172
7.3743	9.1288
7.3639	8.8155
7.3534	8.4792
7.3430	8.1244
7.3326	7.7586
7.3223	7.3908
7.3119	7.0301
7.3016	6.6855
7.2914	6.3632
7.2811	6.0665
7.2709	5.7954
7.2607	5.5465
7.2506	5.3165
7.2404	5.1017
7.2303	4.9004
7.2203	4.7124
7.2102	4.5402
7.2002	4.3868
7.1902	4.2556
7.1803	4.1497
7.1703	4.0725
7.1604	4.0261
7.1506	4.0117
7.1407	4.0273
7.1309	4.0687
7.1211	4.1272
7.1113	4.1924
7.1016	4.2523
7.0919	4.2975
7.0822	4.3224
7.0725	4.3259
7.0629	4.3119
7.0533	4.2849
7.0437	4.2501
7.0341	4.2101
7.0246	4.1658
7.0151	4.1166
7.0056	4.0619
6.9962	4.0024
6.9867	3.9406
6.9773	3.8790
6.9679	3.8217
6.9586	3.7718
6.9493	3.7310
6.9400	3.7007
6.9307	3.6801
6.9214	3.6680
6.9122	3.6624
6.9030	3.6605
6.8938	3.6605
6.8847	3.6612
6.8755	3.6628
6.8664	3.6664
6.8573	3.6728
6.8483	3.6827
6.8393	3.6950
6.8302	3.7090
6.8213	3.7232
6.8123	3.7377
6.8034	3.7538
6.7944	3.7732
6.7855	3.7973
6.7767	3.8274
6.7678	3.8629
6.7590	3.9023
6.7502	3.9435
6.7414	3.9851
6.7327	4.0263
6.7239	4.0675
6.7152	4.1097
6.7065	4.1540
6.6979	4.2018
6.6892	4.2534
6.6806	4.3086
6.6720	4.3676
6.6634	4.4311
6.6549	4.5004
6.6464	4.5779
6.6378	4.6653
6.6294	4.7633
6.6209	4.8701
6.6124	4.9831
6.6040	5.0989
6.5956	5.2161
6.5872	5.3352
6.5789	5.4588
6.5705	5.5896
6.5622	5.7298
6.5539	5.8787
6.5456	6.0331
6.5374	6.1894
6.5292	6.3441
6.5209	6.4975
6.5128	6.6545
6.5046	6.8227
6.4964	7.0105
6.4883	7.2229
6.4802	7.4573
6.4721	7.7020
6.4640	7.9385
6.4560	8.1453
6.4480	8.3044
6.4399	8.4072
6.4320	8.4569
6.4240	8.4676
6.4160	8.4574
6.4081	8.4437
6.4002	8.4356
6.3923	8.4332
6.3844	8.4264
6.3766	8.4010
6.3687	8.3425
6.3609	8.2417
6.3531	8.0965
6.3454	7.9127
6.3376	7.7024
6.3299	7.4820
6.3221	7.2681
6.3144	7.0768
6.3068	6.9202
6.2991	6.8051
6.2914	6.7315
6.2838	6.6936
6.2762	6.6813
6.2686	6.6825
6.2611	6.6872
6.2535	6.6886
6.2460	6.6837
6.2385	6.6735
6.2310	6.6607
6.2235	6.6479
6.2160	6.6365
6.2086	6.6275
6.2011	6.6211
6.1937	6.6176
6.1863	6.6176
6.1790	6.6226
6.1716	6.6330
6.1643	6.6486
6.1570	6.6687
6.1496	6.6922
6.1424	6.7196
6.1351	6.7523
6.1278	6.7938
6.1206	6.8478
6.1134	6.9179
6.1062	7.0043
6.0990	7.1059
6.0918	7.2186
6.0847	7.3401
6.0776	7.4696
6.0704	7.6098
6.0633	7.7659
6.0563	7.9435
6.0492	8.1450
6.0421	8.3669
6.0351	8.6014
6.0281	8.8365
6.0211	9.0613
6.0141	9.2685
6.0071	9.4568
6.0002	9.6296
5.9932	9.7935
5.9863	9.9541
5.9794	10.115
5.9725	10.278
5.9657	10.443
5.9588	10.611
5.9520	10.786
5.9451	10.971
5.9383	11.167
5.9315	11.371
5.9247	11.576
5.9180	11.773
5.9112	11.955
5.9045	12.120
5.8978	12.276
5.8911	12.432
5.8844	12.599
5.8777	12.778
5.8711	12.966
5.8644	13.148
5.8578	13.309
5.8512	13.437
5.8446	13.530
5.8380	13.593
5.8314	13.640
5.8249	13.684
5.8184	13.734
5.8118	13.791
5.8053	13.848
5.7988	13.892
5.7923	13.915
5.7859	13.918
5.7794	13.907
5.7730	13.899
5.7666	13.909
5.7602	13.953
5.7538	14.035
5.7474	14.154
5.7410	14.304
5.7347	14.473
5.7283	14.654
5.7220	14.841
5.7157	15.033
5.7094	15.229
5.7031	15.432
5.6969	15.644
5.6906	15.867
5.6844	16.102
5.6782	16.345
5.6719	16.595
5.6657	16.843
5.6596	17.080
5.6534	17.289
5.6472	17.447
5.6411	17.515
5.6349	17.446
5.6288	17.180
5.6227	16.660
5.6166	15.842
5.6106	14.713
5.6045	13.306
5.5984	11.702
5.5924	10.027
5.5864	8.4351
5.5804	7.0853
5.5744	6.1181
5.5684	5.6372
5.5624	5.6921
5.5564	6.2721
5.5505	7.3065
5.5445	8.6741
5.5386	10.222
5.5327	11.791
5.5268	13.246
5.5209	14.496
5.5151	15.509
5.5092	16.309
5.5033	16.959
5.4975	17.545
5.4917	18.149
5.4859	18.835
5.4801	19.638
5.4743	20.564
5.4685	21.589
5.4628	22.672
5.4570	23.763
5.4513	24.810
5.4455	25.778
5.4398	26.644
5.4341	27.405
5.4284	28.071
5.4228	28.660
5.4171	29.189
5.4114	29.673
5.4058	30.121
5.4002	30.539
5.3945	30.929
5.3889	31.298
5.3833	31.651
5.3778	31.996
5.3722	32.341
5.3666	32.692
5.3611	33.053
5.3555	33.430
5.3500	33.821
5.3445	34.226
5.3390	34.639
5.3335	35.053
5.3280	35.461
5.3225	35.859
5.3171	36.244
5.3116	36.617
5.3062	36.981
5.3008	37.340
5.2954	37.697
5.2900	38.054
5.2846	38.413
5.2792	38.775
5.2738	39.137
5.2684	39.499
5.2631	39.859
5.2578	40.213
5.2524	40.559
5.2471	40.893
5.2418	41.212
5.2365	41.513
5.2312	41.795
5.2260	42.057
5.2207	42.300
5.2154	42.526
5.2102	42.734
5.2050	42.925
5.1998	43.096
5.1945	43.243
5.1893	43.363
5.1842	43.454
5.1790	43.515
5.1738	43.549
5.1686	43.561
5.1635	43.560
5.1584	43.554
5.1532	43.552
5.1481	43.557
5.1430	43.564
5.1379	43.557
5.1328	43.514
5.1277	43.412
5.1227	43.240
5.1176	43.007
5.1126	42.746
5.1075	42.508
5.1025	42.344
5.0975	42.288
5.0925	42.346
5.0875	42.490
5.0825	42.676
5.0775	42.855
5.0726	42.992
5.0676	43.074
5.0627	43.111
5.0577	43.121
5.0528	43.121
5.0479	43.125
5.0430	43.134
5.0380	43.147
5.0332	43.161
5.0283	43.179
5.0234	43.205
5.0185	43.248
5.0137	43.315
5.0088	43.411
5.0040	43.538
4.9992	43.697
4.9944	43.885
4.9896	44.099
4.9848	44.331
4.9800	44.571
4.9752	44.807
4.9704	45.026
4.9657	45.216
4.9609	45.368
4.9562	45.478
4.9514	45.546
4.9467	45.578
4.9420	45.586
4.9373	45.583
4.9326	45.585
4.9279	45.605
4.9232	45.657
4.9186	45.747
4.9139	45.878
4.9092	46.046
4.9046	46.247
4.9000	46.471
4.8953	46.709
4.8907	46.951
4.8861	47.188
4.8815	47.413
4.8769	47.620
4.8723	47.806
4.8678	47.965
4.8632	48.096
4.8586	48.195
4.8541	48.262
4.8495	48.293
4.8450	48.290
4.8405	48.255
4.8360	48.193
4.8315	48.111
4.8270	48.018
4.8225	47.925
4.8180	47.843
4.8135	47.783
4.8090	47.753
4.8046	47.759
4.8001	47.802
4.7957	47.879
4.7913	47.987
4.7868	48.119
4.7824	48.267
4.7780	48.425
4.7736	48.589
4.7692	48.754
4.7648	48.916
4.7605	49.071
4.7561	49.215
4.7517	49.339
4.7474	49.437
4.7431	49.498
4.7387	49.508
4.7344	49.456
4.7301	49.327
4.7258	49.111
4.7215	48.803
4.7172	48.404
4.7129	47.928
4.7086	47.394
4.7043	46.828
4.7000	46.261
4.6958	45.719
4.6915	45.223
4.6873	44.788
4.6831	44.425
4.6788	44.138
4.6746	43.931
4.6704	43.813
4.6662	43.790
4.6620	43.872
4.6578	44.064
4.6536	44.363
4.6495	44.757
4.6453	45.224
4.6411	45.733
4.6370	46.253
4.6328	46.756
4.6287	47.219
4.6246	47.636
4.6205	48.004
4.6163	48.331
4.6122	48.626
4.6081	48.898
4.6040	49.154
4.6000	49.397
4.5959	49.627
4.5918	49.843
4.5877	50.044
4.5837	50.229
4.5796	50.398
4.5756	50.553
4.5716	50.695
4.5675	50.827
4.5635	50.951
4.5595	51.070
4.5555	51.183
4.5515	51.292
4.5475	51.396
4.5435	51.495
4.5395	51.591
4.5356	51.685
4.5316	51.779
4.5276	51.876
4.5237	51.977
4.5197	52.085
4.5158	52.202
4.5119	52.328
4.5080	52.465
4.5040	52.611
4.5001	52.764
4.4962	52.922
4.4923	53.081
4.4884	53.238
4.4846	53.390
4.4807	53.534
4.4768	53.667
4.4730	53.788
4.4691	53.895
4.4652	53.987
4.4614	54.069
4.4576	54.144
4.4537	54.217
4.4499	54.294
4.4461	54.378
4.4423	54.473
4.4385	54.579
4.4347	54.693
4.4309	54.814
4.4271	54.937
4.4233	55.060
4.4196	55.180
4.4158	55.295
4.4120	55.403
4.4083	55.502
4.4045	55.593
4.4008	55.676
4.3971	55.753
4.3934	55.824
4.3896	55.891
4.3859	55.953
4.3822	56.009
4.3785	56.054
4.3748	56.086
4.3711	56.100
4.3674	56.095
4.3638	56.067
4.3601	56.020
4.3564	55.955
4.3528	55.880
4.3491	55.800
4.3455	55.723
4.3418	55.653
4.3382	55.593
4.3346	55.545
4.3310	55.506
4.3273	55.475
4.3237	55.450
4.3201	55.432
4.3165	55.422
4.3129	55.422
4.3094	55.433
4.3058	55.453
4.3022	55.479
4.2986	55.507
4.2951	55.533
4.2915	55.553
4.2880	55.571
4.2844	55.589
4.2809	55.612
4.2774	55.645
4.2738	55.689
4.2703	55.741
4.2668	55.794
4.2633	55.839
4.2598	55.868
4.2563	55.876
4.2528	55.861
4.2493	55.826
4.2458	55.780
4.2424	55.731
4.2389	55.686
4.2354	55.652
4.2320	55.632
4.2285	55.627
4.2251	55.636
4.2216	55.656
4.2182	55.683
4.2148	55.715
4.2113	55.747
4.2079	55.773
4.2045	55.791
4.2011	55.796
4.1977	55.786
4.1943	55.759
4.1909	55.717
4.1875	55.661
4.1841	55.594
4.1808	55.517
4.1774	55.433
4.1740	55.343
4.1707	55.245
4.1673	55.141
4.1640	55.030
4.1606	54.912
4.1573	54.788
4.1540	54.658
4.1506	54.523
4.1473	54.382
4.1440	54.233
4.1407	54.074
4.1374	53.903
4.1341	53.718
4.1308	53.519
4.1275	53.306
4.1242	53.080
4.1209	52.844
4.1177	52.599
4.1144	52.345
4.1111	52.084
4.1079	51.813
4.1046	51.531
4.1014	51.236
4.0981	50.925
4.0949	50.592
4.0917	50.232
4.0884	49.843
4.0852	49.418
4.0820	48.957
4.0788	48.459
4.0756	47.928
4.0724	47.366
4.0692	46.773
4.0660	46.146
4.0628	45.471
4.0596	44.729
4.0565	43.895
4.0533	42.939
4.0501	41.842
4.0470	40.592
4.0438	39.195
4.0406	37.672
4.0375	36.056
4.0344	34.387
4.0312	32.703
4.0281	31.036
4.0250	29.407
4.0218	27.824
4.0187	26.287
4.0156	24.788
4.0125	23.319
4.0094	21.873
4.0063	20.453
4.0032	19.069
4.0001	17.742
3.9970	16.498
3.9940	15.368
3.9909	14.379
3.9878	13.552
3.9847	12.896
3.9817	12.408
3.9786	12.079
3.9756	11.892
3.9725	11.834
3.9695	11.892
3.9665	12.065
3.9634	12.357
3.9604	12.775
3.9574	13.327
3.9544	14.014
3.9513	14.823
3.9483	15.726
3.9453	16.680
3.9423	17.628
3.9393	18.517
3.9363	19.304
3.9333	19.963
3.9304	20.497
3.9274	20.927
3.9244	21.288
3.9214	21.616
3.9185	21.942
3.9155	22.282
3.9126	22.640
3.9096	23.007
3.9067	23.371
3.9037	23.715
3.9008	24.027
3.8979	24.299
3.8949	24.527
3.8920	24.715
3.8891	24.871
3.8862	25.003
3.8833	25.122
3.8804	25.237
3.8775	25.356
3.8746	25.485
3.8717	25.630
3.8688	25.798
3.8659	25.995
3.8630	26.226
3.8601	26.490
3.8573	26.785
3.8544	27.108
3.8515	27.451
3.8487	27.811
3.8458	28.193
3.8430	28.601
3.8401	29.046
3.8373	29.533
3.8344	30.062
3.8316	30.625
3.8288	31.205
3.8259	31.780
3.8231	32.335
3.8203	32.861
3.8175	33.370
3.8147	33.886
3.8119	34.444
3.8091	35.083
3.8063	35.836
3.8035	36.716
3.8007	37.718
3.7979	38.816
3.7951	39.966
3.7924	41.122
3.7896	42.236
3.7868	43.273
3.7841	44.212
3.7813	45.049
3.7785	45.790
3.7758	46.449
3.7730	47.045
3.7703	47.594
3.7676	48.108
3.7648	48.596
3.7621	49.063
3.7594	49.509
3.7566	49.935
3.7539	50.339
3.7512	50.718
3.7485	51.070
3.7458	51.389
3.7431	51.671
3.7404	51.913
3.7377	52.113
3.7350	52.269
3.7323	52.383
3.7296	52.460
3.7269	52.505
3.7242	52.525
3.7216	52.530
3.7189	52.527
3.7162	52.522
3.7136	52.519
3.7109	52.517
3.7083	52.516
3.7056	52.512
3.7030	52.504
3.7003	52.493
3.6977	52.482
3.6950	52.477
3.6924	52.480
3.6898	52.494
3.6872	52.515
3.6845	52.537
3.6819	52.554
3.6793	52.560
3.6767	52.552
3.6741	52.530
3.6715	52.496
3.6689	52.454
3.6663	52.405
3.6637	52.351
3.6611	52.293
3.6585	52.230
3.6560	52.162
3.6534	52.089
3.6508	52.010
3.6482	51.927
3.6457	51.840
3.6431	51.750
3.6406	51.658
3.6380	51.563
3.6355	51.465
3.6329	51.363
3.6304	51.255
3.6278	51.140
3.6253	51.016
3.6227	50.883
3.6202	50.741
3.6177	50.589
3.6152	50.428
3.6127	50.261
3.6101	50.090
3.6076	49.917
3.6051	49.743
3.6026	49.570
3.6001	49.393
3.5976	49.209
3.5951	49.009
3.5926	48.785
3.5901	48.528
3.5876	48.236
3.5852	47.906
3.5827	47.547
3.5802	47.174
3.5777	46.806
3.5753	46.463
3.5728	46.159
3.5704	45.899
3.5679	45.674
3.5654	45.465
3.5630	45.249
3.5605	45.002
3.5581	44.708
3.5557	44.357
3.5532	43.952
3.5508	43.499
3.5484	43.001
3.5459	42.460
3.5435	41.870
3.5411	41.217
3.5387	40.485
3.5363	39.655
3.5338	38.714
3.5314	37.658
3.5290	36.494
3.5266	35.245
3.5242	33.944
3.5218	32.632
3.5195	31.356
3.5171	30.154
3.5147	29.055
3.5123	28.068
3.5099	27.192
3.5075	26.409
3.5052	25.695
3.5028	25.026
3.5004	24.382
3.4981	23.750
3.4957	23.125
3.4934	22.510
3.4910	21.909
3.4887	21.335
3.4863	20.805
3.4840	20.344
3.4816	19.983
3.4793	19.762
3.4770	19.717
3.4746	19.872
3.4723	20.231
3.4700	20.771
3.4677	21.441
3.4653	22.174
3.4630	22.896
3.4607	23.545
3.4584	24.081
3.4561	24.493
3.4538	24.793
3.4515	25.010
3.4492	25.177
3.4469	25.327
3.4446	25.480
3.4423	25.648
3.4400	25.831
3.4378	26.022
3.4355	26.212
3.4332	26.390
3.4309	26.549
3.4287	26.681
3.4264	26.783
3.4241	26.854
3.4219	26.896
3.4196	26.912
3.4174	26.905
3.4151	26.881
3.4129	26.842
3.4106	26.794
3.4084	26.740
3.4061	26.681
3.4039	26.619
3.4017	26.555
3.3994	26.489
3.3972	26.420
3.3950	26.349
3.3928	26.276
3.3906	26.202
3.3883	26.129
3.3861	26.059
3.3839	25.992
3.3817	25.930
3.3795	25.869
3.3773	25.807
3.3751	25.735
3.3729	25.642
3.3707	25.515
3.3685	25.340
3.3663	25.105
3.3641	24.800
3.3620	24.430
3.3598	24.011
3.3576	23.579
3.3554	23.188
3.3533	22.909
3.3511	22.817
3.3489	22.982
3.3468	23.445
3.3446	24.212
3.3425	25.243
3.3403	26.459
3.3382	27.755
3.3360	29.022
3.3339	30.167
3.3317	31.128
3.3296	31.879
3.3274	32.427
3.3253	32.796
3.3232	33.025
3.3210	33.151
3.3189	33.207
3.3168	33.223
3.3147	33.226
3.3126	33.244
3.3104	33.305
3.3083	33.433
3.3062	33.647
3.3041	33.954
3.3020	34.349
3.2999	34.810
3.2978	35.307
3.2957	35.801
3.2936	36.258
3.2915	36.650
3.2894	36.963
3.2874	37.197
3.2853	37.360
3.2832	37.469
3.2811	37.538
3.2790	37.581
3.2770	37.607
3.2749	37.620
3.2728	37.624
3.2708	37.621
3.2687	37.613
3.2666	37.602
3.2646	37.588
3.2625	37.571
3.2605	37.552
3.2584	37.527
3.2564	37.497
3.2543	37.459
3.2523	37.413
3.2503	37.361
3.2482	37.306
3.2462	37.250
3.2442	37.195
3.2421	37.143
3.2401	37.096
3.2381	37.053
3.2361	37.016
3.2340	36.983
3.2320	36.956
3.2300	36.934
3.2280	36.917
3.2260	36.904
3.2240	36.895
3.2220	36.886
3.2200	36.876
3.2180	36.862
3.2160	36.844
3.2140	36.820
3.2120	36.791
3.2100	36.754
3.2080	36.709
3.2060	36.655
3.2040	36.592
3.2021	36.520
3.2001	36.441
3.1981	36.358
3.1961	36.274
3.1942	36.190
3.1922	36.109
3.1902	36.028
3.1883	35.948
3.1863	35.865
3.1844	35.778
3.1824	35.686
3.1805	35.588
3.1785	35.486
3.1766	35.379
3.1746	35.269
3.1727	35.159
3.1707	35.048
3.1688	34.938
3.1669	34.826
3.1649	34.711
3.1630	34.592
3.1611	34.470
3.1591	34.344
3.1572	34.218
3.1553	34.094
3.1534	33.974
3.1515	33.861
3.1495	33.753
3.1476	33.650
3.1457	33.551
3.1438	33.454
3.1419	33.361
3.1400	33.270
3.1381	33.182
3.1362	33.097
3.1343	33.017
3.1324	32.940
3.1305	32.866
3.1286	32.793
3.1268	32.722
3.1249	32.649
3.1230	32.573
3.1211	32.493
3.1192	32.407
3.1174	32.317
3.1155	32.223
3.1136	32.129
3.1117	32.038
3.1099	31.955
3.1080	31.882
3.1061	31.820
3.1043	31.768
3.1024	31.725
3.1006	31.689
3.0987	31.657
3.0969	31.630
3.0950	31.606
3.0932	31.587
3.0913	31.573
3.0895	31.562
3.0876	31.554
3.0858	31.545
3.0840	31.535
3.0821	31.521
3.0803	31.502
3.0785	31.479
3.0766	31.452
3.0748	31.422
3.0730	31.389
3.0712	31.355
3.0694	31.318
3.0675	31.281
3.0657	31.242
3.0639	31.200
3.0621	31.156
3.0603	31.108
3.0585	31.058
3.0567	31.007
3.0549	30.954
3.0531	30.903
3.0513	30.852
3.0495	30.803
3.0477	30.755
3.0459	30.710
3.0441	30.665
3.0423	30.622
3.0406	30.578
3.0388	30.533
3.0370	30.488
3.0352	30.442
3.0334	30.396
3.0317	30.353
3.0299	30.310
3.0281	30.270
3.0264	30.229
3.0246	30.185
3.0228	30.138
3.0211	30.085
3.0193	30.027
3.0176	29.965
3.0158	29.901
3.0140	29.838
3.0123	29.778
3.0105	29.721
3.0088	29.668
3.0070	29.618
3.0053	29.569
3.0036	29.518
3.0018	29.465
3.0001	29.409
2.9984	29.351
2.9966	29.292
2.9949	29.232
2.9932	29.174
2.9914	29.117
2.9897	29.062
2.9880	29.009
2.9863	28.959
2.9845	28.911
2.9828	28.864
2.9811	28.816
2.9794	28.765
2.9777	28.710
2.9760	28.652
2.9743	28.591
2.9726	28.529
2.9709	28.468
2.9692	28.409
2.9675	28.353
2.9658	28.297
2.9641	28.241
2.9624	28.183
2.9607	28.124
2.9590	28.062
2.9573	27.998
2.9556	27.933
2.9539	27.865
2.9523	27.796
2.9506	27.726
2.9489	27.655
2.9472	27.584
2.9455	27.513
2.9439	27.445
2.9422	27.381
2.9405	27.320
2.9389	27.265
2.9372	27.213
2.9355	27.166
2.9339	27.120
2.9322	27.077
2.9306	27.034
2.9289	26.993
2.9272	26.954
2.9256	26.917
2.9239	26.882
2.9223	26.852
2.9207	26.824
2.9190	26.801
2.9174	26.783
2.9157	26.771
2.9141	26.765
2.9124	26.767
2.9108	26.774
2.9092	26.784
2.9075	26.794
2.9059	26.801
2.9043	26.804
2.9027	26.803
2.9010	26.797
2.8994	26.790
2.8978	26.781
2.8962	26.771
2.8946	26.761
2.8929	26.750
2.8913	26.738
2.8897	26.725
2.8881	26.711
2.8865	26.696
2.8849	26.678
2.8833	26.657
2.8817	26.630
2.8801	26.595
2.8785	26.551
2.8769	26.498
2.8753	26.437
2.8737	26.368
2.8721	26.292
2.8705	26.210
2.8689	26.121
2.8673	26.024
2.8658	25.917
2.8642	25.802
2.8626	25.681
2.8610	25.557
2.8594	25.434
2.8579	25.316
2.8563	25.208
2.8547	25.112
2.8531	25.029
2.8516	24.956
2.8500	24.891
2.8484	24.830
2.8469	24.769
2.8453	24.705
2.8437	24.636
2.8422	24.561
2.8406	24.479
2.8391	24.391
2.8375	24.295
2.8360	24.190
2.8344	24.074
2.8329	23.945
2.8313	23.801
2.8298	23.640
2.8282	23.462
2.8267	23.267
2.8252	23.055
2.8236	22.829
2.8221	22.592
2.8205	22.347
2.8190	22.098
2.8175	21.848
2.8159	21.601
2.8144	21.357
2.8129	21.116
2.8114	20.879
2.8098	20.649
2.8083	20.433
2.8068	20.239
2.8053	20.080
2.8038	19.968
2.8022	19.911
2.8007	19.913
2.7992	19.970
2.7977	20.072
2.7962	20.201
2.7947	20.340
2.7932	20.472
2.7917	20.586
2.7902	20.672
2.7887	20.729
2.7872	20.753
2.7857	20.746
2.7842	20.706
2.7827	20.629
2.7812	20.511
2.7797	20.346
2.7782	20.130
2.7767	19.865
2.7752	19.553
2.7738	19.206
2.7723	18.840
2.7708	18.473
2.7693	18.126
2.7678	17.815
2.7664	17.554
2.7649	17.344
2.7634	17.178
2.7619	17.032
2.7605	16.872
2.7590	16.657
2.7575	16.345
2.7561	15.905
2.7546	15.320
2.7531	14.596
2.7517	13.756
2.7502	12.841
2.7488	11.898
2.7473	10.980
2.7458	10.136
2.7444	9.4092
2.7429	8.8287
2.7415	8.4112
2.7400	8.1552
2.7386	8.0418
2.7371	8.0380
2.7357	8.1015
2.7343	8.1881
2.7328	8.2587
2.7314	8.2836
2.7299	8.2445
2.7285	8.1327
2.7271	7.9456
2.7256	7.6830
2.7242	7.3463
2.7228	6.9392
2.7213	6.4700
2.7199	5.9550
2.7185	5.4210
2.7171	4.9028
2.7156	4.4408
2.7142	4.0718
2.7128	3.8213
2.7114	3.6969
2.7100	3.6870
2.7085	3.7689
2.7071	3.9245
2.7057	4.1599
2.7043	4.5189
2.7029	5.0849
2.7015	5.9656
2.7001	7.2610
2.6987	9.0303
2.6973	11.265
2.6959	13.886
2.6945	16.755
2.6931	19.715
2.6917	22.626
2.6903	25.388
2.6889	27.958
2.6875	30.338
2.6861	32.560
2.6847	34.668
2.6833	36.708
2.6819	38.717
2.6805	40.723
2.6791	42.742
2.6778	44.769
2.6764	46.776
2.6750	48.713
2.6736	50.523
2.6722	52.153
2.6709	53.574
2.6695	54.785
2.6681	55.811
2.6667	56.691
2.6654	57.457
2.6640	58.126
2.6626	58.699
2.6613	59.163
2.6599	59.508
2.6585	59.735
2.6572	59.867
2.6558	59.941
2.6545	60.006
2.6531	60.110
2.6517	60.290
2.6504	60.568
2.6490	60.949
2.6477	61.419
2.6463	61.956
2.6450	62.528
2.6436	63.103
2.6423	63.647
2.6409	64.128
2.6396	64.521
2.6382	64.809
2.6369	64.988
2.6356	65.068
2.6342	65.077
2.6329	65.054
2.6315	65.039
2.6302	65.062
2.6289	65.133
2.6275	65.240
2.6262	65.350
2.6249	65.426
2.6236	65.441
2.6222	65.391
2.6209	65.296
2.6196	65.189
2.6183	65.107
2.6169	65.071
2.6156	65.075
2.6143	65.092
2.6130	65.088
2.6117	65.035
2.6103	64.928
2.6090	64.787
2.6077	64.654
2.6064	64.567
2.6051	64.544
2.6038	64.570
2.6025	64.603
2.6012	64.589
2.5999	64.493
2.5986	64.312
2.5973	64.084
2.5960	63.866
2.5947	63.708
2.5934	63.629
2.5921	63.606
2.5908	63.591
2.5895	63.532
2.5882	63.397
2.5869	63.194
2.5856	62.955
2.5843	62.722
2.5830	62.526
2.5817	62.373
2.5805	62.249
2.5792	62.128
2.5779	61.987
2.5766	61.820
2.5753	61.634
2.5741	61.442
2.5728	61.254
2.5715	61.071
2.5702	60.882
2.5690	60.671
2.5677	60.423
2.5664	60.138
2.5651	59.833
2.5639	59.532
2.5626	59.265
2.5613	59.051
2.5601	58.897
2.5588	58.792
2.5575	58.719
2.5563	58.660
2.5550	58.603
2.5538	58.546
2.5525	58.489
2.5513	58.433
2.5500	58.374
2.5487	58.305
2.5475	58.216
2.5462	58.102
2.5450	57.963
2.5437	57.807
2.5425	57.648
2.5413	57.498
2.5400	57.369
2.5388	57.266
2.5375	57.192
2.5363	57.144
2.5350	57.118
2.5338	57.105
2.5326	57.098
2.5313	57.084
2.5301	57.055
2.5289	57.002
2.5276	56.923
2.5264	56.816
2.5252	56.685
2.5239	56.535
2.5227	56.368
2.5215	56.189
2.5202	56.002
2.5190	55.810
2.5178	55.620
2.5166	55.438
2.5154	55.269
2.5141	55.119
2.5129	54.990
2.5117	54.883
2.5105	54.802
2.5093	54.750
2.5081	54.735
2.5068	54.764
2.5056	54.844
2.5044	54.978
2.5032	55.162
2.5020	55.387
2.5008	55.642
2.4996	55.916
2.4984	56.201
2.4972	56.494
2.4960	56.794
2.4948	57.101
2.4936	57.409
2.4924	57.709
2.4912	57.985
2.4900	58.223
2.4888	58.412
2.4876	58.549
2.4864	58.642
2.4852	58.708
2.4840	58.769
2.4828	58.848
2.4816	58.967
2.4805	59.138
2.4793	59.368
2.4781	59.657
2.4769	59.998
2.4757	60.381
2.4745	60.795
2.4734	61.223
2.4722	61.651
2.4710	62.064
2.4698	62.448
2.4686	62.794
2.4675	63.099
2.4663	63.362
2.4651	63.587
2.4640	63.776
2.4628	63.931
2.4616	64.049
2.4604	64.126
2.4593	64.159
2.4581	64.144
2.4569	64.084
2.4558	63.985
2.4546	63.857
2.4535	63.712
2.4523	63.562
2.4511	63.416
2.4500	63.280
2.4488	63.155
2.4477	63.040
2.4465	62.934
2.4454	62.832
2.4442	62.735
2.4431	62.641
2.4419	62.549
2.4408	62.458
2.4396	62.369
2.4385	62.284
2.4373	62.211
2.4362	62.163
2.4350	62.156
2.4339	62.204
2.4327	62.316
2.4316	62.489
2.4305	62.709
2.4293	62.953
2.4282	63.195
2.4270	63.413
2.4259	63.593
2.4248	63.734
2.4236	63.844
2.4225	63.934
2.4214	64.017
2.4202	64.101
2.4191	64.188
2.4180	64.273
2.4169	64.354
2.4157	64.423
2.4146	64.480
2.4135	64.526
2.4124	64.566
2.4112	64.604
2.4101	64.643
2.4090	64.683
2.4079	64.723
2.4068	64.760
2.4056	64.789
2.4045	64.808
2.4034	64.816
2.4023	64.817
2.4012	64.817
2.4001	64.825
2.3990	64.850
2.3979	64.901
2.3967	64.984
2.3956	65.100
2.3945	65.244
2.3934	65.411
2.3923	65.589
2.3912	65.765
2.3901	65.929
2.3890	66.070
2.3879	66.184
2.3868	66.268
2.3857	66.327
2.3846	66.364
2.3835	66.390
2.3824	66.410
2.3813	66.435
2.3802	66.467
2.3791	66.512
2.3781	66.568
2.3770	66.638
2.3759	66.720
2.3748	66.818
2.3737	66.934
2.3726	67.075
2.3715	67.246
2.3704	67.451
2.3694	67.689
2.3683	67.952
2.3672	68.227
2.3661	68.496
2.3650	68.741
2.3640	68.946
2.3629	69.100
2.3618	69.195
2.3607	69.228
2.3597	69.201
2.3586	69.114
2.3575	68.969
2.3564	68.765
2.3554	68.501
2.3543	68.171
2.3532	67.766
2.3522	67.277
2.3511	66.692
2.3500	66.005
2.3490	65.213
2.3479	64.327
2.3468	63.365
2.3458	62.355
2.3447	61.333
2.3436	60.334
2.3426	59.396
2.3415	58.549
2.3405	57.820
2.3394	57.229
2.3384	56.789
2.3373	56.502
2.3363	56.361
2.3352	56.342
2.3342	56.408
2.3331	56.515
2.3321	56.614
2.3310	56.666
2.3300	56.648
2.3289	56.559
2.3279	56.423
2.3268	56.279
2.3258	56.171
2.3247	56.141
2.3237	56.214
2.3226	56.400
2.3216	56.688
2.3206	57.059
2.3195	57.487
2.3185	57.949
2.3175	58.429
2.3164	58.917
2.3154	59.408
2.3144	59.898
2.3133	60.387
2.3123	60.867
2.3113	61.335
2.3102	61.786
2.3092	62.217
2.3082	62.628
2.3071	63.023
2.3061	63.405
2.3051	63.777
2.3041	64.141
2.3030	64.494
2.3020	64.834
2.3010	65.155
2.3000	65.453
2.2990	65.724
2.2979	65.965
2.2969	66.180
2.2959	66.373
2.2949	66.551
2.2939	66.721
2.2929	66.891
2.2918	67.065
2.2908	67.244
2.2898	67.425
2.2888	67.606
2.2878	67.782
2.2868	67.946
2.2858	68.093
2.2848	68.221
2.2838	68.323
2.2828	68.398
2.2818	68.442
2.2808	68.455
2.2798	68.437
2.2787	68.386
2.2777	68.304
2.2767	68.191
2.2757	68.056
2.2747	67.911
2.2738	67.778
2.2728	67.687
2.2718	67.671
2.2708	67.759
2.2698	67.973
2.2688	68.319
2.2678	68.787
2.2668	69.350
2.2658	69.975
2.2648	70.620
2.2638	71.252
2.2628	71.838
2.2618	72.359
2.2609	72.801
2.2599	73.158
2.2589	73.428
2.2579	73.614
2.2569	73.724
2.2559	73.771
2.2550	73.774
2.2540	73.752
2.2530	73.726
2.2520	73.716
2.2510	73.739
2.2501	73.801
2.2491	73.903
2.2481	74.034
2.2471	74.179
2.2462	74.321
2.2452	74.448
2.2442	74.553
2.2433	74.643
2.2423	74.735
2.2413	74.850
2.2403	75.009
2.2394	75.225
2.2384	75.503
2.2374	75.836
2.2365	76.212
2.2355	76.615
2.2345	77.029
2.2336	77.443
2.2326	77.846
2.2317	78.233
2.2307	78.601
2.2297	78.948
2.2288	79.271
2.2278	79.570
2.2269	79.845
2.2259	80.099
2.2250	80.333
2.2240	80.551
2.2231	80.757
2.2221	80.952
2.2211	81.136
2.2202	81.308
2.2192	81.466
2.2183	81.608
2.2173	81.733
2.2164	81.840
2.2155	81.932
2.2145	82.008
2.2136	82.074
2.2126	82.130
2.2117	82.182
2.2107	82.231
2.2098	82.281
2.2088	82.330
2.2079	82.378
2.2070	82.426
2.2060	82.471
2.2051	82.515
2.2041	82.558
2.2032	82.601
2.2023	82.643
2.2013	82.683
2.2004	82.719
2.1995	82.751
2.1985	82.777
2.1976	82.798
2.1967	82.815
2.1957	82.829
2.1948	82.840
2.1939	82.848
2.1930	82.853
2.1920	82.854
2.1911	82.855
2.1902	82.856
2.1893	82.860
2.1883	82.871
2.1874	82.889
2.1865	82.914
2.1856	82.943
2.1846	82.977
2.1837	83.011
2.1828	83.044
2.1819	83.075
2.1810	83.100
2.1800	83.117
2.1791	83.126
2.1782	83.128
2.1773	83.126
2.1764	83.124
2.1755	83.127
2.1746	83.135
2.1736	83.147
2.1727	83.160
2.1718	83.168
2.1709	83.168
2.1700	83.160
2.1691	83.143
2.1682	83.123
2.1673	83.100
2.1664	83.079
2.1655	83.060
2.1646	83.043
2.1637	83.024
2.1628	83.002
2.1619	82.972
2.1610	82.933
2.1601	82.885
2.1592	82.829
2.1583	82.770
2.1574	82.711
2.1565	82.651
2.1556	82.591
2.1547	82.527
2.1538	82.454
2.1529	82.369
2.1520	82.271
2.1511	82.162
2.1502	82.047
2.1493	81.929
2.1484	81.811
2.1475	81.694
2.1466	81.576
2.1458	81.457
2.1449	81.335
2.1440	81.212
2.1431	81.091
2.1422	80.974
2.1413	80.863
2.1404	80.756
2.1396	80.646
2.1387	80.526
2.1378	80.389
2.1369	80.233
2.1360	80.062
2.1352	79.885
2.1343	79.718
2.1334	79.574
2.1325	79.465
2.1316	79.400
2.1308	79.382
2.1299	79.411
2.1290	79.482
2.1281	79.588
2.1273	79.719
2.1264	79.864
2.1255	80.012
2.1247	80.155
2.1238	80.285
2.1229	80.397
2.1220	80.487
2.1212	80.553
2.1203	80.593
2.1194	80.606
2.1186	80.590
2.1177	80.549
2.1168	80.487
2.1160	80.412
2.1151	80.334
2.1143	80.261
2.1134	80.202
2.1125	80.162
2.1117	80.142
2.1108	80.142
2.1100	80.161
2.1091	80.196
2.1082	80.245
2.1074	80.306
2.1065	80.373
2.1057	80.439
2.1048	80.498
2.1040	80.545
2.1031	80.577
2.1023	80.594
2.1014	80.600
2.1005	80.596
2.0997	80.589
2.0988	80.580
2.0980	80.575
2.0971	80.578
2.0963	80.594
2.0955	80.627
2.0946	80.680
2.0938	80.753
2.0929	80.844
2.0921	80.950
2.0912	81.067
2.0904	81.192
2.0895	81.323
2.0887	81.459
2.0879	81.602
2.0870	81.750
2.0862	81.902
2.0853	82.061
2.0845	82.213
2.0837	82.369
2.0828	82.531
2.0820	82.655
2.0812	82.848
2.0803	82.990
2.0795	83.067
2.0760	83.067
2.0720	83.067
2.0680	83.472
2.0640	83.851
2.0600	83.971
2.0560	84.040
2.0520	84.065
2.0480	83.762
2.0440	83.315
2.0400	82.681
2.0360	82.007
2.0320	81.484
2.0280	81.097
2.0240	80.884
2.0200	80.829
2.0160	80.482
2.0120	80.192
2.0080	79.596
2.0040	79.281
2.0000	78.846
1.9960	78.099
1.9920	77.792
1.9880	77.481
1.9840	77.204
1.9800	76.895
1.9760	76.341
1.9720	76.096
1.9680	76.035
1.9640	75.914
1.9600	76.188
1.9560	76.157
1.9520	75.820
1.9480	75.667
1.9440	75.575
1.9400	75.360
1.9360	75.417
1.9320	75.190
1.9280	75.408
1.9240	75.218
1.9200	75.032
1.9160	75.064
1.9120	75.624
1.9080	75.997
1.9040	76.580
1.9000	77.292
1.8960	77.955
1.8920	79.190
1.8880	80.097
1.8840	80.657
1.8800	81.758
1.8760	82.872
1.8720	83.586
1.8680	84.185
1.8640	84.627
1.8600	85.206
1.8560	85.388
1.8520	85.977
1.8480	85.963
1.8440	86.059
1.8400	86.663
1.8360	87.059
1.8320	87.329
1.8280	87.309
1.8240	87.205
1.8200	87.082
1.8160	87.193
1.8120	86.986
1.8080	86.918
1.8040	86.855
1.8000	86.944
1.7960	86.781
1.7920	87.097
1.7880	87.076
1.7840	87.255
1.7800	87.393
1.7760	87.166
1.7720	87.028
1.7680	87.040
1.7640	87.040
1.7600	87.049
1.7560	87.249
1.7520	87.222
1.7480	87.085
1.7440	86.844
1.7400	87.159
1.7360	87.781
1.7320	87.629
1.7280	87.768
1.7240	87.859
1.7200	88.080
1.7160	88.181
1.7120	88.790
1.7080	89.107
1.7040	88.887
1.7000	88.013
1.6960	88.399
1.6920	88.547
1.6880	88.419
1.6840	88.113
1.6800	88.836
1.6760	89.175
1.6720	88.916
1.6680	88.865
1.6640	88.488
1.6600	88.826
1.6560	88.419
1.6520	87.806
1.6480	87.924
1.6440	88.549
1.6400	88.449
1.6360	88.538
1.6320	88.569
1.6280	88.339
1.6240	88.290
1.6200	88.240
1.6160	88.142
1.6120	87.806
1.6080	88.310
1.6040	88.658
1.6000	88.729
1.5960	88.429
1.5920	88.639
1.5880	88.569
1.5840	88.639
1.5800	88.650
1.5760	88.527
1.5720	88.477
1.5680	88.378
1.5640	88.250
1.5600	87.818
1.5560	87.328
1.5520	87.689
1.5480	87.429
1.5440	86.471
1.5400	86.046
1.5360	86.920
1.5320	87.304
1.5280	87.373
1.5240	86.988
1.5200	86.805
1.5160	86.759
1.5120	86.962
1.5080	87.220
1.5040	87.003
1.5000	86.878
1.4960	87.747
1.4920	86.579
1.4880	86.397
1.4840	86.351
1.4800	85.992
1.4760	85.591
1.4720	85.346
1.4680	86.062
1.4640	86.243
1.4600	85.972
1.4560	85.456
1.4520	84.628
1.4480	84.162
1.4440	84.246
1.4400	84.227
1.4360	84.269
1.4320	84.402
1.4280	84.269
1.4240	84.071
1.4200	83.915
1.4160	83.556
1.4120	83.253
1.4080	82.799
1.4040	81.578
1.4000	80.402
1.3960	77.911
1.3920	74.303
1.3880	71.061
1.3840	68.747
1.3800	68.935
1.3760	71.314
1.3720	75.352
1.3680	79.883
1.3640	82.761
1.3600	84.098
1.3560	84.420
1.3520	84.596
1.3480	84.895
1.3440	85.830
1.3400	86.119
1.3360	87.050
1.3320	87.724
1.3280	87.682
1.3240	87.671
1.3200	87.909
1.3160	88.028
1.3120	87.960
1.3080	87.960
1.3040	87.823
1.3000	87.823
1.2960	87.645
1.2920	87.671
1.2880	87.360
1.2840	86.984
1.2800	86.560
1.2760	86.698
1.2720	86.607
1.2680	87.269
1.2640	87.781
1.2600	87.873
1.2560	87.642
1.2520	87.733
1.2480	88.119
1.2440	87.792
1.2400	87.619
1.2360	87.598
1.2320	87.576
1.2280	87.672
1.2240	87.304
1.2200	87.326
1.2160	87.827
1.2120	87.619
1.2080	87.344
1.2040	87.344
1.2000	87.253
1.1960	87.104
1.1920	86.989
1.1880	86.849
1.1840	86.782
1.1800	86.983
1.1760	86.870
1.1720	86.825
1.1680	86.736
1.1640	86.566
1.1600	86.490
1.1560	86.647
1.1520	87.108
1.1480	87.260
1.1440	86.875
1.1400	86.671
1.1360	86.657
1.1320	86.453
1.1280	86.611
1.1240	87.541
1.1200	87.368
1.1160	87.164
1.1120	87.851
1.1080	87.690
1.1040	86.960
1.1000	86.747
1.0960	86.802
1.0920	87.028
1.0880	87.233
1.0840	87.373
1.0800	86.168
1.0760	86.461
1.0720	85.838
1.0680	85.297
1.0640	85.552
1.0600	86.719
1.0560	86.182
1.0520	86.139
1.0480	86.222
1.0440	86.404
1.0400	86.290
1.0360	86.810
1.0320	86.901
1.0280	86.629
1.0240	86.312
1.0200	86.493
1.0160	86.651
1.0120	85.908
1.0080	86.177
1.0040	86.130
1.0000	85.975
0.99600	85.696
0.99200	86.426
0.98800	86.293
0.98400	86.036
0.98000	86.242
0.97600	85.515
0.97200	85.929
0.96800	85.763
0.96400	85.669
0.96000	85.763
0.95600	85.559
0.95200	85.268
0.94800	84.998
0.94400	84.818
0.94000	84.686
0.93600	84.734
0.93200	85.160
0.92800	84.765
0.92400	85.268
0.92000	85.122
0.91600	85.583
0.91200	85.517
0.90800	85.381
0.90400	85.249
0.90000	85.381
0.89600	85.226
0.89200	85.137
0.88800	85.113
0.88400	84.887
0.88000	84.967
0.87600	84.896
0.87200	85.180
0.86800	84.866
0.86400	84.885
0.86000	85.001
0.85600	84.673
0.85200	84.649
0.84800	84.766
0.84400	84.484
0.84000	84.667
0.83600	84.819
0.83200	84.467
0.82800	84.673
0.82400	84.565
0.82000	85.146
0.81600	84.285
0.81200	84.407
0.80800	84.809
0.80400	85.127
0.80000	85.018
0.79900	84.293
0.79800	84.293
0.79700	84.218
0.79600	84.465
0.79500	84.563
0.79400	84.193
0.79300	83.926
0.79200	83.903
0.79100	84.021
0.79000	84.170
0.78900	84.293
0.78800	83.949
0.78700	84.218
0.78600	84.091
0.78500	84.390
0.78400	84.679
0.78300	84.777
0.78200	83.629
0.78100	83.723
0.78000	84.193
0.77900	84.613
0.77800	84.170
0.77700	84.410
0.77600	84.091
0.77500	83.746
0.77400	83.939
0.77300	83.939
0.77200	84.055
0.77100	84.058
0.77000	83.743
0.76900	83.303
0.76800	83.765
0.76700	84.504
0.76600	84.601
0.76500	84.323
0.76400	84.392
0.76300	84.137
0.76200	83.797
0.76100	84.229
0.76000	83.914
0.75900	83.884
0.75800	84.077
0.75700	83.981
0.75600	83.891
0.75500	84.579
0.75400	84.455
0.75300	84.055
0.75200	84.129
0.75100	84.129
0.75000	83.884
0.74900	84.279
0.74800	84.182
0.74700	84.182
0.74600	84.033
0.74500	83.891
0.74400	83.811
0.74300	82.772
0.74200	83.446
0.74100	84.463
0.74000	84.269
0.73900	83.801
0.73800	84.190
0.73700	83.794
0.73600	83.372
0.73500	83.406
0.73400	83.801
0.73300	83.915
0.73200	84.063
0.73100	84.098
0.73000	83.588
0.72900	84.132
0.72800	83.871
0.72700	83.309
0.72600	83.533
0.72500	83.630
0.72400	83.526
0.72300	83.624
0.72200	83.785
0.72100	83.990
0.72000	83.589
0.71900	84.431
0.71800	84.803
0.71700	84.233
0.71600	83.929
0.71500	83.576
0.71400	84.063
0.71300	84.118
0.71200	84.287
0.71100	83.756
0.71000	84.058
0.70900	84.027
0.70800	83.983
0.70700	83.433
0.70600	83.583
0.70500	83.756
0.70400	83.884
0.70300	83.754
0.70200	83.460
0.70100	82.975
0.70000	83.544
0.69900	84.328
0.69800	83.556
0.69700	83.981
0.69600	83.872
0.69500	83.926
0.69400	83.826
0.69300	83.849
0.69200	83.618
0.69100	84.326
0.69000	84.349
0.68900	84.382
0.68800	84.026
0.68700	83.926
0.68600	84.026
0.68500	84.081
0.68400	83.525
0.68300	83.525
0.68200	83.949
0.68100	84.049
0.68000	84.181
0.67900	84.058
0.67800	83.981
0.67700	83.325
0.67600	83.325
0.67500	84.058
0.67400	84.159
0.67300	84.360
0.67200	84.049
0.67100	84.314
0.67000	84.036
0.66900	83.912
0.66800	83.633
0.66700	83.231
0.66600	83.556
0.66500	83.378
0.66400	83.149
0.66300	82.873
0.66200	83.361
0.66100	83.462
0.66000	83.811
0.65900	84.404
0.65800	84.303
0.65700	83.944
0.65600	83.356
0.65500	83.332
0.65400	82.978
0.65300	82.925
0.65200	82.925
0.65100	83.272
0.65000	83.219
0.64900	82.793
0.64800	82.991
0.64700	83.834
0.64600	84.708
0.64500	84.302
0.64400	83.899
0.64300	83.642
0.64200	83.054
0.64100	83.078
0.64000	83.821
0.63900	83.566
0.63800	82.930
0.63700	82.349
0.63600	82.023
0.63500	82.449
0.63400	82.925
0.63300	82.949
0.63200	83.172
0.63100	83.255
0.63000	82.925
0.62900	82.673
0.62800	82.597
0.62700	82.697
0.62600	82.872
0.62500	83.155
0.62400	83.078
0.62300	82.849
0.62200	82.597
0.62100	82.720
0.62000	83.232
0.61900	83.876
0.61800	84.269
0.61700	84.134
0.61600	83.595
0.61500	82.936
0.61400	82.629
0.61300	82.324
0.61200	83.137
0.61100	83.292
0.61000	83.114
0.60900	82.936
0.60800	83.060
0.60700	82.757
0.60600	82.607
0.60500	82.430
0.60400	82.228
0.60300	82.281
0.60200	82.207
0.60100	82.183
0.60000	82.339
0.59900	82.572
0.59800	82.006
0.59700	82.910
0.59600	83.250
0.59500	82.444
0.59400	82.367
0.59300	82.994
0.59200	82.944
0.59100	83.278
0.59000	83.068
0.58900	82.526
0.58800	82.840
0.58700	82.683
0.58600	82.840
0.58500	83.544
0.58400	82.725
0.58300	82.781
0.58200	82.572
0.58100	82.597
0.58000	83.041
0.57900	83.612
0.57800	83.326
0.57700	82.703
0.57600	82.703
0.57500	82.884
0.57400	82.830
0.57300	82.770
0.57200	83.191
0.57100	83.502
0.57000	82.787
0.56900	82.406
0.56800	82.609
0.56700	82.814
0.56600	82.994
0.56500	82.815
0.56400	82.661
0.56300	82.970
0.56200	82.588
0.56100	82.487
0.56000	82.596
0.55900	82.494
0.55800	82.494
0.55700	83.037
0.55600	82.793
0.55500	82.450
0.55400	82.201
0.55300	81.904
0.55200	81.727
0.55100	81.845
0.55000	81.865
0.54900	82.403
0.54800	81.963
0.54700	81.891
0.54600	81.856
0.54500	82.303
0.54400	81.910
0.54300	82.551
0.54200	82.625
0.54100	82.424
0.54000	82.123
0.53900	82.440
0.53800	82.414
0.53700	81.787
0.53600	81.887
0.53500	81.915
0.53400	81.961
0.53300	81.329
0.53200	81.123
0.53100	81.051
0.53000	80.896
0.52900	80.857
0.52800	81.190
0.52700	81.118
0.52600	80.716
0.52500	80.716
0.52400	80.861
0.52300	80.745
0.52200	81.320
0.52100	81.046
0.52000	81.078
0.51900	80.803
0.51800	80.286
0.51700	80.156
0.51600	80.185
0.51500	79.998
0.51400	79.481
0.51300	79.854
0.51200	79.629
0.51100	79.259
0.51000	79.340
0.50900	78.999
0.50800	79.351
0.50700	79.373
0.50600	78.795
0.50500	78.685
0.50400	79.230
0.50300	79.586
0.50200	78.999
0.50100	79.081
0.50000	79.252
0.49900	78.546
0.49800	78.181
0.49700	78.554
0.49600	77.973
0.49500	77.879
0.49400	77.741
0.49300	77.545
0.49200	77.790
0.49100	78.140
0.49000	77.689
0.48900	77.789
0.48800	77.857
0.48700	77.443
0.48600	77.377
0.48500	76.770
0.48400	76.570
0.48300	77.182
0.48200	76.637
0.48100	76.434
0.48000	76.638
0.47900	76.059
0.47800	76.982
0.47700	76.026
0.47600	75.992
0.47500	75.450
0.47400	75.343
0.47300	74.593
0.47200	74.257
0.47100	73.653
0.47000	73.044
0.46900	72.596
0.46800	71.964
0.46700	71.913
0.46600	71.166
0.46500	70.537
0.46400	70.298
0.46300	69.648
0.46200	69.729
0.46100	69.220
0.46000	68.312
0.45900	69.966
0.45800	69.927
0.45700	69.803
0.45600	69.102
0.45500	68.920
0.45400	68.754
0.45300	68.516
0.45200	68.446
0.45100	68.003
0.45000	68.711
0.44900	68.892
0.44800	68.503
0.44700	68.460
0.44600	68.404
0.44500	68.297
0.44400	68.197
0.44300	67.461
0.44200	67.693
0.44100	67.750
0.44000	67.431
0.43900	67.133
0.43800	67.159
0.43700	66.574
0.43600	66.892
0.43500	67.323
0.43400	66.900
0.43300	66.732
0.43200	66.686
0.43100	66.861
0.43000	67.084
0.42900	67.361
0.42800	67.184
0.42700	66.774
0.42600	67.171
0.42500	67.044
0.42400	67.266
0.42300	67.994
0.42200	67.574
0.42100	67.581
0.42000	68.113
0.41900	67.806
0.41800	67.885
0.41700	67.636
0.41600	67.736
0.41500	67.998
0.41400	68.130
0.41300	67.677
0.41200	68.172
0.41100	67.561
0.41000	67.346
0.40900	67.632
0.40800	68.548
0.40700	68.608
0.40600	68.722
0.40500	68.708
0.40400	68.782
0.40300	68.782
0.40200	68.842
0.40100	69.016
0.40000	69.130
