Name:  Mica Schist 
Type:  Rocks
Class:  Metamorphic 
Subclass: Schist 
Particle Size:  0-75 Micrometer
Sample No.:   schist3.doc
Owner:  JHU
Wavelength Range:  All
Origin:  Sample No. 394, The Hunt and Salisbury Collection at the U.S. 
Geological Survey, Denver, Co.
Description:  A medium-grained somewhat foliated rock.  Bands of strained 
quartz with pressure solution effects alternate with irregular bands of biotite which 
have usually been altered to chlorite, associated with abundant magnetite and 
ferruginous staining.  Much less muscovite, usually as sericite, is also present.  
Green to slightly blue-green epidote crystals occur commonly throughout the 
rock.  
Measurement:  Directional (10 Degree) Hemispherical Reflectance
First Column:  X
Second Column:  Y  
X Units:  Wavelength (micrometers)
Y Units:  Reflectance (percent)
First X Value: 14.9831	
Last X Value:  0.4
Number of X Values: 2868
Additional Information:  None

14.983	2.4207
14.940	2.4402
14.897	2.4285
14.854	2.3845
14.812	2.3217
14.770	2.2587
14.728	2.2109
14.686	2.1851
14.645	2.1773
14.603	2.1754
14.562	2.1666
14.521	2.1432
14.481	2.1048
14.441	2.0589
14.400	2.0167
14.361	1.9902
14.321	1.9871
14.281	2.0106
14.242	2.0584
14.203	2.1249
14.164	2.2022
14.126	2.2808
14.087	2.3521
14.049	2.4098
14.011	2.4508
13.973	2.4757
13.936	2.4882
13.899	2.4944
13.861	2.5005
13.824	2.5102
13.788	2.5252
13.751	2.5432
13.715	2.5602
13.679	2.5711
13.643	2.5718
13.607	2.5605
13.571	2.5370
13.536	2.5041
13.500	2.4657
13.465	2.4259
13.430	2.3876
13.396	2.3521
13.361	2.3198
13.327	2.2912
13.293	2.2656
13.259	2.2441
13.225	2.2291
13.191	2.2232
13.158	2.2291
13.124	2.2488
13.091	2.2836
13.058	2.3326
13.026	2.3947
12.993	2.4657
12.960	2.5413
12.928	2.6154
12.896	2.6819
12.864	2.7350
12.832	2.7705
12.800	2.7866
12.769	2.7847
12.737	2.7696
12.706	2.7466
12.675	2.7215
12.644	2.6988
12.614	2.6800
12.583	2.6649
12.552	2.6512
12.522	2.6379
12.492	2.6251
12.462	2.6152
12.432	2.6121
12.402	2.6206
12.373	2.6438
12.343	2.6834
12.314	2.7378
12.285	2.8039
12.256	2.8771
12.227	2.9524
12.198	3.0263
12.169	3.0971
12.141	3.1665
12.113	3.2377
12.084	3.3168
12.056	3.4090
12.028	3.5174
12.000	3.6429
11.973	3.7829
11.945	3.9309
11.918	4.0799
11.890	4.2224
11.863	4.3517
11.836	4.4635
11.809	4.5549
11.782	4.6248
11.755	4.6726
11.729	4.6991
11.702	4.7048
11.676	4.6918
11.650	4.6612
11.624	4.6158
11.598	4.5575
11.572	4.4893
11.546	4.4142
11.520	4.3356
11.495	4.2561
11.469	4.1786
11.444	4.1054
11.419	4.0377
11.394	3.9766
11.369	3.9226
11.344	3.8757
11.319	3.8362
11.294	3.8026
11.270	3.7729
11.245	3.7450
11.221	3.7159
11.197	3.6830
11.173	3.6453
11.149	3.6029
11.125	3.5565
11.101	3.5075
11.077	3.4570
11.054	3.4066
11.030	3.3573
11.007	3.3107
10.983	3.2678
10.960	3.2297
10.937	3.1973
10.914	3.1700
10.891	3.1468
10.868	3.1264
10.846	3.1082
10.823	3.0923
10.800	3.0793
10.778	3.0710
10.755	3.0682
10.733	3.0715
10.711	3.0805
10.689	3.0947
10.667	3.1134
10.645	3.1369
10.623	3.1648
10.602	3.1977
10.580	3.2351
10.558	3.2763
10.537	3.3194
10.516	3.3628
10.494	3.4042
10.473	3.4424
10.452	3.4762
10.431	3.5053
10.410	3.5300
10.389	3.5503
10.368	3.5676
10.348	3.5833
10.327	3.5987
10.306	3.6155
10.286	3.6344
10.266	3.6562
10.245	3.6806
10.225	3.7066
10.205	3.7332
10.185	3.7592
10.165	3.7838
10.145	3.8068
10.125	3.8281
10.106	3.8478
10.086	3.8674
10.066	3.8878
10.047	3.9105
10.027	3.9371
10.008	3.9678
9.9887	4.0036
9.9695	4.0434
9.9504	4.0863
9.9313	4.1301
9.9123	4.1736
9.8934	4.2158
9.8746	4.2558
9.8558	4.2949
9.8371	4.3344
9.8185	4.3775
9.7999	4.4280
9.7814	4.4896
9.7630	4.5668
9.7447	4.6620
9.7264	4.7754
9.7082	4.9045
9.6900	5.0420
9.6719	5.1773
9.6539	5.2969
9.6360	5.3861
9.6181	5.4333
9.6003	5.4297
9.5825	5.3741
9.5649	5.2710
9.5472	5.1320
9.5297	4.9727
9.5122	4.8119
9.4948	4.6691
9.4774	4.5618
9.4601	4.5031
9.4429	4.5016
9.4257	4.5589
9.4086	4.6705
9.3916	4.8258
9.3746	5.0115
9.3577	5.2116
9.3408	5.4127
9.3240	5.6028
9.3073	5.7755
9.2906	5.9273
9.2740	6.0585
9.2574	6.1709
9.2409	6.2671
9.2245	6.3490
9.2081	6.4175
9.1918	6.4722
9.1755	6.5127
9.1593	6.5387
9.1431	6.5499
9.1270	6.5472
9.1110	6.5321
9.0950	6.5072
9.0791	6.4755
9.0632	6.4393
9.0474	6.4016
9.0316	6.3649
9.0159	6.3317
9.0003	6.3036
8.9847	6.2818
8.9691	6.2673
8.9536	6.2598
8.9382	6.2583
8.9228	6.2609
8.9075	6.2659
8.8922	6.2711
8.8770	6.2751
8.8618	6.2766
8.8467	6.2740
8.8316	6.2661
8.8166	6.2512
8.8016	6.2273
8.7867	6.1927
8.7718	6.1449
8.7570	6.0800
8.7422	5.9926
8.7275	5.8768
8.7129	5.7274
8.6982	5.5443
8.6837	5.3350
8.6692	5.1152
8.6547	4.9080
8.6403	4.7370
8.6259	4.6210
8.6116	4.5677
8.5973	4.5715
8.5830	4.6160
8.5688	4.6790
8.5547	4.7387
8.5406	4.7806
8.5266	4.7979
8.5126	4.7922
8.4986	4.7702
8.4847	4.7403
8.4708	4.7100
8.4570	4.6845
8.4432	4.6657
8.4295	4.6546
8.4158	4.6501
8.4022	4.6515
8.3886	4.6586
8.3750	4.6710
8.3615	4.6897
8.3481	4.7157
8.3347	4.7498
8.3213	4.7929
8.3079	4.8448
8.2946	4.9047
8.2814	4.9717
8.2682	5.0439
8.2550	5.1200
8.2419	5.1967
8.2288	5.2706
8.2158	5.3364
8.2028	5.3876
8.1898	5.4167
8.1769	5.4186
8.1640	5.3897
8.1512	5.3305
8.1384	5.2457
8.1256	5.1425
8.1129	5.0295
8.1002	4.9149
8.0876	4.8055
8.0750	4.7053
8.0624	4.6160
8.0499	4.5381
8.0374	4.4704
8.0250	4.4112
8.0126	4.3588
8.0002	4.3115
7.9879	4.2677
7.9756	4.2262
7.9634	4.1867
7.9512	4.1485
7.9390	4.1118
7.9268	4.0773
7.9147	4.0451
7.9027	4.0164
7.8906	3.9920
7.8786	3.9735
7.8667	3.9617
7.8548	3.9574
7.8429	3.9615
7.8310	3.9738
7.8192	3.9939
7.8075	4.0202
7.7957	4.0522
7.7840	4.0886
7.7723	4.1286
7.7607	4.1717
7.7491	4.2182
7.7375	4.2677
7.7260	4.3195
7.7145	4.3733
7.7031	4.4275
7.6916	4.4810
7.6802	4.5317
7.6689	4.5791
7.6575	4.6219
7.6462	4.6615
7.6350	4.6989
7.6238	4.7358
7.6126	4.7752
7.6014	4.8183
7.5903	4.8663
7.5792	4.9189
7.5681	4.9753
7.5571	5.0333
7.5461	5.0904
7.5351	5.1443
7.5242	5.1938
7.5133	5.2386
7.5024	5.2793
7.4916	5.3179
7.4807	5.3563
7.4700	5.3968
7.4592	5.4408
7.4485	5.4894
7.4378	5.5415
7.4272	5.5964
7.4165	5.6521
7.4059	5.7066
7.3954	5.7586
7.3848	5.8077
7.3743	5.8538
7.3639	5.8979
7.3534	5.9415
7.3430	5.9858
7.3326	6.0324
7.3222	6.0819
7.3119	6.1350
7.3016	6.1915
7.2914	6.2517
7.2811	6.3152
7.2709	6.3815
7.2607	6.4494
7.2506	6.5186
7.2404	6.5873
7.2303	6.6543
7.2203	6.7185
7.2102	6.7789
7.2002	6.8362
7.1902	6.8909
7.1803	6.9456
7.1703	7.0024
7.1604	7.0630
7.1506	7.1291
7.1407	7.1999
7.1309	7.2738
7.1211	7.3479
7.1113	7.4187
7.1016	7.4827
7.0919	7.5383
7.0822	7.5859
7.0725	7.6276
7.0629	7.6676
7.0533	7.7112
7.0437	7.7616
7.0341	7.8194
7.0246	7.8829
7.0151	7.9475
7.0056	8.0091
6.9962	8.0657
6.9867	8.1173
6.9773	8.1675
6.9679	8.2208
6.9586	8.2803
6.9493	8.3468
6.9400	8.4181
6.9307	8.4894
6.9214	8.5550
6.9122	8.6101
6.9030	8.6532
6.8938	8.6859
6.8847	8.7129
6.8755	8.7404
6.8664	8.7736
6.8573	8.8155
6.8483	8.8643
6.8393	8.9156
6.8302	8.9637
6.8213	9.0044
6.8123	9.0364
6.8034	9.0627
6.7944	9.0885
6.7855	9.1181
6.7767	9.1539
6.7678	9.1944
6.7590	9.2356
6.7502	9.2730
6.7414	9.3033
6.7327	9.3277
6.7239	9.3497
6.7152	9.3758
6.7065	9.4101
6.6979	9.4551
6.6892	9.5086
6.6806	9.5657
6.6720	9.6199
6.6634	9.6678
6.6549	9.7083
6.6464	9.7440
6.6378	9.7777
6.6294	9.8106
6.6209	9.8411
6.6124	9.8655
6.6040	9.8804
6.5956	9.8854
6.5872	9.8856
6.5789	9.8899
6.5705	9.9079
6.5622	9.9460
6.5539	10.005
6.5456	10.080
6.5374	10.162
6.5292	10.242
6.5209	10.317
6.5128	10.389
6.5046	10.465
6.4964	10.554
6.4883	10.659
6.4802	10.777
6.4721	10.895
6.4640	10.996
6.4560	11.066
6.4480	11.097
6.4399	11.094
6.4320	11.071
6.4240	11.046
6.4160	11.033
6.4081	11.040
6.4002	11.061
6.3923	11.082
6.3844	11.091
6.3766	11.077
6.3687	11.038
6.3609	10.982
6.3531	10.918
6.3454	10.856
6.3376	10.801
6.3299	10.752
6.3221	10.704
6.3144	10.650
6.3068	10.587
6.2991	10.513
6.2914	10.430
6.2838	10.341
6.2762	10.251
6.2686	10.164
6.2611	10.082
6.2535	10.006
6.2460	9.9337
6.2385	9.8641
6.2310	9.7954
6.2235	9.7263
6.2160	9.6583
6.2086	9.5951
6.2011	9.5437
6.1937	9.5117
6.1863	9.5048
6.1790	9.5252
6.1716	9.5697
6.1643	9.6304
6.1570	9.6964
6.1496	9.7578
6.1424	9.8087
6.1351	9.8487
6.1278	9.8816
6.1206	9.9131
6.1134	9.9474
6.1062	9.9844
6.0990	10.019
6.0918	10.042
6.0847	10.050
6.0776	10.042
6.0704	10.024
6.0633	10.008
6.0563	10.006
6.0492	10.027
6.0421	10.070
6.0351	10.125
6.0281	10.181
6.0211	10.223
6.0141	10.244
6.0071	10.244
6.0002	10.229
5.9932	10.205
5.9863	10.179
5.9794	10.152
5.9725	10.124
5.9657	10.097
5.9588	10.071
5.9520	10.054
5.9451	10.053
5.9383	10.073
5.9315	10.113
5.9247	10.168
5.9180	10.229
5.9112	10.289
5.9045	10.345
5.8978	10.400
5.8911	10.464
5.8844	10.546
5.8777	10.648
5.8711	10.766
5.8644	10.889
5.8578	11.001
5.8512	11.092
5.8446	11.160
5.8380	11.208
5.8314	11.248
5.8249	11.292
5.8184	11.345
5.8118	11.406
5.8053	11.466
5.7988	11.514
5.7923	11.542
5.7859	11.549
5.7794	11.540
5.7730	11.527
5.7666	11.522
5.7602	11.530
5.7538	11.553
5.7474	11.584
5.7410	11.616
5.7347	11.642
5.7283	11.656
5.7220	11.662
5.7157	11.661
5.7094	11.658
5.7031	11.653
5.6969	11.645
5.6906	11.632
5.6844	11.608
5.6782	11.570
5.6719	11.516
5.6657	11.449
5.6596	11.372
5.6534	11.292
5.6472	11.214
5.6411	11.143
5.6349	11.081
5.6288	11.028
5.6227	10.983
5.6166	10.941
5.6106	10.902
5.6045	10.866
5.5984	10.832
5.5924	10.804
5.5864	10.785
5.5804	10.777
5.5744	10.783
5.5684	10.803
5.5624	10.835
5.5564	10.877
5.5505	10.928
5.5445	10.983
5.5386	11.042
5.5327	11.105
5.5268	11.171
5.5209	11.239
5.5151	11.309
5.5092	11.380
5.5033	11.450
5.4975	11.517
5.4917	11.583
5.4859	11.647
5.4801	11.712
5.4743	11.777
5.4685	11.845
5.4628	11.912
5.4570	11.975
5.4513	12.029
5.4455	12.070
5.4398	12.094
5.4341	12.101
5.4284	12.091
5.4228	12.067
5.4171	12.028
5.4114	11.976
5.4058	11.910
5.4002	11.833
5.3945	11.746
5.3889	11.654
5.3833	11.564
5.3778	11.481
5.3722	11.412
5.3666	11.362
5.3611	11.333
5.3555	11.328
5.3500	11.345
5.3445	11.384
5.3390	11.441
5.3335	11.512
5.3280	11.592
5.3225	11.678
5.3171	11.768
5.3116	11.859
5.3062	11.955
5.3008	12.056
5.2954	12.165
5.2900	12.286
5.2846	12.418
5.2792	12.563
5.2738	12.717
5.2684	12.882
5.2631	13.053
5.2578	13.232
5.2524	13.416
5.2471	13.605
5.2418	13.798
5.2365	13.990
5.2312	14.180
5.2260	14.361
5.2207	14.531
5.2154	14.685
5.2102	14.822
5.2050	14.942
5.1998	15.046
5.1945	15.135
5.1893	15.212
5.1842	15.280
5.1790	15.340
5.1738	15.395
5.1686	15.445
5.1635	15.491
5.1584	15.534
5.1532	15.575
5.1481	15.615
5.1430	15.657
5.1379	15.701
5.1328	15.747
5.1277	15.795
5.1227	15.840
5.1176	15.880
5.1126	15.910
5.1075	15.928
5.1025	15.934
5.0975	15.929
5.0925	15.917
5.0875	15.902
5.0825	15.886
5.0775	15.873
5.0726	15.865
5.0676	15.860
5.0627	15.860
5.0577	15.863
5.0528	15.870
5.0479	15.877
5.0430	15.885
5.0380	15.892
5.0332	15.898
5.0283	15.903
5.0234	15.909
5.0185	15.916
5.0137	15.929
5.0088	15.948
5.0040	15.975
4.9992	16.013
4.9944	16.063
4.9896	16.127
4.9848	16.205
4.9800	16.297
4.9752	16.401
4.9704	16.513
4.9657	16.626
4.9609	16.736
4.9562	16.838
4.9514	16.928
4.9467	17.005
4.9420	17.071
4.9373	17.129
4.9326	17.187
4.9279	17.250
4.9232	17.325
4.9186	17.415
4.9139	17.521
4.9092	17.642
4.9046	17.774
4.9000	17.909
4.8953	18.042
4.8907	18.168
4.8861	18.283
4.8815	18.386
4.8769	18.477
4.8723	18.558
4.8678	18.630
4.8632	18.697
4.8586	18.759
4.8541	18.816
4.8495	18.870
4.8450	18.921
4.8405	18.968
4.8360	19.013
4.8315	19.055
4.8270	19.096
4.8225	19.134
4.8180	19.170
4.8135	19.205
4.8090	19.237
4.8046	19.268
4.8001	19.298
4.7957	19.328
4.7913	19.360
4.7868	19.393
4.7824	19.430
4.7780	19.469
4.7736	19.510
4.7692	19.554
4.7648	19.598
4.7605	19.643
4.7561	19.688
4.7517	19.732
4.7474	19.775
4.7431	19.818
4.7387	19.859
4.7344	19.898
4.7301	19.936
4.7258	19.973
4.7215	20.007
4.7172	20.039
4.7129	20.068
4.7086	20.094
4.7043	20.118
4.7000	20.140
4.6958	20.161
4.6915	20.183
4.6873	20.209
4.6831	20.240
4.6788	20.277
4.6746	20.321
4.6704	20.369
4.6662	20.421
4.6620	20.474
4.6578	20.527
4.6536	20.579
4.6495	20.629
4.6453	20.680
4.6411	20.730
4.6370	20.781
4.6328	20.831
4.6287	20.882
4.6246	20.931
4.6205	20.978
4.6163	21.024
4.6122	21.068
4.6081	21.111
4.6040	21.152
4.6000	21.191
4.5959	21.228
4.5918	21.264
4.5877	21.297
4.5837	21.329
4.5796	21.360
4.5756	21.390
4.5716	21.419
4.5675	21.447
4.5635	21.475
4.5595	21.500
4.5555	21.525
4.5515	21.547
4.5475	21.567
4.5435	21.584
4.5395	21.598
4.5356	21.610
4.5316	21.619
4.5276	21.627
4.5237	21.633
4.5197	21.637
4.5158	21.640
4.5119	21.642
4.5080	21.643
4.5040	21.645
4.5001	21.649
4.4962	21.655
4.4923	21.664
4.4884	21.676
4.4846	21.690
4.4807	21.706
4.4768	21.723
4.4730	21.742
4.4691	21.764
4.4652	21.790
4.4614	21.820
4.4576	21.854
4.4537	21.890
4.4499	21.928
4.4461	21.965
4.4423	22.000
4.4385	22.031
4.4347	22.061
4.4309	22.089
4.4271	22.117
4.4233	22.146
4.4196	22.175
4.4158	22.205
4.4120	22.234
4.4083	22.264
4.4045	22.292
4.4008	22.320
4.3971	22.347
4.3934	22.373
4.3896	22.399
4.3859	22.425
4.3822	22.452
4.3785	22.479
4.3748	22.505
4.3711	22.531
4.3674	22.554
4.3638	22.573
4.3601	22.591
4.3564	22.605
4.3528	22.619
4.3491	22.633
4.3455	22.647
4.3418	22.663
4.3382	22.678
4.3346	22.692
4.3310	22.704
4.3273	22.712
4.3237	22.717
4.3201	22.720
4.3165	22.721
4.3129	22.722
4.3094	22.722
4.3058	22.723
4.3022	22.722
4.2986	22.720
4.2951	22.716
4.2915	22.711
4.2880	22.706
4.2844	22.701
4.2809	22.699
4.2774	22.700
4.2738	22.705
4.2703	22.712
4.2668	22.722
4.2633	22.735
4.2598	22.750
4.2563	22.768
4.2528	22.787
4.2493	22.808
4.2458	22.829
4.2424	22.851
4.2389	22.873
4.2354	22.895
4.2320	22.916
4.2285	22.937
4.2251	22.957
4.2216	22.976
4.2182	22.992
4.2148	23.007
4.2113	23.021
4.2079	23.034
4.2045	23.047
4.2011	23.061
4.1977	23.075
4.1943	23.090
4.1909	23.104
4.1875	23.116
4.1841	23.127
4.1808	23.137
4.1774	23.147
4.1740	23.156
4.1707	23.167
4.1673	23.179
4.1640	23.190
4.1606	23.202
4.1573	23.214
4.1540	23.225
4.1506	23.234
4.1473	23.242
4.1440	23.250
4.1407	23.258
4.1374	23.266
4.1341	23.277
4.1308	23.288
4.1275	23.302
4.1242	23.315
4.1209	23.328
4.1177	23.340
4.1144	23.351
4.1111	23.360
4.1079	23.368
4.1046	23.375
4.1014	23.382
4.0981	23.389
4.0949	23.396
4.0917	23.404
4.0884	23.411
4.0852	23.418
4.0820	23.424
4.0788	23.430
4.0756	23.436
4.0724	23.442
4.0692	23.448
4.0660	23.454
4.0628	23.461
4.0596	23.469
4.0565	23.477
4.0533	23.485
4.0501	23.493
4.0470	23.500
4.0438	23.506
4.0406	23.511
4.0375	23.515
4.0344	23.519
4.0312	23.524
4.0281	23.529
4.0250	23.535
4.0218	23.542
4.0187	23.548
4.0156	23.554
4.0125	23.561
4.0094	23.567
4.0063	23.573
4.0032	23.579
4.0001	23.585
3.9970	23.592
3.9940	23.598
3.9909	23.604
3.9878	23.611
3.9847	23.617
3.9817	23.624
3.9786	23.631
3.9756	23.639
3.9725	23.646
3.9695	23.653
3.9665	23.660
3.9634	23.665
3.9604	23.670
3.9574	23.674
3.9544	23.679
3.9513	23.684
3.9483	23.689
3.9453	23.693
3.9423	23.696
3.9393	23.698
3.9363	23.699
3.9333	23.699
3.9304	23.701
3.9274	23.703
3.9244	23.706
3.9214	23.710
3.9185	23.715
3.9155	23.719
3.9126	23.723
3.9096	23.727
3.9067	23.729
3.9037	23.731
3.9008	23.732
3.8979	23.732
3.8949	23.733
3.8920	23.734
3.8891	23.734
3.8862	23.735
3.8833	23.735
3.8804	23.735
3.8775	23.736
3.8746	23.738
3.8717	23.742
3.8688	23.746
3.8659	23.750
3.8630	23.752
3.8601	23.753
3.8573	23.752
3.8544	23.751
3.8515	23.749
3.8487	23.748
3.8458	23.748
3.8430	23.749
3.8401	23.749
3.8373	23.749
3.8344	23.748
3.8316	23.747
3.8288	23.745
3.8259	23.744
3.8231	23.744
3.8203	23.746
3.8175	23.749
3.8147	23.750
3.8119	23.751
3.8091	23.750
3.8063	23.748
3.8035	23.746
3.8007	23.743
3.7979	23.742
3.7951	23.742
3.7924	23.743
3.7896	23.744
3.7868	23.742
3.7841	23.739
3.7813	23.734
3.7785	23.727
3.7758	23.720
3.7730	23.715
3.7703	23.711
3.7676	23.708
3.7648	23.706
3.7621	23.704
3.7594	23.701
3.7566	23.696
3.7539	23.690
3.7512	23.682
3.7485	23.673
3.7458	23.663
3.7431	23.652
3.7404	23.642
3.7377	23.631
3.7350	23.621
3.7323	23.613
3.7296	23.606
3.7269	23.600
3.7242	23.596
3.7216	23.593
3.7189	23.591
3.7162	23.590
3.7136	23.588
3.7109	23.588
3.7083	23.586
3.7056	23.584
3.7030	23.581
3.7003	23.577
3.6977	23.572
3.6950	23.565
3.6924	23.559
3.6898	23.552
3.6872	23.547
3.6845	23.542
3.6819	23.539
3.6793	23.538
3.6767	23.539
3.6741	23.542
3.6715	23.545
3.6689	23.549
3.6663	23.552
3.6637	23.553
3.6611	23.553
3.6585	23.552
3.6560	23.551
3.6534	23.549
3.6508	23.546
3.6482	23.543
3.6457	23.540
3.6431	23.536
3.6406	23.531
3.6380	23.527
3.6355	23.522
3.6329	23.518
3.6304	23.515
3.6278	23.513
3.6253	23.513
3.6227	23.513
3.6202	23.514
3.6177	23.514
3.6152	23.513
3.6127	23.509
3.6101	23.504
3.6076	23.497
3.6051	23.489
3.6026	23.482
3.6001	23.476
3.5976	23.471
3.5951	23.468
3.5926	23.467
3.5901	23.467
3.5876	23.467
3.5852	23.466
3.5827	23.466
3.5802	23.464
3.5777	23.460
3.5753	23.454
3.5728	23.445
3.5704	23.434
3.5679	23.421
3.5654	23.408
3.5630	23.396
3.5605	23.386
3.5581	23.378
3.5557	23.372
3.5532	23.368
3.5508	23.363
3.5484	23.356
3.5459	23.348
3.5435	23.339
3.5411	23.329
3.5387	23.319
3.5363	23.309
3.5338	23.298
3.5314	23.284
3.5290	23.269
3.5266	23.253
3.5242	23.237
3.5218	23.223
3.5195	23.213
3.5171	23.207
3.5147	23.203
3.5123	23.199
3.5099	23.192
3.5075	23.181
3.5052	23.166
3.5028	23.149
3.5004	23.132
3.4981	23.118
3.4957	23.107
3.4934	23.098
3.4910	23.092
3.4887	23.086
3.4863	23.080
3.4840	23.075
3.4816	23.070
3.4793	23.066
3.4770	23.063
3.4746	23.059
3.4723	23.055
3.4700	23.049
3.4677	23.039
3.4653	23.026
3.4630	23.009
3.4607	22.989
3.4584	22.966
3.4561	22.941
3.4538	22.917
3.4515	22.894
3.4492	22.873
3.4469	22.854
3.4446	22.837
3.4423	22.822
3.4400	22.808
3.4378	22.795
3.4355	22.783
3.4332	22.770
3.4309	22.757
3.4287	22.742
3.4264	22.724
3.4241	22.706
3.4219	22.686
3.4196	22.668
3.4174	22.652
3.4151	22.638
3.4129	22.627
3.4106	22.615
3.4084	22.601
3.4061	22.584
3.4039	22.564
3.4017	22.541
3.3994	22.517
3.3972	22.493
3.3950	22.472
3.3928	22.452
3.3906	22.434
3.3883	22.414
3.3861	22.392
3.3839	22.366
3.3817	22.337
3.3795	22.308
3.3773	22.279
3.3751	22.252
3.3729	22.228
3.3707	22.207
3.3685	22.188
3.3663	22.169
3.3641	22.150
3.3620	22.130
3.3598	22.109
3.3576	22.088
3.3554	22.066
3.3533	22.042
3.3511	22.018
3.3489	21.993
3.3468	21.967
3.3446	21.941
3.3425	21.915
3.3403	21.889
3.3382	21.863
3.3360	21.837
3.3339	21.812
3.3317	21.787
3.3296	21.762
3.3274	21.737
3.3253	21.712
3.3232	21.687
3.3210	21.662
3.3189	21.637
3.3168	21.613
3.3147	21.589
3.3126	21.565
3.3104	21.540
3.3083	21.513
3.3062	21.485
3.3041	21.454
3.3020	21.421
3.2999	21.388
3.2978	21.353
3.2957	21.318
3.2936	21.283
3.2915	21.248
3.2894	21.213
3.2874	21.180
3.2853	21.148
3.2832	21.117
3.2811	21.087
3.2790	21.055
3.2770	21.021
3.2749	20.984
3.2728	20.945
3.2708	20.906
3.2687	20.869
3.2666	20.834
3.2646	20.801
3.2625	20.769
3.2605	20.736
3.2584	20.701
3.2564	20.662
3.2543	20.622
3.2523	20.582
3.2503	20.543
3.2482	20.508
3.2462	20.476
3.2442	20.446
3.2421	20.415
3.2401	20.382
3.2381	20.346
3.2361	20.305
3.2340	20.261
3.2320	20.215
3.2300	20.170
3.2280	20.128
3.2260	20.089
3.2240	20.054
3.2220	20.021
3.2200	19.989
3.2180	19.956
3.2160	19.923
3.2140	19.886
3.2120	19.847
3.2100	19.806
3.2080	19.763
3.2060	19.720
3.2040	19.677
3.2021	19.634
3.2001	19.593
3.1981	19.554
3.1961	19.516
3.1942	19.480
3.1922	19.445
3.1902	19.410
3.1883	19.374
3.1863	19.338
3.1844	19.301
3.1824	19.265
3.1805	19.230
3.1785	19.194
3.1766	19.159
3.1746	19.122
3.1727	19.084
3.1707	19.047
3.1688	19.010
3.1669	18.975
3.1649	18.942
3.1630	18.912
3.1611	18.882
3.1591	18.851
3.1572	18.819
3.1553	18.787
3.1534	18.756
3.1515	18.727
3.1495	18.701
3.1476	18.676
3.1457	18.652
3.1438	18.626
3.1419	18.598
3.1400	18.568
3.1381	18.537
3.1362	18.507
3.1343	18.481
3.1324	18.458
3.1305	18.439
3.1286	18.420
3.1268	18.400
3.1249	18.377
3.1230	18.349
3.1211	18.318
3.1192	18.287
3.1174	18.257
3.1155	18.230
3.1136	18.206
3.1117	18.183
3.1099	18.161
3.1080	18.139
3.1061	18.118
3.1043	18.098
3.1024	18.080
3.1006	18.062
3.0987	18.044
3.0969	18.024
3.0950	18.003
3.0932	17.980
3.0913	17.959
3.0895	17.941
3.0876	17.928
3.0858	17.920
3.0840	17.914
3.0821	17.909
3.0803	17.900
3.0785	17.889
3.0766	17.876
3.0748	17.862
3.0730	17.849
3.0712	17.837
3.0694	17.826
3.0675	17.812
3.0657	17.795
3.0639	17.775
3.0621	17.754
3.0603	17.734
3.0585	17.717
3.0567	17.703
3.0549	17.690
3.0531	17.676
3.0513	17.658
3.0495	17.637
3.0477	17.613
3.0459	17.588
3.0441	17.564
3.0423	17.543
3.0406	17.524
3.0388	17.507
3.0370	17.492
3.0352	17.476
3.0334	17.460
3.0317	17.445
3.0299	17.432
3.0281	17.421
3.0264	17.410
3.0246	17.398
3.0228	17.383
3.0211	17.363
3.0193	17.337
3.0176	17.308
3.0158	17.277
3.0140	17.247
3.0123	17.220
3.0105	17.197
3.0088	17.177
3.0070	17.158
3.0053	17.137
3.0036	17.112
3.0018	17.083
3.0001	17.048
2.9984	17.010
2.9966	16.971
2.9949	16.933
2.9932	16.897
2.9914	16.866
2.9897	16.839
2.9880	16.813
2.9863	16.787
2.9845	16.760
2.9828	16.731
2.9811	16.699
2.9794	16.663
2.9777	16.626
2.9760	16.588
2.9743	16.549
2.9726	16.509
2.9709	16.471
2.9692	16.435
2.9675	16.402
2.9658	16.372
2.9641	16.342
2.9624	16.312
2.9607	16.280
2.9590	16.245
2.9573	16.206
2.9556	16.168
2.9539	16.131
2.9523	16.098
2.9506	16.069
2.9489	16.043
2.9472	16.017
2.9455	15.988
2.9439	15.955
2.9422	15.917
2.9405	15.876
2.9389	15.835
2.9372	15.798
2.9355	15.765
2.9339	15.737
2.9322	15.712
2.9306	15.688
2.9289	15.664
2.9272	15.641
2.9256	15.617
2.9239	15.596
2.9223	15.577
2.9207	15.561
2.9190	15.549
2.9174	15.539
2.9157	15.531
2.9141	15.525
2.9124	15.520
2.9108	15.517
2.9092	15.515
2.9075	15.514
2.9059	15.516
2.9043	15.521
2.9027	15.530
2.9010	15.545
2.8994	15.566
2.8978	15.590
2.8962	15.616
2.8946	15.641
2.8929	15.664
2.8913	15.684
2.8897	15.702
2.8881	15.719
2.8865	15.737
2.8849	15.754
2.8833	15.773
2.8817	15.791
2.8801	15.807
2.8785	15.821
2.8769	15.830
2.8753	15.837
2.8737	15.840
2.8721	15.842
2.8705	15.842
2.8689	15.842
2.8673	15.844
2.8658	15.844
2.8642	15.844
2.8626	15.841
2.8610	15.833
2.8594	15.819
2.8579	15.799
2.8563	15.771
2.8547	15.737
2.8531	15.697
2.8516	15.652
2.8500	15.604
2.8484	15.552
2.8469	15.498
2.8453	15.442
2.8437	15.381
2.8422	15.316
2.8406	15.246
2.8391	15.172
2.8375	15.095
2.8360	15.015
2.8344	14.931
2.8329	14.842
2.8313	14.745
2.8298	14.640
2.8282	14.525
2.8267	14.399
2.8252	14.262
2.8236	14.115
2.8221	13.957
2.8205	13.789
2.8190	13.610
2.8175	13.417
2.8159	13.211
2.8144	12.986
2.8129	12.740
2.8114	12.472
2.8098	12.183
2.8083	11.876
2.8068	11.556
2.8053	11.229
2.8038	10.898
2.8022	10.566
2.8007	10.231
2.7992	9.8906
2.7977	9.5420
2.7962	9.1830
2.7947	8.8131
2.7932	8.4344
2.7917	8.0522
2.7902	7.6738
2.7887	7.3081
2.7872	6.9640
2.7857	6.6481
2.7842	6.3642
2.7827	6.1125
2.7812	5.8887
2.7797	5.6867
2.7782	5.4989
2.7767	5.3182
2.7752	5.1391
2.7738	4.9584
2.7723	4.7759
2.7708	4.5935
2.7693	4.4147
2.7678	4.2447
2.7664	4.0874
2.7649	3.9470
2.7634	3.8255
2.7619	3.7246
2.7605	3.6455
2.7590	3.5889
2.7575	3.5565
2.7561	3.5496
2.7546	3.5688
2.7531	3.6122
2.7517	3.6756
2.7502	3.7528
2.7488	3.8364
2.7473	3.9193
2.7458	3.9967
2.7444	4.0678
2.7429	4.1346
2.7415	4.2025
2.7400	4.2793
2.7386	4.3733
2.7371	4.4926
2.7357	4.6451
2.7343	4.8374
2.7328	5.0747
2.7314	5.3613
2.7299	5.7018
2.7285	6.1020
2.7271	6.5695
2.7256	7.1118
2.7242	7.7356
2.7228	8.4406
2.7213	9.2173
2.7199	10.045
2.7185	10.890
2.7171	11.719
2.7156	12.494
2.7142	13.189
2.7128	13.787
2.7114	14.283
2.7100	14.684
2.7085	15.002
2.7071	15.253
2.7057	15.458
2.7043	15.638
2.7029	15.817
2.7015	16.022
2.7001	16.273
2.6987	16.586
2.6973	16.970
2.6959	17.424
2.6945	17.937
2.6931	18.494
2.6917	19.072
2.6903	19.645
2.6889	20.190
2.6875	20.684
2.6861	21.112
2.6847	21.466
2.6833	21.748
2.6819	21.967
2.6805	22.136
2.6791	22.269
2.6778	22.376
2.6764	22.462
2.6750	22.528
2.6736	22.574
2.6722	22.603
2.6709	22.626
2.6695	22.656
2.6681	22.707
2.6667	22.791
2.6654	22.910
2.6640	23.053
2.6626	23.206
2.6613	23.348
2.6599	23.467
2.6585	23.556
2.6572	23.617
2.6558	23.660
2.6545	23.694
2.6531	23.727
2.6517	23.762
2.6504	23.798
2.6490	23.832
2.6477	23.860
2.6463	23.884
2.6450	23.907
2.6436	23.931
2.6423	23.958
2.6409	23.983
2.6396	24.002
2.6382	24.005
2.6369	23.986
2.6356	23.946
2.6342	23.891
2.6329	23.835
2.6315	23.791
2.6302	23.770
2.6289	23.774
2.6275	23.798
2.6262	23.828
2.6249	23.850
2.6236	23.855
2.6222	23.843
2.6209	23.822
2.6196	23.807
2.6183	23.810
2.6169	23.837
2.6156	23.883
2.6143	23.933
2.6130	23.970
2.6117	23.982
2.6103	23.965
2.6090	23.930
2.6077	23.897
2.6064	23.884
2.6051	23.899
2.6038	23.939
2.6025	23.983
2.6012	24.008
2.5999	23.999
2.5986	23.955
2.5973	23.895
2.5960	23.847
2.5947	23.834
2.5934	23.866
2.5921	23.935
2.5908	24.019
2.5895	24.091
2.5882	24.138
2.5869	24.157
2.5856	24.160
2.5843	24.164
2.5830	24.180
2.5817	24.210
2.5805	24.249
2.5792	24.285
2.5779	24.309
2.5766	24.319
2.5753	24.320
2.5741	24.318
2.5728	24.321
2.5715	24.331
2.5702	24.346
2.5690	24.359
2.5677	24.364
2.5664	24.360
2.5651	24.351
2.5639	24.347
2.5626	24.355
2.5613	24.379
2.5601	24.417
2.5588	24.460
2.5575	24.499
2.5563	24.526
2.5550	24.539
2.5538	24.541
2.5525	24.540
2.5513	24.542
2.5500	24.551
2.5487	24.567
2.5475	24.588
2.5462	24.609
2.5450	24.627
2.5437	24.639
2.5425	24.643
2.5413	24.641
2.5400	24.633
2.5388	24.622
2.5375	24.609
2.5363	24.597
2.5350	24.589
2.5338	24.586
2.5326	24.587
2.5313	24.592
2.5301	24.599
2.5289	24.605
2.5276	24.609
2.5264	24.608
2.5252	24.601
2.5239	24.590
2.5227	24.575
2.5215	24.559
2.5202	24.545
2.5190	24.532
2.5178	24.522
2.5166	24.514
2.5154	24.505
2.5141	24.496
2.5129	24.486
2.5117	24.475
2.5105	24.463
2.5093	24.449
2.5081	24.432
2.5068	24.414
2.5056	24.396
2.5044	24.381
2.5032	24.372
2.5020	24.369
2.5008	24.370
2.4996	24.374
2.4984	24.376
2.4972	24.375
2.4960	24.370
2.4948	24.361
2.4936	24.349
2.4924	24.338
2.4912	24.326
2.4900	24.316
2.4888	24.306
2.4876	24.296
2.4864	24.286
2.4852	24.276
2.4840	24.268
2.4828	24.263
2.4816	24.259
2.4805	24.258
2.4793	24.258
2.4781	24.257
2.4769	24.253
2.4757	24.246
2.4745	24.237
2.4734	24.225
2.4722	24.212
2.4710	24.199
2.4698	24.185
2.4686	24.169
2.4675	24.153
2.4663	24.135
2.4651	24.117
2.4640	24.097
2.4628	24.078
2.4616	24.059
2.4604	24.042
2.4593	24.027
2.4581	24.015
2.4569	24.006
2.4558	23.997
2.4546	23.988
2.4535	23.976
2.4523	23.962
2.4511	23.945
2.4500	23.927
2.4488	23.913
2.4477	23.904
2.4465	23.901
2.4454	23.904
2.4442	23.910
2.4431	23.918
2.4419	23.925
2.4408	23.930
2.4396	23.931
2.4385	23.932
2.4373	23.933
2.4362	23.937
2.4350	23.944
2.4339	23.957
2.4327	23.974
2.4316	23.993
2.4305	24.011
2.4293	24.026
2.4282	24.039
2.4270	24.050
2.4259	24.062
2.4248	24.079
2.4236	24.100
2.4225	24.125
2.4214	24.153
2.4202	24.179
2.4191	24.203
2.4180	24.223
2.4169	24.241
2.4157	24.257
2.4146	24.271
2.4135	24.285
2.4124	24.297
2.4112	24.304
2.4101	24.306
2.4090	24.305
2.4079	24.301
2.4068	24.298
2.4056	24.298
2.4045	24.302
2.4034	24.312
2.4023	24.324
2.4012	24.336
2.4001	24.347
2.3990	24.353
2.3979	24.354
2.3967	24.350
2.3956	24.343
2.3945	24.336
2.3934	24.329
2.3923	24.325
2.3912	24.323
2.3901	24.321
2.3890	24.318
2.3879	24.315
2.3868	24.312
2.3857	24.310
2.3846	24.311
2.3835	24.313
2.3824	24.316
2.3813	24.316
2.3802	24.313
2.3791	24.306
2.3781	24.300
2.3770	24.295
2.3759	24.296
2.3748	24.302
2.3737	24.314
2.3726	24.328
2.3715	24.341
2.3704	24.352
2.3694	24.359
2.3683	24.363
2.3672	24.363
2.3661	24.362
2.3650	24.360
2.3640	24.357
2.3629	24.351
2.3618	24.341
2.3607	24.326
2.3597	24.304
2.3586	24.279
2.3575	24.252
2.3564	24.226
2.3554	24.205
2.3543	24.190
2.3532	24.179
2.3522	24.172
2.3511	24.165
2.3500	24.157
2.3490	24.148
2.3479	24.142
2.3468	24.142
2.3458	24.149
2.3447	24.167
2.3436	24.192
2.3426	24.222
2.3415	24.252
2.3405	24.279
2.3394	24.301
2.3384	24.318
2.3373	24.332
2.3363	24.345
2.3352	24.360
2.3342	24.380
2.3331	24.403
2.3321	24.429
2.3310	24.456
2.3300	24.481
2.3289	24.504
2.3279	24.525
2.3268	24.545
2.3258	24.566
2.3247	24.591
2.3237	24.620
2.3226	24.653
2.3216	24.690
2.3206	24.726
2.3195	24.762
2.3185	24.795
2.3175	24.824
2.3164	24.850
2.3154	24.874
2.3144	24.899
2.3133	24.923
2.3123	24.950
2.3113	24.978
2.3102	25.005
2.3092	25.030
2.3082	25.052
2.3071	25.069
2.3061	25.083
2.3051	25.093
2.3041	25.100
2.3030	25.105
2.3020	25.107
2.3010	25.107
2.3000	25.106
2.2990	25.104
2.2979	25.104
2.2969	25.110
2.2959	25.124
2.2949	25.144
2.2939	25.168
2.2929	25.192
2.2918	25.209
2.2908	25.217
2.2898	25.216
2.2888	25.208
2.2878	25.198
2.2868	25.190
2.2858	25.188
2.2848	25.193
2.2838	25.205
2.2828	25.221
2.2818	25.240
2.2808	25.259
2.2798	25.278
2.2787	25.296
2.2777	25.312
2.2767	25.323
2.2757	25.329
2.2747	25.327
2.2738	25.318
2.2728	25.302
2.2718	25.283
2.2708	25.263
2.2698	25.247
2.2688	25.236
2.2678	25.229
2.2668	25.225
2.2658	25.221
2.2648	25.216
2.2638	25.209
2.2628	25.202
2.2618	25.195
2.2609	25.188
2.2599	25.180
2.2589	25.168
2.2579	25.151
2.2569	25.127
2.2559	25.097
2.2550	25.063
2.2540	25.028
2.2530	24.996
2.2520	24.969
2.2510	24.950
2.2501	24.937
2.2491	24.931
2.2481	24.927
2.2471	24.925
2.2462	24.920
2.2452	24.910
2.2442	24.893
2.2433	24.870
2.2423	24.844
2.2413	24.818
2.2403	24.797
2.2394	24.785
2.2384	24.782
2.2374	24.785
2.2365	24.792
2.2355	24.796
2.2345	24.795
2.2336	24.787
2.2326	24.772
2.2317	24.754
2.2307	24.739
2.2297	24.729
2.2288	24.729
2.2278	24.734
2.2269	24.740
2.2259	24.739
2.2250	24.726
2.2240	24.698
2.2231	24.658
2.2221	24.612
2.2211	24.565
2.2202	24.522
2.2192	24.483
2.2183	24.447
2.2173	24.412
2.2164	24.373
2.2155	24.329
2.2145	24.278
2.2136	24.222
2.2126	24.163
2.2117	24.104
2.2107	24.046
2.2098	23.992
2.2088	23.943
2.2079	23.900
2.2070	23.863
2.2060	23.830
2.2051	23.802
2.2041	23.778
2.2032	23.757
2.2023	23.741
2.2013	23.731
2.2004	23.730
2.1995	23.740
2.1985	23.765
2.1976	23.805
2.1967	23.859
2.1957	23.922
2.1948	23.991
2.1939	24.059
2.1930	24.122
2.1920	24.178
2.1911	24.229
2.1902	24.279
2.1893	24.332
2.1883	24.390
2.1874	24.455
2.1865	24.527
2.1856	24.602
2.1846	24.677
2.1837	24.747
2.1828	24.809
2.1819	24.862
2.1810	24.904
2.1800	24.940
2.1791	24.970
2.1782	24.998
2.1773	25.027
2.1764	25.060
2.1755	25.095
2.1746	25.133
2.1736	25.170
2.1727	25.203
2.1718	25.228
2.1709	25.244
2.1700	25.249
2.1691	25.246
2.1682	25.238
2.1673	25.229
2.1664	25.223
2.1655	25.222
2.1646	25.226
2.1637	25.235
2.1628	25.247
2.1619	25.260
2.1610	25.277
2.1601	25.296
2.1592	25.317
2.1583	25.337
2.1574	25.355
2.1565	25.368
2.1556	25.374
2.1547	25.373
2.1538	25.368
2.1529	25.363
2.1520	25.360
2.1511	25.361
2.1502	25.369
2.1493	25.380
2.1484	25.394
2.1475	25.407
2.1466	25.416
2.1458	25.420
2.1449	25.420
2.1440	25.417
2.1431	25.413
2.1422	25.410
2.1413	25.411
2.1404	25.415
2.1396	25.422
2.1387	25.431
2.1378	25.438
2.1369	25.441
2.1360	25.438
2.1352	25.426
2.1343	25.407
2.1334	25.384
2.1325	25.362
2.1316	25.348
2.1308	25.346
2.1299	25.355
2.1290	25.372
2.1281	25.390
2.1273	25.401
2.1264	25.403
2.1255	25.397
2.1247	25.387
2.1238	25.380
2.1229	25.380
2.1220	25.389
2.1212	25.403
2.1203	25.416
2.1194	25.424
2.1186	25.423
2.1177	25.410
2.1168	25.388
2.1160	25.360
2.1151	25.330
2.1143	25.304
2.1134	25.287
2.1125	25.282
2.1117	25.290
2.1108	25.311
2.1100	25.341
2.1091	25.376
2.1082	25.413
2.1074	25.445
2.1065	25.473
2.1057	25.492
2.1048	25.504
2.1040	25.506
2.1031	25.501
2.1023	25.489
2.1014	25.473
2.1005	25.455
2.0997	25.441
2.0988	25.432
2.0980	25.430
2.0971	25.433
2.0963	25.441
2.0955	25.451
2.0946	25.459
2.0938	25.465
2.0929	25.466
2.0921	25.464
2.0912	25.459
2.0904	25.453
2.0895	25.447
2.0887	25.443
2.0879	25.443
2.0870	25.447
2.0862	25.458
2.0853	25.479
2.0845	25.496
2.0837	25.528
2.0828	25.556
2.0820	25.550
2.0812	25.620
2.0803	25.552
2.0795	25.512
2.0760	25.512
2.0720	25.607
2.0680	25.586
2.0640	25.492
2.0600	25.471
2.0560	25.492
2.0520	25.566
2.0480	25.505
2.0440	25.484
2.0400	25.464
2.0360	25.403
2.0320	25.303
2.0280	25.243
2.0240	25.263
2.0200	25.209
2.0160	25.190
2.0120	25.130
2.0080	25.184
2.0040	25.144
2.0000	25.124
1.9960	25.066
1.9920	25.085
1.9880	25.046
1.9840	24.953
1.9800	24.915
1.9760	24.856
1.9720	24.837
1.9680	24.910
1.9640	24.871
1.9600	24.929
1.9560	24.949
1.9520	24.929
1.9480	24.818
1.9440	24.818
1.9400	24.837
1.9360	24.822
1.9320	24.893
1.9280	24.625
1.9240	24.683
1.9200	24.590
1.9160	24.571
1.9120	24.571
1.9080	24.664
1.9040	24.615
1.9000	24.653
1.8960	24.646
1.8920	24.642
1.8880	24.504
1.8840	24.429
1.8800	24.623
1.8760	24.722
1.8720	24.861
1.8680	24.807
1.8640	24.749
1.8600	24.669
1.8560	24.623
1.8520	24.767
1.8480	24.522
1.8440	24.582
1.8400	24.680
1.8360	24.737
1.8320	24.752
1.8280	24.616
1.8240	24.647
1.8200	24.607
1.8160	24.588
1.8120	24.533
1.8080	24.514
1.8040	24.480
1.8000	24.570
1.7960	24.477
1.7920	24.514
1.7880	24.533
1.7840	24.443
1.7800	24.570
1.7760	24.622
1.7720	24.406
1.7680	24.200
1.7640	24.200
1.7600	24.120
1.7560	24.012
1.7520	24.048
1.7480	24.012
1.7440	24.155
1.7400	24.370
1.7360	24.625
1.7320	24.591
1.7280	24.629
1.7240	24.629
1.7200	24.591
1.7160	24.498
1.7120	24.697
1.7080	24.489
1.7040	24.514
1.7000	24.432
1.6960	24.397
1.6920	24.254
1.6880	24.379
1.6840	24.252
1.6800	24.477
1.6760	24.496
1.6720	24.416
1.6680	24.290
1.6640	24.129
1.6600	24.147
1.6560	24.111
1.6520	24.022
1.6480	24.075
1.6440	24.238
1.6400	24.165
1.6360	24.076
1.6320	24.220
1.6280	24.363
1.6240	24.326
1.6200	24.111
1.6160	24.039
1.6120	24.022
1.6080	24.129
1.6040	24.220
1.6000	24.238
1.5960	24.184
1.5920	24.238
1.5880	24.220
1.5840	24.238
1.5800	24.311
1.5760	24.293
1.5720	24.346
1.5680	24.005
1.5640	23.792
1.5600	23.793
1.5560	23.758
1.5520	23.828
1.5480	23.899
1.5440	24.059
1.5400	23.971
1.5360	24.130
1.5320	24.005
1.5280	24.202
1.5240	24.148
1.5200	24.077
1.5160	24.041
1.5120	23.916
1.5080	24.077
1.5040	24.095
1.5000	24.094
1.4960	23.857
1.4920	23.744
1.4880	23.764
1.4840	23.729
1.4800	23.659
1.4760	23.624
1.4720	23.607
1.4680	23.727
1.4640	23.797
1.4600	23.816
1.4560	23.889
1.4520	23.925
1.4480	23.872
1.4440	23.943
1.4400	23.861
1.4360	23.896
1.4320	23.932
1.4280	23.806
1.4240	23.663
1.4200	23.466
1.4160	23.376
1.4120	23.282
1.4080	23.214
1.4040	23.118
1.4000	23.035
1.3960	23.052
1.3920	23.166
1.3880	23.244
1.3840	23.317
1.3800	23.617
1.3760	23.706
1.3720	23.777
1.3680	23.745
1.3640	23.777
1.3600	23.716
1.3560	23.863
1.3520	23.780
1.3480	23.680
1.3440	23.646
1.3400	23.650
1.3360	23.684
1.3320	23.697
1.3280	23.553
1.3240	23.669
1.3200	23.766
1.3160	23.669
1.3120	23.652
1.3080	23.652
1.3040	23.618
1.3000	23.618
1.2960	23.440
1.2920	23.491
1.2880	23.524
1.2840	23.520
1.2800	23.550
1.2760	23.653
1.2720	23.653
1.2680	23.705
1.2640	23.657
1.2600	23.657
1.2560	23.622
1.2520	23.622
1.2480	23.696
1.2440	23.593
1.2400	23.510
1.2360	23.618
1.2320	23.635
1.2280	23.613
1.2240	23.545
1.2200	23.437
1.2160	23.562
1.2120	23.510
1.2080	23.443
1.2040	23.443
1.2000	23.443
1.1960	23.344
1.1920	23.384
1.1880	23.206
1.1840	23.369
1.1800	23.352
1.1760	23.392
1.1720	23.359
1.1680	23.270
1.1640	23.190
1.1600	23.319
1.1560	23.222
1.1520	23.207
1.1480	23.553
1.1440	23.570
1.1400	23.587
1.1360	23.454
1.1320	23.494
1.1280	23.421
1.1240	23.471
1.1200	23.388
1.1160	23.405
1.1120	23.596
1.1080	23.579
1.1040	23.422
1.1000	23.545
1.0960	23.654
1.0920	23.553
1.0880	23.603
1.0840	23.796
1.0800	23.610
1.0760	23.660
1.0720	23.602
1.0680	23.461
1.0640	23.396
1.0600	23.462
1.0560	23.331
1.0520	23.299
1.0480	23.488
1.0440	23.789
1.0400	23.873
1.0360	23.867
1.0320	23.867
1.0280	23.800
1.0240	23.924
1.0200	23.833
1.0160	23.669
1.0120	23.733
1.0080	23.800
1.0040	23.924
1.0000	23.840
0.99600	23.831
0.99200	23.854
0.98800	23.918
0.98400	23.960
0.98000	24.066
0.97600	23.921
0.97200	23.873
0.96800	23.938
0.96400	24.006
0.96000	23.848
0.95600	23.955
0.95200	23.814
0.94800	23.904
0.94400	23.994
0.94000	23.870
0.93600	23.926
0.93200	23.943
0.92800	23.931
0.92400	23.939
0.92000	23.842
0.91600	23.905
0.91200	23.977
0.90800	23.922
0.90400	23.888
0.90000	24.011
0.89600	23.905
0.89200	23.905
0.88800	23.922
0.88400	23.956
0.88000	23.946
0.87600	24.088
0.87200	24.118
0.86800	23.993
0.86400	24.045
0.86000	24.244
0.85600	24.132
0.85200	24.149
0.84800	24.168
0.84400	24.019
0.84000	24.201
0.83600	24.289
0.83200	24.240
0.82800	24.222
0.82400	24.261
0.82000	24.457
0.81600	24.217
0.81200	24.401
0.80800	24.526
0.80400	24.671
0.80000	24.797
0.79900	24.797
0.79800	24.797
0.79700	24.777
0.79600	24.817
0.79500	25.012
0.79400	25.086
0.79300	24.971
0.79200	24.992
0.79100	25.066
0.79000	24.912
0.78900	24.992
0.78800	24.950
0.78700	24.971
0.78600	24.910
0.78500	24.992
0.78400	25.184
0.78300	25.184
0.78200	24.889
0.78100	25.080
0.78000	25.184
0.77900	25.246
0.77800	24.815
0.77700	24.871
0.77600	24.619
0.77500	24.962
0.77400	25.059
0.77300	24.962
0.77200	25.035
0.77100	24.942
0.77000	24.788
0.76900	24.647
0.76800	25.035
0.76700	25.160
0.76600	25.160
0.76500	25.056
0.76400	25.071
0.76300	24.848
0.76200	24.810
0.76100	25.036
0.76000	24.883
0.75900	24.725
0.75800	24.821
0.75700	24.821
0.75600	24.807
0.75500	24.889
0.75400	24.770
0.75300	24.649
0.75200	24.766
0.75100	24.669
0.75000	24.532
0.74900	24.710
0.74800	24.710
0.74700	24.710
0.74600	24.669
0.74500	24.710
0.74400	24.877
0.74300	24.588
0.74200	24.356
0.74100	24.428
0.74000	24.409
0.73900	24.694
0.73800	24.402
0.73700	24.419
0.73600	24.546
0.73500	24.322
0.73400	24.500
0.73300	24.669
0.73200	25.000
0.73100	24.874
0.73000	24.718
0.72900	24.939
0.72800	24.710
0.72700	24.689
0.72600	24.751
0.72500	24.751
0.72400	24.571
0.72300	24.669
0.72200	24.701
0.72100	24.592
0.72000	24.504
0.71900	24.820
0.71800	24.743
0.71700	24.819
0.71600	24.735
0.71500	24.610
0.71400	24.707
0.71300	24.556
0.71200	24.670
0.71100	24.616
0.71000	24.798
0.70900	24.539
0.70800	24.679
0.70700	24.554
0.70600	24.693
0.70500	24.616
0.70400	24.580
0.70300	24.712
0.70200	24.614
0.70100	24.520
0.70000	24.622
0.69900	24.910
0.69800	24.668
0.69700	24.848
0.69600	24.662
0.69500	24.704
0.69400	24.704
0.69300	24.683
0.69200	24.619
0.69100	24.604
0.69000	24.783
0.68900	24.948
0.68800	24.805
0.68700	24.604
0.68600	24.805
0.68500	24.747
0.68400	24.704
0.68300	24.704
0.68200	24.583
0.68100	24.583
0.68000	24.748
0.67900	24.769
0.67800	24.748
0.67700	24.504
0.67600	24.704
0.67500	24.769
0.67400	24.367
0.67300	24.468
0.67200	24.383
0.67100	24.510
0.67000	24.590
0.66900	24.712
0.66800	24.690
0.66700	24.589
0.66600	24.468
0.66500	24.346
0.66400	24.283
0.66300	24.262
0.66200	24.452
0.66100	24.351
0.66000	24.510
0.65900	24.720
0.65800	24.619
0.65700	24.474
0.65600	24.368
0.65500	24.288
0.65400	24.146
0.65300	24.304
0.65200	24.204
0.65100	24.362
0.65000	24.121
0.64900	24.059
0.64800	24.158
0.64700	24.388
0.64600	24.720
0.64500	24.517
0.64400	24.922
0.64300	24.676
0.64200	24.468
0.64100	24.346
0.64000	24.496
0.63900	24.253
0.63800	24.188
0.63700	24.083
0.63600	23.722
0.63500	23.983
0.63400	24.004
0.63300	23.983
0.63200	23.962
0.63100	23.865
0.63000	24.204
0.62900	24.062
0.62800	23.942
0.62700	23.942
0.62600	24.062
0.62500	24.167
0.62400	23.945
0.62300	24.083
0.62200	24.141
0.62100	24.319
0.62000	24.289
0.61900	24.438
0.61800	24.444
0.61700	24.380
0.61600	24.113
0.61500	24.273
0.61400	23.987
0.61300	23.904
0.61200	23.970
0.61100	24.012
0.61000	23.991
0.60900	23.869
0.60800	23.949
0.60700	23.747
0.60600	23.686
0.60500	23.767
0.60400	23.767
0.60300	23.810
0.60200	23.670
0.60100	23.670
0.60000	23.693
0.59900	23.550
0.59800	23.509
0.59700	23.510
0.59600	23.779
0.59500	23.593
0.59400	23.550
0.59300	23.718
0.59200	23.783
0.59100	23.658
0.59000	23.551
0.58900	23.595
0.58800	23.679
0.58700	23.637
0.58600	23.679
0.58500	23.469
0.58400	23.201
0.58300	23.553
0.58200	23.241
0.58100	23.118
0.58000	23.389
0.57900	23.327
0.57800	23.410
0.57700	23.327
0.57600	23.327
0.57500	23.347
0.57400	23.203
0.57300	23.283
0.57200	23.304
0.57100	23.284
0.57000	23.001
0.56900	22.778
0.56800	22.981
0.56700	22.958
0.56600	22.878
0.56500	22.757
0.56400	22.717
0.56300	22.594
0.56200	22.777
0.56100	22.777
0.56000	22.962
0.55900	22.833
0.55800	22.833
0.55700	23.190
0.55600	23.056
0.55500	22.922
0.55400	22.957
0.55300	23.055
0.55200	22.814
0.55100	22.768
0.55000	22.624
0.54900	22.930
0.54800	22.822
0.54700	22.804
0.54600	22.694
0.54500	22.630
0.54400	22.658
0.54300	22.766
0.54200	22.885
0.54100	22.583
0.54000	22.684
0.53900	22.709
0.53800	22.728
0.53700	22.572
0.53600	22.572
0.53500	22.352
0.53400	22.287
0.53300	22.112
0.53200	21.991
0.53100	21.875
0.53000	22.008
0.52900	21.895
0.52800	21.896
0.52700	21.779
0.52600	21.678
0.52500	21.678
0.52400	21.511
0.52300	21.461
0.52200	21.579
0.52100	21.562
0.52000	21.460
0.51900	21.342
0.51800	21.394
0.51700	21.310
0.51600	21.394
0.51500	21.443
0.51400	21.192
0.51300	21.108
0.51200	21.012
0.51100	20.796
0.51000	20.859
0.50900	20.727
0.50800	20.806
0.50700	20.901
0.50600	20.682
0.50500	20.736
0.50400	20.666
0.50300	20.847
0.50200	20.784
0.50100	20.850
0.50000	20.661
0.49900	20.605
0.49800	20.232
0.49700	20.146
0.49600	20.086
0.49500	20.131
0.49400	20.001
0.49300	19.944
0.49200	20.019
0.49100	20.095
0.49000	20.019
0.48900	20.018
0.48800	19.828
0.48700	19.843
0.48600	19.568
0.48500	19.405
0.48400	19.509
0.48300	19.552
0.48200	19.278
0.48100	19.380
0.48000	19.299
0.47900	19.327
0.47800	19.370
0.47700	19.115
0.47600	19.170
0.47500	19.142
0.47400	19.225
0.47300	19.093
0.47200	18.964
0.47100	19.025
0.47000	19.025
0.46900	18.931
0.46800	19.011
0.46700	18.855
0.46600	18.970
0.46500	18.842
0.46400	18.922
0.46300	18.935
0.46200	18.975
0.46100	18.805
0.46000	18.637
0.45900	19.158
0.45800	19.240
0.45700	19.075
0.45600	19.307
0.45500	19.267
0.45400	19.251
0.45300	19.404
0.45200	19.353
0.45100	19.300
0.45000	19.367
0.44900	19.407
0.44800	19.158
0.44700	19.172
0.44600	18.833
0.44500	18.933
0.44400	18.833
0.44300	18.512
0.44200	18.453
0.44100	18.660
0.44000	18.445
0.43900	18.365
0.43800	18.413
0.43700	18.292
0.43600	18.297
0.43500	18.425
0.43400	18.316
0.43300	17.986
0.43200	17.997
0.43100	17.822
0.43000	17.739
0.42900	17.767
0.42800	17.734
0.42700	17.657
0.42600	17.712
0.42500	17.471
0.42400	17.387
0.42300	17.556
0.42200	17.143
0.42100	17.052
0.42000	17.343
0.41900	17.178
0.41800	17.032
0.41700	16.770
0.41600	16.660
0.41500	16.866
0.41400	16.799
0.41300	16.650
0.41200	16.474
0.41100	16.219
0.41000	16.109
0.40900	16.245
0.40800	16.482
0.40700	16.491
0.40600	16.184
0.40500	16.061
0.40400	16.086
0.40300	16.086
0.40200	16.095
0.40100	16.006
0.40000	16.013
