Name: Clinozoisite Ca2Al3(SiO4)3(OH)
Type:  Mineral
Class:   Silicates 
Subclass:   Sorosilicates (Epidote Group)
Particle Size:  Solid (cleavage face)
Sample No.:  clinozo.1
Owner:  JHU
Wavelength Range:  IR
Origin:  Sample from Baja California, Mexico via Smithsonian (sample 
no. NMNH 112513-2.
Description: The sample was one large (2.5 cm x 2 cm x 2 cm) crystal 
with good crystal faces, weighing 19 g.  It was dark gray in color, 
with <<1% limonitic surface contamination, which was easily removed.  
Under the microscope the sample appears to be pure and free from 
alteration.

Measurement:  Bidirectional reflectance 
First Column:  X
Second Column:  Y  
X Units:  Wavelength (micrometers)
Y Units:  Reflectance (percent)
First X Value:  25.0442
Last X Value:  2.079
Number of X Values:  2287
Additional Information: clinoz1a.txt

25.044	38.398
24.924	40.066
24.805	41.605
24.686	43.337
24.569	44.543
24.454	45.320
24.339	45.957
24.225	46.347
24.112	45.371
24.001	43.076
23.890	40.217
23.781	37.243
23.672	34.741
23.564	33.270
23.458	32.905
23.352	33.076
23.247	33.432
23.144	34.073
23.041	34.687
22.939	35.350
22.838	36.094
22.738	36.750
22.638	37.192
22.540	37.688
22.442	37.994
22.345	37.947
22.250	37.561
22.154	36.872
22.060	36.281
21.967	35.879
21.874	35.773
21.782	35.915
21.691	35.811
21.601	34.797
21.511	32.643
21.422	29.754
21.334	27.038
21.247	25.397
21.160	25.077
21.074	25.313
20.988	25.728
20.904	26.232
20.820	26.804
20.737	27.404
20.654	27.954
20.572	28.624
20.491	29.401
20.410	30.241
20.330	30.926
20.251	31.432
20.172	31.851
20.094	32.179
20.016	32.276
19.939	32.393
19.863	32.798
19.787	33.244
19.712	33.704
19.637	34.428
19.563	35.129
19.489	35.602
19.416	36.031
19.344	36.417
19.272	36.486
19.201	36.340
19.130	36.094
19.059	35.543
18.990	34.558
18.920	33.336
18.851	31.819
18.783	29.751
18.715	27.134
18.648	24.449
18.581	22.093
18.515	20.400
18.449	19.575
18.384	19.625
18.319	20.298
18.254	21.306
18.190	22.608
18.126	24.217
18.063	25.976
18.001	27.699
17.938	29.439
17.876	31.054
17.815	32.321
17.754	33.591
17.693	35.104
17.633	36.794
17.573	38.564
17.514	40.450
17.455	42.231
17.396	43.576
17.338	44.590
17.280	45.375
17.223	45.520
17.166	44.905
17.109	43.708
17.053	41.787
16.997	38.926
16.942	35.388
16.886	31.708
16.832	28.478
16.777	26.367
16.723	25.819
16.669	26.364
16.616	27.194
16.563	27.837
16.510	28.150
16.458	28.049
16.406	27.525
16.354	26.648
16.302	25.338
16.251	23.647
16.200	21.750
16.150	19.720
16.100	17.692
16.050	15.947
16.000	14.773
15.951	14.276
15.902	14.339
15.854	14.758
15.805	15.396
15.757	16.153
15.710	16.942
15.662	17.867
15.615	19.133
15.568	20.742
15.521	22.507
15.475	24.417
15.429	26.367
15.383	28.077
15.338	29.474
15.292	30.656
15.248	31.607
15.203	32.313
15.158	33.155
15.114	34.275
15.070	35.487
15.027	36.661
14.983	37.736
14.940	38.327
14.897	38.159
14.854	37.140
14.812	35.082
14.770	32.234
14.728	29.475
14.686	27.462
14.645	26.071
14.603	24.948
14.562	24.028
14.521	23.300
14.481	22.737
14.441	22.344
14.400	22.076
14.361	21.692
14.321	21.035
14.281	20.151
14.242	19.142
14.203	18.200
14.164	17.518
14.126	17.192
14.087	17.160
14.049	17.315
14.011	17.489
13.973	17.554
13.936	17.494
13.899	17.249
13.861	16.747
13.824	16.131
13.788	15.474
13.751	14.854
13.715	14.444
13.679	14.248
13.643	14.056
13.607	13.628
13.571	12.936
13.536	12.138
13.500	11.532
13.465	11.301
13.430	11.362
13.396	11.569
13.361	11.856
13.327	12.163
13.293	12.466
13.259	12.744
13.225	12.995
13.191	13.262
13.158	13.537
13.124	13.783
13.091	14.015
13.058	14.217
13.026	14.426
12.993	14.663
12.960	14.844
12.928	15.014
12.896	15.223
12.864	15.391
12.832	15.554
12.800	15.734
12.769	15.929
12.737	16.110
12.706	16.283
12.675	16.460
12.644	16.648
12.614	16.834
12.583	17.021
12.552	17.234
12.522	17.432
12.492	17.598
12.462	17.776
12.432	17.955
12.402	18.141
12.373	18.312
12.343	18.465
12.314	18.646
12.285	18.844
12.256	19.031
12.227	19.249
12.198	19.509
12.169	19.761
12.141	20.039
12.113	20.376
12.084	20.692
12.056	21.002
12.028	21.364
12.000	21.764
11.973	22.124
11.945	22.427
11.918	22.692
11.890	22.843
11.863	22.795
11.836	22.555
11.809	22.185
11.782	21.766
11.755	21.485
11.729	21.529
11.702	21.845
11.676	22.330
11.650	22.988
11.624	23.695
11.598	24.326
11.572	24.797
11.546	24.944
11.520	24.711
11.495	24.240
11.469	23.903
11.444	23.917
11.419	24.282
11.394	24.958
11.369	25.843
11.344	26.807
11.319	27.815
11.294	28.882
11.270	30.024
11.245	31.258
11.221	32.578
11.197	33.964
11.173	35.264
11.149	36.250
11.125	36.746
11.101	36.736
11.077	36.299
11.054	35.520
11.030	34.539
11.007	33.504
10.983	32.541
10.960	31.818
10.937	31.475
10.914	31.359
10.891	31.139
10.868	30.623
10.846	29.922
10.823	29.291
10.800	29.060
10.778	29.433
10.755	30.285
10.733	31.446
10.711	32.832
10.689	34.423
10.667	36.176
10.645	38.123
10.623	40.259
10.602	42.506
10.580	44.832
10.558	47.227
10.537	49.592
10.516	51.692
10.494	53.328
10.473	54.497
10.452	55.239
10.431	55.594
10.410	55.681
10.389	55.602
10.368	55.399
10.348	55.044
10.327	54.499
10.306	53.732
10.286	52.657
10.266	51.293
10.245	49.802
10.225	48.454
10.205	47.425
10.185	46.765
10.165	46.414
10.145	46.275
10.125	46.284
10.106	46.397
10.086	46.604
10.066	46.811
10.047	46.870
10.027	46.685
10.008	46.068
9.9887	44.801
9.9695	42.831
9.9504	40.243
9.9313	37.185
9.9123	33.861
9.8934	30.467
9.8746	27.098
9.8558	23.833
9.8371	20.719
9.8185	17.841
9.7999	15.315
9.7814	13.345
9.7630	12.100
9.7447	11.589
9.7264	11.676
9.7082	12.233
9.6900	13.218
9.6719	14.733
9.6539	16.878
9.6360	19.603
9.6181	22.605
9.6003	25.450
9.5825	27.760
9.5649	29.412
9.5472	30.508
9.5297	31.204
9.5122	31.697
9.4948	32.161
9.4774	32.708
9.4601	33.314
9.4429	33.894
9.4257	34.382
9.4086	34.702
9.3916	34.775
9.3746	34.577
9.3577	34.133
9.3408	33.439
9.3240	32.598
9.3073	31.808
9.2906	31.119
9.2740	30.501
9.2574	29.921
9.2409	29.352
9.2245	28.816
9.2081	28.432
9.1918	28.229
9.1755	28.152
9.1593	28.100
9.1431	28.068
9.1270	28.118
9.1110	28.322
9.0950	28.778
9.0791	29.501
9.0632	30.346
9.0474	31.197
9.0316	31.997
9.0159	32.701
9.0003	33.303
8.9847	33.835
8.9691	34.273
8.9536	34.604
8.9382	34.870
8.9228	35.090
8.9075	35.200
8.8922	35.235
8.8770	35.260
8.8618	35.259
8.8467	35.210
8.8316	35.170
8.8166	35.152
8.8016	35.067
8.7867	34.922
8.7718	34.740
8.7570	34.475
8.7422	34.161
8.7275	33.867
8.7129	33.520
8.6982	33.036
8.6837	32.468
8.6692	31.745
8.6547	30.783
8.6403	29.647
8.6259	28.379
8.6116	26.940
8.5973	25.395
8.5830	23.864
8.5688	22.307
8.5547	20.718
8.5406	19.182
8.5266	17.704
8.5126	16.241
8.4986	14.839
8.4847	13.550
8.4708	12.315
8.4570	11.119
8.4432	9.9931
8.4295	8.9282
8.4158	7.9121
8.4022	6.9433
8.3886	6.0532
8.3750	5.2610
8.3615	4.5852
8.3481	4.0698
8.3347	3.7197
8.3213	3.5283
8.3079	3.4924
8.2946	3.5649
8.2814	3.6877
8.2682	3.8350
8.2550	4.0090
8.2419	4.1892
8.2288	4.3713
8.2158	4.5503
8.2028	4.7226
8.1898	4.8862
8.1769	5.0503
8.1640	5.2014
8.1512	5.3462
8.1384	5.4912
8.1256	5.6326
8.1129	5.7605
8.1002	5.8860
8.0876	6.0127
8.0750	6.1257
8.0624	6.2324
8.0499	6.3530
8.0374	6.4582
8.0250	6.5437
8.0126	6.6299
8.0002	6.7207
7.9879	6.8125
7.9756	6.9026
7.9634	6.9922
7.9512	7.0864
7.9390	7.1618
7.9268	7.2444
7.9147	7.3367
7.9027	7.4082
7.8906	7.4787
7.8786	7.5539
7.8667	7.6240
7.8548	7.6916
7.8429	7.7607
7.8310	7.8388
7.8192	7.9070
7.8075	7.9685
7.7957	8.0276
7.7840	8.0918
7.7723	8.1465
7.7607	8.2151
7.7491	8.2822
7.7375	8.3418
7.7260	8.4023
7.7145	8.4616
7.7031	8.5163
7.6916	8.5635
7.6802	8.6116
7.6689	8.6579
7.6575	8.7087
7.6462	8.7607
7.6350	8.8130
7.6238	8.8584
7.6126	8.9004
7.6014	8.9453
7.5903	8.9814
7.5792	9.0227
7.5681	9.0730
7.5571	9.1111
7.5461	9.1382
7.5351	9.1809
7.5242	9.2312
7.5133	9.2636
7.5024	9.2929
7.4916	9.3288
7.4807	9.3508
7.4700	9.3799
7.4592	9.4206
7.4485	9.4536
7.4378	9.4865
7.4272	9.5205
7.4165	9.5451
7.4059	9.5703
7.3954	9.6001
7.3848	9.6277
7.3743	9.6474
7.3639	9.6775
7.3534	9.7082
7.3430	9.7326
7.3326	9.7534
7.3223	9.7922
7.3119	9.8225
7.3016	9.8410
7.2914	9.8652
7.2811	9.8816
7.2709	9.9026
7.2607	9.9216
7.2506	9.9441
7.2404	9.9714
7.2303	9.9868
7.2203	10.006
7.2102	10.016
7.2002	10.035
7.1902	10.072
7.1803	10.095
7.1703	10.090
7.1604	10.119
7.1506	10.157
7.1407	10.183
7.1309	10.207
7.1211	10.228
7.1113	10.241
7.1016	10.259
7.0919	10.285
7.0822	10.310
7.0725	10.319
7.0629	10.320
7.0533	10.304
7.0437	10.296
7.0341	10.343
7.0246	10.380
7.0151	10.399
7.0056	10.408
6.9962	10.415
6.9867	10.427
6.9773	10.439
6.9679	10.431
6.9586	10.422
6.9493	10.469
6.9400	10.502
6.9307	10.524
6.9214	10.534
6.9122	10.542
6.9030	10.566
6.8938	10.598
6.8847	10.599
6.8755	10.581
6.8664	10.521
6.8573	10.540
6.8483	10.621
6.8393	10.665
6.8302	10.665
6.8213	10.675
6.8123	10.709
6.8034	10.726
6.7944	10.708
6.7855	10.710
6.7767	10.753
6.7678	10.780
6.7590	10.804
6.7502	10.809
6.7414	10.809
6.7327	10.817
6.7239	10.822
6.7152	10.821
6.7065	10.840
6.6979	10.873
6.6892	10.859
6.6806	10.831
6.6720	10.853
6.6634	10.885
6.6549	10.899
6.6464	10.853
6.6378	10.792
6.6294	10.840
6.6209	10.903
6.6124	10.919
6.6040	10.937
6.5956	10.928
6.5872	10.915
6.5789	10.896
6.5705	10.885
6.5622	10.927
6.5539	10.946
6.5456	10.974
6.5374	11.002
6.5292	11.012
6.5209	11.004
6.5128	11.031
6.5046	11.008
6.4964	10.929
6.4883	10.940
6.4802	11.010
6.4721	11.054
6.4640	11.092
6.4560	11.103
6.4480	11.112
6.4399	11.116
6.4320	11.099
6.4240	11.082
6.4160	11.008
6.4081	11.043
6.4002	11.161
6.3923	11.192
6.3844	11.198
6.3766	11.194
6.3687	11.196
6.3609	11.229
6.3531	11.215
6.3454	11.163
6.3376	11.207
6.3299	11.257
6.3221	11.267
6.3144	11.292
6.3068	11.303
6.2991	11.308
6.2914	11.320
6.2838	11.327
6.2762	11.320
6.2686	11.328
6.2611	11.342
6.2535	11.344
6.2460	11.346
6.2385	11.365
6.2310	11.372
6.2235	11.375
6.2160	11.380
6.2086	11.389
6.2011	11.395
6.1937	11.373
6.1863	11.320
6.1790	11.354
6.1716	11.415
6.1643	11.401
6.1570	11.399
6.1496	11.423
6.1424	11.427
6.1351	11.440
6.1278	11.442
6.1206	11.406
6.1134	11.367
6.1062	11.419
6.0990	11.460
6.0918	11.470
6.0847	11.469
6.0776	11.425
6.0704	11.417
6.0633	11.465
6.0563	11.404
6.0492	11.294
6.0421	11.386
6.0351	11.481
6.0281	11.490
6.0211	11.482
6.0141	11.458
6.0071	11.467
6.0002	11.471
5.9932	11.434
5.9863	11.423
5.9794	11.449
5.9725	11.443
5.9657	11.437
5.9588	11.469
5.9520	11.468
5.9451	11.434
5.9383	11.350
5.9315	11.365
5.9247	11.441
5.9180	11.456
5.9112	11.462
5.9045	11.439
5.8978	11.361
5.8911	11.373
5.8844	11.355
5.8777	11.347
5.8711	11.424
5.8644	11.423
5.8578	11.430
5.8512	11.438
5.8446	11.440
5.8380	11.425
5.8314	11.391
5.8249	11.331
5.8184	11.337
5.8118	11.400
5.8053	11.422
5.7988	11.434
5.7923	11.455
5.7859	11.465
5.7794	11.470
5.7730	11.451
5.7666	11.417
5.7602	11.484
5.7538	11.545
5.7474	11.552
5.7410	11.569
5.7347	11.577
5.7283	11.592
5.7220	11.593
5.7157	11.580
5.7094	11.569
5.7031	11.597
5.6969	11.609
5.6906	11.595
5.6844	11.597
5.6782	11.584
5.6719	11.591
5.6657	11.609
5.6596	11.589
5.6534	11.578
5.6472	11.566
5.6411	11.540
5.6349	11.570
5.6288	11.597
5.6227	11.604
5.6166	11.604
5.6106	11.603
5.6045	11.595
5.5984	11.589
5.5924	11.596
5.5864	11.589
5.5804	11.570
5.5744	11.586
5.5684	11.613
5.5624	11.622
5.5564	11.620
5.5505	11.626
5.5445	11.649
5.5386	11.669
5.5327	11.676
5.5268	11.673
5.5209	11.675
5.5151	11.686
5.5092	11.695
5.5033	11.698
5.4975	11.705
5.4917	11.717
5.4859	11.723
5.4801	11.724
5.4743	11.740
5.4685	11.746
5.4628	11.748
5.4570	11.774
5.4513	11.792
5.4455	11.787
5.4398	11.796
5.4341	11.807
5.4284	11.797
5.4228	11.764
5.4171	11.777
5.4114	11.807
5.4058	11.818
5.4002	11.817
5.3945	11.814
5.3889	11.822
5.3833	11.829
5.3778	11.828
5.3722	11.836
5.3666	11.845
5.3611	11.842
5.3555	11.833
5.3500	11.819
5.3445	11.830
5.3390	11.842
5.3335	11.840
5.3280	11.833
5.3225	11.834
5.3171	11.844
5.3116	11.851
5.3062	11.854
5.3008	11.863
5.2954	11.852
5.2900	11.841
5.2846	11.862
5.2792	11.873
5.2738	11.872
5.2684	11.872
5.2631	11.873
5.2578	11.872
5.2524	11.875
5.2471	11.877
5.2418	11.881
5.2365	11.884
5.2312	11.890
5.2260	11.894
5.2207	11.893
5.2154	11.889
5.2102	11.897
5.2050	11.902
5.1998	11.903
5.1945	11.911
5.1893	11.911
5.1842	11.910
5.1790	11.921
5.1738	11.932
5.1686	11.938
5.1635	11.948
5.1584	11.950
5.1532	11.948
5.1481	11.953
5.1430	11.969
5.1379	11.986
5.1328	11.998
5.1277	12.006
5.1227	12.009
5.1176	12.013
5.1126	12.022
5.1075	12.027
5.1025	12.037
5.0975	12.040
5.0925	12.043
5.0875	12.044
5.0825	12.043
5.0775	12.056
5.0726	12.064
5.0676	12.066
5.0627	12.070
5.0577	12.074
5.0528	12.077
5.0479	12.075
5.0430	12.069
5.0380	12.070
5.0332	12.064
5.0283	12.057
5.0234	12.051
5.0185	12.065
5.0137	12.076
5.0088	12.072
5.0040	12.067
4.9992	12.065
4.9944	12.057
4.9896	12.048
4.9848	12.046
4.9800	12.047
4.9752	12.046
4.9704	12.039
4.9657	12.032
4.9609	12.021
4.9562	12.017
4.9514	12.015
4.9467	12.010
4.9420	12.000
4.9373	11.996
4.9326	11.998
4.9279	12.002
4.9232	12.001
4.9186	11.992
4.9139	11.993
4.9092	12.000
4.9046	12.000
4.9000	12.003
4.8953	12.002
4.8907	12.000
4.8861	12.009
4.8815	12.016
4.8769	12.019
4.8723	12.019
4.8678	12.026
4.8632	12.035
4.8586	12.041
4.8541	12.051
4.8495	12.051
4.8450	12.057
4.8405	12.068
4.8360	12.077
4.8315	12.082
4.8270	12.089
4.8225	12.104
4.8180	12.120
4.8135	12.133
4.8090	12.147
4.8046	12.161
4.8001	12.167
4.7957	12.179
4.7913	12.184
4.7868	12.188
4.7824	12.207
4.7780	12.225
4.7736	12.231
4.7692	12.232
4.7648	12.240
4.7605	12.254
4.7561	12.266
4.7517	12.279
4.7474	12.288
4.7431	12.305
4.7387	12.320
4.7344	12.327
4.7301	12.325
4.7258	12.333
4.7215	12.345
4.7172	12.355
4.7129	12.361
4.7086	12.356
4.7043	12.344
4.7000	12.335
4.6958	12.334
4.6915	12.341
4.6873	12.342
4.6831	12.344
4.6788	12.354
4.6746	12.359
4.6704	12.358
4.6662	12.355
4.6620	12.359
4.6578	12.355
4.6536	12.361
4.6495	12.371
4.6453	12.368
4.6411	12.367
4.6370	12.363
4.6328	12.363
4.6287	12.357
4.6246	12.350
4.6205	12.340
4.6163	12.338
4.6122	12.350
4.6081	12.356
4.6040	12.358
4.6000	12.372
4.5959	12.376
4.5918	12.371
4.5877	12.368
4.5837	12.372
4.5796	12.389
4.5756	12.396
4.5716	12.397
4.5675	12.403
4.5635	12.414
4.5595	12.427
4.5555	12.434
4.5515	12.446
4.5475	12.451
4.5435	12.458
4.5395	12.475
4.5356	12.492
4.5316	12.504
4.5276	12.507
4.5237	12.500
4.5197	12.509
4.5158	12.515
4.5119	12.526
4.5080	12.553
4.5040	12.579
4.5001	12.585
4.4962	12.592
4.4923	12.604
4.4884	12.615
4.4846	12.617
4.4807	12.632
4.4768	12.655
4.4730	12.662
4.4691	12.666
4.4652	12.682
4.4614	12.698
4.4576	12.699
4.4537	12.699
4.4499	12.706
4.4461	12.713
4.4423	12.728
4.4385	12.750
4.4347	12.763
4.4309	12.768
4.4271	12.771
4.4233	12.770
4.4196	12.773
4.4158	12.781
4.4120	12.790
4.4083	12.801
4.4045	12.803
4.4008	12.807
4.3971	12.806
4.3934	12.800
4.3896	12.804
4.3859	12.800
4.3822	12.806
4.3785	12.815
4.3748	12.829
4.3711	12.845
4.3674	12.857
4.3638	12.859
4.3601	12.852
4.3564	12.863
4.3528	12.882
4.3491	12.890
4.3455	12.896
4.3418	12.896
4.3382	12.892
4.3346	12.891
4.3310	12.900
4.3273	12.905
4.3237	12.900
4.3201	12.901
4.3165	12.919
4.3129	12.925
4.3094	12.925
4.3058	12.928
4.3022	12.927
4.2986	12.913
4.2951	12.913
4.2915	12.915
4.2880	12.917
4.2844	12.912
4.2809	12.911
4.2774	12.912
4.2738	12.916
4.2703	12.927
4.2668	12.940
4.2633	12.944
4.2598	12.954
4.2563	12.962
4.2528	12.967
4.2493	12.964
4.2458	12.965
4.2424	12.972
4.2389	12.981
4.2354	12.993
4.2320	12.998
4.2285	13.003
4.2251	13.016
4.2216	13.031
4.2182	13.028
4.2148	13.015
4.2113	13.011
4.2079	13.011
4.2045	13.016
4.2011	13.034
4.1977	13.043
4.1943	13.047
4.1909	13.055
4.1875	13.054
4.1841	13.052
4.1808	13.052
4.1774	13.043
4.1740	13.046
4.1707	13.047
4.1673	13.050
4.1640	13.055
4.1606	13.059
4.1573	13.060
4.1540	13.054
4.1506	13.054
4.1473	13.059
4.1440	13.077
4.1407	13.090
4.1374	13.096
4.1341	13.093
4.1308	13.087
4.1275	13.086
4.1242	13.090
4.1209	13.092
4.1177	13.092
4.1144	13.097
4.1111	13.105
4.1079	13.111
4.1046	13.113
4.1014	13.117
4.0981	13.111
4.0949	13.104
4.0917	13.111
4.0884	13.118
4.0852	13.124
4.0820	13.128
4.0788	13.136
4.0756	13.131
4.0724	13.120
4.0692	13.101
4.0660	13.092
4.0628	13.095
4.0596	13.094
4.0565	13.098
4.0533	13.097
4.0501	13.101
4.0470	13.099
4.0438	13.096
4.0406	13.093
4.0375	13.090
4.0344	13.092
4.0312	13.093
4.0281	13.095
4.0250	13.099
4.0218	13.101
4.0187	13.098
4.0156	13.096
4.0125	13.096
4.0094	13.104
4.0063	13.110
4.0032	13.110
4.0001	13.101
3.9970	13.097
3.9940	13.106
3.9909	13.105
3.9878	13.088
3.9847	13.090
3.9817	13.107
3.9786	13.109
3.9756	13.119
3.9725	13.138
3.9695	13.144
3.9665	13.143
3.9634	13.145
3.9604	13.148
3.9574	13.156
3.9544	13.163
3.9513	13.178
3.9483	13.191
3.9453	13.192
3.9423	13.188
3.9393	13.189
3.9363	13.189
3.9333	13.190
3.9304	13.196
3.9274	13.196
3.9244	13.203
3.9214	13.223
3.9185	13.239
3.9155	13.230
3.9126	13.219
3.9096	13.217
3.9067	13.218
3.9037	13.227
3.9008	13.229
3.8979	13.226
3.8949	13.234
3.8920	13.238
3.8891	13.237
3.8862	13.245
3.8833	13.251
3.8804	13.247
3.8775	13.257
3.8746	13.269
3.8717	13.272
3.8688	13.273
3.8659	13.270
3.8630	13.260
3.8601	13.260
3.8573	13.261
3.8544	13.261
3.8515	13.260
3.8487	13.278
3.8458	13.298
3.8430	13.292
3.8401	13.286
3.8373	13.296
3.8344	13.298
3.8316	13.299
3.8288	13.299
3.8259	13.304
3.8231	13.325
3.8203	13.337
3.8175	13.333
3.8147	13.325
3.8119	13.313
3.8091	13.309
3.8063	13.309
3.8035	13.306
3.8007	13.309
3.7979	13.316
3.7951	13.321
3.7924	13.321
3.7896	13.317
3.7868	13.308
3.7841	13.302
3.7813	13.306
3.7785	13.325
3.7758	13.338
3.7730	13.337
3.7703	13.335
3.7676	13.335
3.7648	13.340
3.7621	13.341
3.7594	13.339
3.7566	13.339
3.7539	13.350
3.7512	13.349
3.7485	13.341
3.7458	13.340
3.7431	13.329
3.7404	13.323
3.7377	13.315
3.7350	13.317
3.7323	13.325
3.7296	13.319
3.7269	13.323
3.7242	13.332
3.7216	13.333
3.7189	13.327
3.7162	13.318
3.7136	13.323
3.7109	13.334
3.7083	13.346
3.7056	13.341
3.7030	13.336
3.7003	13.352
3.6977	13.350
3.6950	13.337
3.6924	13.348
3.6898	13.357
3.6872	13.361
3.6845	13.366
3.6819	13.367
3.6793	13.374
3.6767	13.371
3.6741	13.363
3.6715	13.355
3.6689	13.347
3.6663	13.340
3.6637	13.342
3.6611	13.350
3.6585	13.359
3.6560	13.368
3.6534	13.372
3.6508	13.373
3.6482	13.358
3.6457	13.342
3.6431	13.343
3.6406	13.340
3.6380	13.340
3.6355	13.343
3.6329	13.343
3.6304	13.343
3.6278	13.351
3.6253	13.361
3.6227	13.366
3.6202	13.368
3.6177	13.369
3.6152	13.367
3.6127	13.370
3.6101	13.375
3.6076	13.379
3.6051	13.387
3.6026	13.390
3.6001	13.387
3.5976	13.394
3.5951	13.392
3.5926	13.394
3.5901	13.390
3.5876	13.387
3.5852	13.385
3.5827	13.390
3.5802	13.388
3.5777	13.381
3.5753	13.380
3.5728	13.386
3.5704	13.386
3.5679	13.387
3.5654	13.394
3.5630	13.389
3.5605	13.378
3.5581	13.363
3.5557	13.352
3.5532	13.348
3.5508	13.352
3.5484	13.361
3.5459	13.359
3.5435	13.351
3.5411	13.349
3.5387	13.351
3.5363	13.348
3.5338	13.341
3.5314	13.335
3.5290	13.337
3.5266	13.343
3.5242	13.345
3.5218	13.346
3.5195	13.347
3.5171	13.350
3.5147	13.342
3.5123	13.333
3.5099	13.340
3.5075	13.350
3.5052	13.360
3.5028	13.367
3.5004	13.373
3.4981	13.377
3.4957	13.379
3.4934	13.382
3.4910	13.386
3.4887	13.394
3.4863	13.399
3.4840	13.397
3.4816	13.388
3.4793	13.392
3.4770	13.405
3.4746	13.407
3.4723	13.406
3.4700	13.398
3.4677	13.382
3.4653	13.381
3.4630	13.387
3.4607	13.380
3.4584	13.369
3.4561	13.365
3.4538	13.370
3.4515	13.373
3.4492	13.368
3.4469	13.365
3.4446	13.368
3.4423	13.360
3.4400	13.364
3.4378	13.360
3.4355	13.348
3.4332	13.351
3.4309	13.357
3.4287	13.368
3.4264	13.374
3.4241	13.385
3.4219	13.392
3.4196	13.398
3.4174	13.411
3.4151	13.429
3.4129	13.438
3.4106	13.446
3.4084	13.454
3.4061	13.466
3.4039	13.467
3.4017	13.446
3.3994	13.448
3.3972	13.455
3.3950	13.454
3.3928	13.456
3.3906	13.448
3.3883	13.443
3.3861	13.442
3.3839	13.436
3.3817	13.442
3.3795	13.453
3.3773	13.464
3.3751	13.476
3.3729	13.492
3.3707	13.500
3.3685	13.491
3.3663	13.491
3.3641	13.498
3.3620	13.496
3.3598	13.463
3.3576	13.449
3.3554	13.440
3.3533	13.434
3.3511	13.421
3.3489	13.402
3.3468	13.398
3.3446	13.395
3.3425	13.387
3.3403	13.377
3.3382	13.368
3.3360	13.363
3.3339	13.352
3.3317	13.342
3.3296	13.336
3.3274	13.327
3.3253	13.318
3.3232	13.303
3.3210	13.279
3.3189	13.259
3.3168	13.258
3.3147	13.242
3.3126	13.226
3.3104	13.215
3.3083	13.194
3.3062	13.176
3.3041	13.167
3.3020	13.151
3.2999	13.136
3.2978	13.128
3.2957	13.122
3.2936	13.112
3.2915	13.106
3.2894	13.099
3.2874	13.091
3.2853	13.093
3.2832	13.085
3.2811	13.076
3.2790	13.055
3.2770	13.050
3.2749	13.041
3.2728	13.038
3.2708	13.040
3.2687	13.040
3.2666	13.040
3.2646	13.030
3.2625	13.013
3.2605	13.001
3.2584	12.995
3.2564	12.984
3.2543	12.982
3.2523	12.988
3.2503	12.976
3.2482	12.965
3.2462	12.959
3.2442	12.956
3.2421	12.943
3.2401	12.925
3.2381	12.912
3.2361	12.910
3.2340	12.893
3.2320	12.876
3.2300	12.864
3.2280	12.847
3.2260	12.834
3.2240	12.827
3.2220	12.823
3.2200	12.811
3.2180	12.802
3.2160	12.792
3.2140	12.771
3.2120	12.752
3.2100	12.742
3.2080	12.734
3.2060	12.727
3.2040	12.724
3.2021	12.723
3.2001	12.717
3.1981	12.705
3.1961	12.682
3.1942	12.662
3.1922	12.649
3.1902	12.642
3.1883	12.639
3.1863	12.635
3.1844	12.636
3.1824	12.640
3.1805	12.632
3.1785	12.626
3.1766	12.617
3.1746	12.608
3.1727	12.588
3.1707	12.574
3.1688	12.562
3.1669	12.556
3.1649	12.555
3.1630	12.544
3.1611	12.519
3.1591	12.511
3.1572	12.509
3.1553	12.489
3.1534	12.469
3.1515	12.458
3.1495	12.445
3.1476	12.434
3.1457	12.412
3.1438	12.392
3.1419	12.371
3.1400	12.351
3.1381	12.333
3.1362	12.310
3.1343	12.301
3.1324	12.310
3.1305	12.301
3.1286	12.276
3.1268	12.267
3.1249	12.257
3.1230	12.243
3.1211	12.236
3.1192	12.219
3.1174	12.215
3.1155	12.207
3.1136	12.193
3.1117	12.186
3.1099	12.181
3.1080	12.167
3.1061	12.158
3.1043	12.153
3.1024	12.153
3.1006	12.132
3.0987	12.115
3.0969	12.111
3.0950	12.111
3.0932	12.096
3.0913	12.082
3.0895	12.065
3.0876	12.059
3.0858	12.064
3.0840	12.071
3.0821	12.066
3.0803	12.057
3.0785	12.046
3.0766	12.039
3.0748	12.024
3.0730	12.022
3.0712	12.034
3.0694	12.022
3.0675	12.010
3.0657	12.022
3.0639	12.032
3.0621	12.027
3.0603	12.016
3.0585	12.013
3.0567	12.019
3.0549	12.027
3.0531	12.033
3.0513	12.031
3.0495	12.032
3.0477	12.039
3.0459	12.032
3.0441	12.018
3.0423	12.023
3.0406	12.025
3.0388	12.019
3.0370	12.009
3.0352	12.016
3.0334	12.019
3.0317	12.016
3.0299	12.021
3.0281	12.022
3.0264	12.013
3.0246	12.006
3.0228	12.012
3.0211	12.009
3.0193	12.004
3.0176	12.014
3.0158	12.017
3.0140	12.012
3.0123	12.006
3.0105	12.001
3.0088	11.990
3.0070	11.981
3.0053	11.983
3.0036	11.976
3.0018	11.967
3.0001	11.954
2.9984	11.932
2.9966	11.922
2.9949	11.930
2.9932	11.924
2.9914	11.890
2.9897	11.861
2.9880	11.849
2.9863	11.802
2.9845	11.769
2.9828	11.752
2.9811	11.701
2.9794	11.640
2.9777	11.601
2.9760	11.557
2.9743	11.503
2.9726	11.455
2.9709	11.396
2.9692	11.338
2.9675	11.267
2.9658	11.198
2.9641	11.139
2.9624	11.119
2.9607	11.093
2.9590	11.052
2.9573	11.048
2.9556	11.047
2.9539	11.035
2.9523	11.028
2.9506	11.036
2.9489	11.061
2.9472	11.075
2.9455	11.090
2.9439	11.118
2.9422	11.136
2.9405	11.134
2.9389	11.146
2.9372	11.177
2.9355	11.192
2.9339	11.210
2.9322	11.216
2.9306	11.215
2.9289	11.232
2.9272	11.240
2.9256	11.240
2.9239	11.259
2.9223	11.260
2.9207	11.267
2.9190	11.279
2.9174	11.281
2.9157	11.278
2.9141	11.289
2.9124	11.292
2.9108	11.290
2.9092	11.295
2.9075	11.286
2.9059	11.272
2.9043	11.278
2.9027	11.291
2.9010	11.286
2.8994	11.281
2.8978	11.278
2.8962	11.276
2.8946	11.290
2.8929	11.305
2.8913	11.303
2.8897	11.296
2.8881	11.311
2.8865	11.316
2.8849	11.326
2.8833	11.345
2.8817	11.369
2.8801	11.392
2.8785	11.403
2.8769	11.403
2.8753	11.420
2.8737	11.446
2.8721	11.466
2.8705	11.479
2.8689	11.493
2.8673	11.506
2.8658	11.533
2.8642	11.569
2.8626	11.589
2.8610	11.594
2.8594	11.615
2.8579	11.642
2.8563	11.653
2.8547	11.674
2.8531	11.705
2.8516	11.738
2.8500	11.764
2.8484	11.782
2.8469	11.798
2.8453	11.808
2.8437	11.814
2.8422	11.839
2.8406	11.857
2.8391	11.852
2.8375	11.842
2.8360	11.852
2.8344	11.826
2.8329	11.788
2.8313	11.729
2.8298	11.653
2.8282	11.573
2.8267	11.510
2.8252	11.486
2.8236	11.497
2.8221	11.511
2.8205	11.565
2.8190	11.657
2.8175	11.743
2.8159	11.801
2.8144	11.859
2.8129	11.885
2.8114	11.881
2.8098	11.855
2.8083	11.839
2.8068	11.836
2.8053	11.831
2.8038	11.840
2.8022	11.912
2.8007	12.021
2.7992	12.101
2.7977	12.146
2.7962	12.186
2.7947	12.215
2.7932	12.242
2.7917	12.260
2.7902	12.294
2.7887	12.316
2.7872	12.297
2.7857	12.311
2.7842	12.361
2.7827	12.386
2.7812	12.414
2.7797	12.429
2.7782	12.467
2.7767	12.511
2.7752	12.533
2.7738	12.523
2.7723	12.535
2.7708	12.544
2.7693	12.572
2.7678	12.591
2.7664	12.616
2.7649	12.643
2.7634	12.636
2.7619	12.625
2.7605	12.664
2.7590	12.684
2.7575	12.663
2.7561	12.624
2.7546	12.635
2.7531	12.695
2.7517	12.729
2.7502	12.746
2.7488	12.745
2.7473	12.753
2.7458	12.761
2.7444	12.756
2.7429	12.746
2.7415	12.720
2.7400	12.686
2.7386	12.717
2.7371	12.785
2.7357	12.764
2.7343	12.747
2.7328	12.777
2.7314	12.784
2.7299	12.783
2.7285	12.826
2.7271	12.854
2.7256	12.805
2.7242	12.770
2.7228	12.833
2.7213	12.831
2.7199	12.798
2.7185	12.871
2.7171	12.892
2.7156	12.904
2.7142	12.927
2.7128	12.920
2.7114	12.860
2.7100	12.865
2.7085	12.936
2.7071	12.962
2.7057	12.955
2.7043	12.946
2.7029	12.944
2.7015	12.950
2.7001	12.963
2.6987	12.965
2.6973	12.968
2.6959	12.964
2.6945	12.944
2.6931	12.948
2.6917	12.981
2.6903	12.989
2.6889	12.991
2.6875	13.015
2.6861	13.031
2.6847	13.025
2.6833	13.030
2.6819	13.042
2.6805	13.036
2.6791	13.024
2.6778	13.040
2.6764	13.010
2.6750	13.028
2.6736	13.070
2.6722	13.083
2.6709	13.002
2.6695	12.992
2.6681	13.047
2.6667	13.007
2.6654	12.989
2.6640	13.016
2.6626	13.100
2.6613	13.109
2.6599	13.085
2.6585	13.077
2.6572	13.079
2.6558	13.066
2.6545	13.090
2.6531	13.080
2.6517	13.059
2.6504	13.073
2.6490	13.095
2.6477	13.092
2.6463	13.069
2.6450	13.063
2.6436	13.082
2.6423	13.072
2.6409	13.077
2.6396	13.068
2.6382	13.079
2.6369	13.072
2.6356	13.069
2.6342	13.062
2.6329	13.061
2.6315	13.039
2.6302	12.999
2.6289	13.049
2.6275	13.051
2.6262	13.019
2.6249	13.055
2.6236	13.076
2.6222	13.067
2.6209	13.014
2.6196	12.998
2.6183	13.040
2.6169	13.019
2.6156	13.028
2.6143	13.048
2.6130	13.052
2.6117	13.070
2.6103	13.061
2.6090	13.067
2.6077	13.078
2.6064	13.041
2.6051	13.024
2.6038	13.069
2.6025	13.098
2.6012	13.111
2.5999	13.104
2.5986	13.108
2.5973	13.097
2.5960	13.059
2.5947	12.988
2.5934	13.030
2.5921	13.107
2.5908	13.147
2.5895	13.134
2.5882	13.119
2.5869	13.127
2.5856	13.129
2.5843	13.101
2.5830	13.104
2.5817	13.129
2.5805	13.108
2.5792	13.114
2.5779	13.110
2.5766	13.094
2.5753	13.119
2.5741	13.107
2.5728	13.092
2.5715	13.125
2.5702	13.105
2.5690	13.085
2.5677	13.120
2.5664	13.138
2.5651	13.102
2.5639	13.059
2.5626	13.059
2.5613	13.061
2.5601	13.067
2.5588	13.085
2.5575	13.085
2.5563	13.075
2.5550	13.070
2.5538	13.085
2.5525	13.090
2.5513	13.093
2.5500	13.104
2.5487	13.085
2.5475	13.055
2.5462	13.063
2.5450	13.086
2.5437	13.094
2.5425	13.090
2.5413	13.091
2.5400	13.080
2.5388	13.077
2.5375	13.079
2.5363	13.085
2.5350	13.071
2.5338	13.067
2.5326	13.073
2.5313	13.097
2.5301	13.098
2.5289	13.080
2.5276	13.085
2.5264	13.098
2.5252	13.094
2.5239	13.085
2.5227	13.104
2.5215	13.120
2.5202	13.119
2.5190	13.144
2.5178	13.143
2.5166	13.121
2.5154	13.112
2.5141	13.129
2.5129	13.156
2.5117	13.179
2.5105	13.182
2.5093	13.156
2.5081	13.161
2.5068	13.183
2.5056	13.176
2.5044	13.174
2.5032	13.186
2.5020	13.203
2.5008	13.205
2.4996	13.209
2.4984	13.203
2.4972	13.176
2.4960	13.165
2.4948	13.178
2.4936	13.194
2.4924	13.202
2.4912	13.203
2.4900	13.194
2.4888	13.192
2.4876	13.186
2.4864	13.200
2.4852	13.215
2.4840	13.215
2.4828	13.193
2.4816	13.208
2.4805	13.220
2.4793	13.207
2.4781	13.201
2.4769	13.207
2.4757	13.204
2.4745	13.196
2.4734	13.208
2.4722	13.229
2.4710	13.217
2.4698	13.216
2.4686	13.217
2.4675	13.229
2.4663	13.231
2.4651	13.226
2.4640	13.217
2.4628	13.207
2.4616	13.186
2.4604	13.205
2.4593	13.246
2.4581	13.267
2.4569	13.269
2.4558	13.260
2.4546	13.280
2.4535	13.295
2.4523	13.267
2.4511	13.262
2.4500	13.277
2.4488	13.269
2.4477	13.258
2.4465	13.272
2.4454	13.272
2.4442	13.254
2.4431	13.278
2.4419	13.262
2.4408	13.254
2.4396	13.280
2.4385	13.297
2.4373	13.292
2.4362	13.296
2.4350	13.278
2.4339	13.264
2.4327	13.267
2.4316	13.292
2.4305	13.278
2.4293	13.248
2.4282	13.260
2.4270	13.262
2.4259	13.256
2.4248	13.260
2.4236	13.264
2.4225	13.250
2.4214	13.242
2.4202	13.227
2.4191	13.244
2.4180	13.256
2.4169	13.256
2.4157	13.252
2.4146	13.242
2.4135	13.254
2.4124	13.244
2.4112	13.229
2.4101	13.226
2.4090	13.227
2.4079	13.231
2.4068	13.236
2.4056	13.213
2.4045	13.180
2.4034	13.172
2.4023	13.149
2.4012	13.136
2.4001	13.147
2.3990	13.146
2.3979	13.142
2.3967	13.135
2.3956	13.112
2.3945	13.096
2.3934	13.100
2.3923	13.084
2.3912	13.061
2.3901	13.037
2.3890	13.041
2.3879	13.032
2.3868	13.002
2.3857	12.971
2.3846	12.954
2.3835	12.926
2.3824	12.915
2.3813	12.926
2.3802	12.916
2.3791	12.864
2.3781	12.797
2.3770	12.747
2.3759	12.713
2.3748	12.686
2.3737	12.658
2.3726	12.604
2.3715	12.522
2.3704	12.479
2.3694	12.476
2.3683	12.428
2.3672	12.377
2.3661	12.311
2.3650	12.264
2.3640	12.192
2.3629	12.125
2.3618	12.085
2.3607	12.042
2.3597	12.012
2.3586	11.971
2.3575	11.945
2.3564	11.923
2.3554	11.890
2.3543	11.859
2.3532	11.829
2.3522	11.820
2.3511	11.831
2.3500	11.825
2.3490	11.830
2.3479	11.851
2.3468	11.865
2.3458	11.902
2.3447	11.929
2.3436	11.916
2.3426	11.919
2.3415	11.954
2.3405	11.985
2.3394	11.964
2.3384	11.987
2.3373	12.049
2.3363	12.085
2.3352	12.093
2.3342	12.112
2.3331	12.173
2.3321	12.198
2.3310	12.230
2.3300	12.254
2.3289	12.267
2.3279	12.311
2.3268	12.352
2.3258	12.394
2.3247	12.414
2.3237	12.438
2.3226	12.475
2.3216	12.485
2.3206	12.529
2.3195	12.605
2.3185	12.597
2.3175	12.580
2.3164	12.621
2.3154	12.660
2.3144	12.660
2.3133	12.706
2.3123	12.746
2.3113	12.738
2.3102	12.738
2.3092	12.791
2.3082	12.830
2.3071	12.848
2.3061	12.845
2.3051	12.848
2.3041	12.894
2.3030	12.934
2.3020	12.936
2.3010	12.962
2.3000	13.009
2.2990	13.033
2.2979	13.005
2.2969	12.993
2.2959	13.059
2.2949	13.094
2.2939	13.092
2.2929	13.111
2.2918	13.184
2.2908	13.157
2.2898	13.142
2.2888	13.181
2.2878	13.218
2.2868	13.225
2.2858	13.189
2.2848	13.191
2.2838	13.237
2.2828	13.256
2.2818	13.234
2.2808	13.234
2.2798	13.256
2.2787	13.259
2.2777	13.244
2.2767	13.260
2.2757	13.273
2.2747	13.257
2.2738	13.258
2.2728	13.263
2.2718	13.232
2.2708	13.200
2.2698	13.182
2.2688	13.180
2.2678	13.168
2.2668	13.135
2.2658	13.096
2.2648	13.079
2.2638	13.055
2.2628	13.016
2.2618	13.029
2.2609	13.036
2.2599	13.022
2.2589	13.006
2.2579	12.993
2.2569	12.980
2.2559	12.981
2.2550	12.989
2.2540	13.016
2.2530	13.021
2.2520	13.004
2.2510	13.023
2.2501	13.059
2.2491	13.090
2.2481	13.135
2.2471	13.168
2.2462	13.180
2.2452	13.238
2.2442	13.297
2.2433	13.340
2.2423	13.372
2.2413	13.423
2.2403	13.494
2.2394	13.514
2.2384	13.548
2.2374	13.568
2.2365	13.588
2.2355	13.623
2.2345	13.642
2.2336	13.665
2.2326	13.700
2.2317	13.713
2.2307	13.708
2.2297	13.716
2.2288	13.752
2.2278	13.754
2.2269	13.771
2.2259	13.794
2.2250	13.811
2.2240	13.825
2.2231	13.844
2.2221	13.891
2.2211	13.888
2.2202	13.871
2.2192	13.884
2.2183	13.912
2.2173	13.919
2.2164	13.950
2.2155	13.955
2.2145	13.930
2.2136	13.957
2.2126	13.982
2.2117	13.959
2.2107	13.936
2.2098	13.903
2.2088	13.898
2.2079	13.931
2.2070	13.969
2.2060	13.953
2.2051	13.949
2.2041	13.969
2.2032	13.966
2.2023	13.957
2.2013	13.962
2.2004	13.974
2.1995	14.009
2.1985	14.000
2.1976	13.989
2.1967	13.997
2.1957	14.009
2.1948	14.004
2.1939	13.992
2.1930	14.000
2.1920	14.043
2.1911	14.076
2.1902	14.102
2.1893	14.071
2.1883	14.074
2.1874	14.095
2.1865	14.113
2.1856	14.130
2.1846	14.099
2.1837	14.076
2.1828	14.096
2.1819	14.113
2.1810	14.141
2.1800	14.156
2.1791	14.150
2.1782	14.122
2.1773	14.091
2.1764	14.121
2.1755	14.181
2.1746	14.177
2.1736	14.188
2.1727	14.189
2.1718	14.209
2.1709	14.246
2.1700	14.226
2.1691	14.182
2.1682	14.184
2.1673	14.193
2.1664	14.215
2.1655	14.246
2.1646	14.221
2.1637	14.255
2.1628	14.255
2.1619	14.230
2.1610	14.263
2.1601	14.289
2.1592	14.282
2.1583	14.275
2.1574	14.275
2.1565	14.240
2.1556	14.250
2.1547	14.221
2.1538	14.256
2.1529	14.263
2.1520	14.247
2.1511	14.242
2.1502	14.235
2.1493	14.269
2.1484	14.290
2.1475	14.302
2.1466	14.309
2.1458	14.278
2.1449	14.326
2.1440	14.332
2.1431	14.277
2.1422	14.297
2.1413	14.317
2.1404	14.325
2.1396	14.309
2.1387	14.285
2.1378	14.313
2.1369	14.376
2.1360	14.426
2.1352	14.396
2.1343	14.345
2.1334	14.320
2.1325	14.321
2.1316	14.359
2.1308	14.376
2.1299	14.372
2.1290	14.352
2.1281	14.377
2.1273	14.418
2.1264	14.384
2.1255	14.400
2.1247	14.383
2.1238	14.396
2.1229	14.412
2.1220	14.403
2.1212	14.391
2.1203	14.416
2.1194	14.414
2.1186	14.438
2.1177	14.462
2.1168	14.462
2.1160	14.420
2.1151	14.392
2.1143	14.434
2.1134	14.466
2.1125	14.479
2.1117	14.485
2.1108	14.481
2.1100	14.496
2.1091	14.481
2.1082	14.442
2.1074	14.459
2.1065	14.474
2.1057	14.486
2.1048	14.474
2.1040	14.463
2.1031	14.479
2.1023	14.496
2.1014	14.502
2.1005	14.505
2.0997	14.505
2.0988	14.512
2.0980	14.508
2.0971	14.559
2.0963	14.601
2.0955	14.580
2.0946	14.582
2.0938	14.609
2.0929	14.578
2.0921	14.541
2.0912	14.532
2.0904	14.557
2.0895	14.571
2.0887	14.563
2.0879	14.555
2.0870	14.587
2.0862	14.587
2.0853	14.547
2.0845	14.540
2.0837	14.567
2.0828	14.566
2.0820	14.539
2.0812	14.519
2.0803	14.549
2.0795	14.552
