Name:  Garnet Gneiss 
Type:  Rocks
Class:  Metamorphic 
Subclass:  Gneiss 
Particle Size:  0-75 Micrometer
Sample No.:  gneiss2.doc
Owner:  JHU
Wavelength Range:  All
Origin:  Sample No. 466, The Hunt and Salisbury Collection at the U.S. 
Geological Survey, Denver, Co.
Description: This is a very coarse-grained rock composed of porphyroblasts of 
garnet frequently enclosing embayed remnants of tectosilicates and opaques.  
Larger grains of heavily altered alkali feldspar (oligoclase and K-spar) and quartz 
make up the bulk of the remainder of this rock.


Measurement:  Directional (10 Degree) Hemispherical Reflectance
First Column:  X
Second Column:  Y  
X Units:  Wavelength (micrometers)
Y Units:  Reflectance (percent)
First X Value: 14.9831
Last X Value:  0.4
Number of X Values: 2868
Additional Information:  gneiss2a.txt 

14.983	2.8172
14.940	2.8802
14.897	2.9583
14.854	3.0407
14.812	3.1165
14.770	3.1790
14.728	3.2254
14.686	3.2567
14.645	3.2740
14.603	3.2790
14.562	3.2718
14.521	3.2550
14.481	3.2323
14.441	3.2110
14.400	3.2006
14.361	3.2096
14.321	3.2446
14.281	3.3074
14.242	3.3940
14.203	3.4956
14.164	3.6010
14.126	3.6981
14.087	3.7777
14.049	3.8340
14.011	3.8660
13.973	3.8769
13.936	3.8715
13.899	3.8568
13.861	3.8390
13.824	3.8224
13.788	3.8104
13.751	3.8035
13.715	3.8014
13.679	3.8016
13.643	3.8018
13.607	3.7992
13.571	3.7919
13.536	3.7779
13.500	3.7573
13.465	3.7308
13.430	3.6993
13.396	3.6647
13.361	3.6285
13.327	3.5913
13.293	3.5539
13.259	3.5165
13.225	3.4791
13.191	3.4426
13.158	3.4087
13.124	3.3801
13.091	3.3592
13.058	3.3481
13.026	3.3483
12.993	3.3588
12.960	3.3772
12.928	3.3990
12.896	3.4187
12.864	3.4310
12.832	3.4324
12.800	3.4220
12.769	3.4028
12.737	3.3803
12.706	3.3611
12.675	3.3521
12.644	3.3564
12.614	3.3749
12.583	3.4042
12.552	3.4393
12.522	3.4743
12.492	3.5058
12.462	3.5328
12.432	3.5570
12.402	3.5825
12.373	3.6145
12.343	3.6567
12.314	3.7107
12.285	3.7763
12.256	3.8506
12.227	3.9304
12.198	4.0117
12.169	4.0922
12.141	4.1706
12.113	4.2478
12.084	4.3254
12.056	4.4060
12.028	4.4907
12.000	4.5810
11.973	4.6757
11.945	4.7730
11.918	4.8706
11.890	4.9648
11.863	5.0532
11.836	5.1337
11.809	5.2052
11.782	5.2687
11.755	5.3265
11.729	5.3821
11.702	5.4404
11.676	5.5064
11.650	5.5841
11.624	5.6755
11.598	5.7802
11.572	5.8932
11.546	6.0061
11.520	6.1072
11.495	6.1833
11.469	6.2209
11.444	6.2095
11.419	6.1449
11.394	6.0296
11.369	5.8742
11.344	5.6973
11.319	5.5211
11.294	5.3689
11.270	5.2597
11.245	5.2052
11.221	5.2069
11.197	5.2559
11.173	5.3355
11.149	5.4245
11.125	5.5022
11.101	5.5517
11.077	5.5630
11.054	5.5337
11.030	5.4674
11.007	5.3722
10.983	5.2568
10.960	5.1290
10.937	4.9928
10.914	4.8498
10.891	4.6989
10.868	4.5383
10.846	4.3678
10.823	4.1893
10.800	4.0081
10.778	3.8324
10.755	3.6714
10.733	3.5331
10.711	3.4246
10.689	3.3493
10.667	3.3071
10.645	3.2960
10.623	3.3121
10.602	3.3519
10.580	3.4125
10.558	3.4923
10.537	3.5908
10.516	3.7076
10.494	3.8414
10.473	3.9892
10.452	4.1457
10.431	4.3039
10.410	4.4552
10.389	4.5911
10.368	4.7043
10.348	4.7908
10.327	4.8490
10.306	4.8815
10.286	4.8929
10.266	4.8893
10.245	4.8767
10.225	4.8604
10.205	4.8443
10.185	4.8303
10.165	4.8187
10.145	4.8095
10.125	4.8022
10.106	4.7965
10.086	4.7927
10.066	4.7915
10.047	4.7934
10.027	4.7988
10.008	4.8069
9.9887	4.8164
9.9695	4.8254
9.9504	4.8313
9.9313	4.8327
9.9123	4.8282
9.8934	4.8173
9.8746	4.8005
9.8558	4.7792
9.8371	4.7550
9.8185	4.7297
9.7999	4.7041
9.7814	4.6792
9.7630	4.6553
9.7447	4.6316
9.7264	4.6070
9.7082	4.5810
9.6900	4.5528
9.6719	4.5227
9.6539	4.4910
9.6360	4.4590
9.6181	4.4275
9.6003	4.3974
9.5825	4.3688
9.5649	4.3413
9.5472	4.3153
9.5297	4.2911
9.5122	4.2705
9.4948	4.2577
9.4774	4.2572
9.4601	4.2748
9.4429	4.3157
9.4257	4.3835
9.4086	4.4779
9.3916	4.5961
9.3746	4.7309
9.3577	4.8730
9.3408	5.0113
9.3240	5.1365
9.3073	5.2412
9.2906	5.3208
9.2740	5.3750
9.2574	5.4063
9.2409	5.4191
9.2245	5.4186
9.2081	5.4091
9.1918	5.3947
9.1755	5.3779
9.1593	5.3601
9.1431	5.3426
9.1270	5.3255
9.1110	5.3096
9.0950	5.2952
9.0791	5.2817
9.0632	5.2692
9.0474	5.2573
9.0316	5.2467
9.0159	5.2374
9.0003	5.2310
8.9847	5.2287
8.9691	5.2310
8.9536	5.2379
8.9382	5.2485
8.9228	5.2613
8.9075	5.2737
8.8922	5.2834
8.8770	5.2883
8.8618	5.2881
8.8467	5.2827
8.8316	5.2734
8.8166	5.2625
8.8016	5.2509
8.7867	5.2388
8.7718	5.2244
8.7570	5.2031
8.7422	5.1695
8.7275	5.1176
8.7129	5.0444
8.6982	4.9521
8.6837	4.8493
8.6692	4.7510
8.6547	4.6762
8.6403	4.6430
8.6259	4.6641
8.6116	4.7432
8.5973	4.8739
8.5830	5.0406
8.5688	5.2234
8.5547	5.4020
8.5406	5.5609
8.5266	5.6916
8.5126	5.7935
8.4986	5.8704
8.4847	5.9303
8.4708	5.9810
8.4570	6.0291
8.4432	6.0788
8.4295	6.1326
8.4158	6.1908
8.4022	6.2534
8.3886	6.3199
8.3750	6.3907
8.3615	6.4660
8.3481	6.5465
8.3347	6.6337
8.3213	6.7282
8.3079	6.8307
8.2946	6.9415
8.2814	7.0600
8.2682	7.1838
8.2550	7.3100
8.2419	7.4339
8.2288	7.5495
8.2158	7.6496
8.2028	7.7264
8.1898	7.7728
8.1769	7.7832
8.1640	7.7550
8.1512	7.6887
8.1384	7.5885
8.1256	7.4621
8.1129	7.3181
8.1002	7.1665
8.0876	7.0159
8.0750	6.8733
8.0624	6.7440
8.0499	6.6306
8.0374	6.5333
8.0250	6.4509
8.0126	6.3812
8.0002	6.3216
7.9879	6.2688
7.9756	6.2202
7.9634	6.1738
7.9512	6.1286
7.9390	6.0840
7.9268	6.0412
7.9147	6.0011
7.9027	5.9659
7.8906	5.9372
7.8786	5.9176
7.8667	5.9093
7.8548	5.9138
7.8429	5.9334
7.8310	5.9687
7.8192	6.0196
7.8075	6.0845
7.7957	6.1608
7.7840	6.2446
7.7723	6.3322
7.7607	6.4196
7.7491	6.5041
7.7375	6.5842
7.7260	6.6590
7.7145	6.7294
7.7031	6.7954
7.6916	6.8575
7.6802	6.9157
7.6689	6.9702
7.6575	7.0209
7.6462	7.0685
7.6350	7.1139
7.6238	7.1594
7.6126	7.2070
7.6014	7.2582
7.5903	7.3145
7.5792	7.3763
7.5681	7.4429
7.5571	7.5125
7.5461	7.5831
7.5351	7.6522
7.5242	7.7185
7.5133	7.7803
7.5024	7.8384
7.4916	7.8931
7.4807	7.9468
7.4700	8.0011
7.4592	8.0579
7.4485	8.1180
7.4378	8.1810
7.4272	8.2457
7.4165	8.3101
7.4059	8.3721
7.3954	8.4299
7.3848	8.4823
7.3743	8.5289
7.3639	8.5711
7.3534	8.6101
7.3430	8.6485
7.3326	8.6888
7.3222	8.7328
7.3119	8.7828
7.3016	8.8399
7.2914	8.9047
7.2811	8.9775
7.2709	9.0568
7.2607	9.1416
7.2506	9.2294
7.2404	9.3185
7.2303	9.4070
7.2203	9.4939
7.2102	9.5794
7.2002	9.6649
7.1902	9.7521
7.1803	9.8435
7.1703	9.9413
7.1604	10.047
7.1506	10.160
7.1407	10.280
7.1309	10.404
7.1211	10.529
7.1113	10.650
7.1016	10.765
7.0919	10.872
7.0822	10.970
7.0725	11.063
7.0629	11.152
7.0533	11.239
7.0437	11.328
7.0341	11.417
7.0246	11.507
7.0151	11.596
7.0056	11.684
6.9962	11.769
6.9867	11.853
6.9773	11.937
6.9679	12.022
6.9586	12.109
6.9493	12.194
6.9400	12.274
6.9307	12.342
6.9214	12.394
6.9122	12.427
6.9030	12.441
6.8938	12.441
6.8847	12.432
6.8755	12.422
6.8664	12.417
6.8573	12.420
6.8483	12.431
6.8393	12.447
6.8302	12.463
6.8213	12.476
6.8123	12.483
6.8034	12.486
6.7944	12.487
6.7855	12.489
6.7767	12.494
6.7678	12.504
6.7590	12.517
6.7502	12.533
6.7414	12.552
6.7327	12.574
6.7239	12.603
6.7152	12.639
6.7065	12.686
6.6979	12.744
6.6892	12.809
6.6806	12.879
6.6720	12.950
6.6634	13.021
6.6549	13.089
6.6464	13.155
6.6378	13.218
6.6294	13.278
6.6209	13.332
6.6124	13.378
6.6040	13.414
6.5956	13.443
6.5872	13.469
6.5789	13.500
6.5705	13.544
6.5622	13.608
6.5539	13.695
6.5456	13.804
6.5374	13.931
6.5292	14.071
6.5209	14.220
6.5128	14.377
6.5046	14.542
6.4964	14.715
6.4883	14.892
6.4802	15.069
6.4721	15.233
6.4640	15.374
6.4560	15.481
6.4480	15.552
6.4399	15.590
6.4320	15.604
6.4240	15.608
6.4160	15.611
6.4081	15.618
6.4002	15.627
6.3923	15.632
6.3844	15.624
6.3766	15.596
6.3687	15.547
6.3609	15.479
6.3531	15.400
6.3454	15.317
6.3376	15.234
6.3299	15.152
6.3221	15.068
6.3144	14.978
6.3068	14.878
6.2991	14.766
6.2914	14.643
6.2838	14.514
6.2762	14.383
6.2686	14.257
6.2611	14.138
6.2535	14.028
6.2460	13.929
6.2385	13.840
6.2310	13.761
6.2235	13.695
6.2160	13.644
6.2086	13.616
6.2011	13.617
6.1937	13.653
6.1863	13.727
6.1790	13.840
6.1716	13.988
6.1643	14.160
6.1570	14.346
6.1496	14.535
6.1424	14.719
6.1351	14.893
6.1278	15.055
6.1206	15.206
6.1134	15.347
6.1062	15.475
6.0990	15.589
6.0918	15.683
6.0847	15.756
6.0776	15.810
6.0704	15.850
6.0633	15.886
6.0563	15.928
6.0492	15.982
6.0421	16.050
6.0351	16.125
6.0281	16.199
6.0211	16.259
6.0141	16.294
6.0071	16.300
6.0002	16.275
5.9932	16.224
5.9863	16.153
5.9794	16.070
5.9725	15.982
5.9657	15.898
5.9588	15.826
5.9520	15.774
5.9451	15.750
5.9383	15.756
5.9315	15.793
5.9247	15.857
5.9180	15.940
5.9112	16.035
5.9045	16.139
5.8978	16.249
5.8911	16.365
5.8844	16.487
5.8777	16.613
5.8711	16.735
5.8644	16.845
5.8578	16.930
5.8512	16.985
5.8446	17.006
5.8380	16.997
5.8314	16.966
5.8249	16.922
5.8184	16.871
5.8118	16.816
5.8053	16.755
5.7988	16.686
5.7923	16.607
5.7859	16.519
5.7794	16.427
5.7730	16.340
5.7666	16.264
5.7602	16.203
5.7538	16.158
5.7474	16.124
5.7410	16.096
5.7347	16.065
5.7283	16.027
5.7220	15.978
5.7157	15.919
5.7094	15.849
5.7031	15.771
5.6969	15.681
5.6906	15.580
5.6844	15.464
5.6782	15.332
5.6719	15.184
5.6657	15.024
5.6596	14.858
5.6534	14.695
5.6472	14.542
5.6411	14.407
5.6349	14.295
5.6288	14.207
5.6227	14.141
5.6166	14.094
5.6106	14.059
5.6045	14.035
5.5984	14.017
5.5924	14.007
5.5864	14.006
5.5804	14.017
5.5744	14.042
5.5684	14.085
5.5624	14.146
5.5564	14.226
5.5505	14.322
5.5445	14.433
5.5386	14.559
5.5327	14.697
5.5268	14.847
5.5209	15.006
5.5151	15.174
5.5092	15.350
5.5033	15.534
5.4975	15.723
5.4917	15.918
5.4859	16.118
5.4801	16.320
5.4743	16.521
5.4685	16.716
5.4628	16.897
5.4570	17.057
5.4513	17.189
5.4455	17.287
5.4398	17.347
5.4341	17.369
5.4284	17.354
5.4228	17.304
5.4171	17.222
5.4114	17.112
5.4058	16.977
5.4002	16.822
5.3945	16.653
5.3889	16.479
5.3833	16.309
5.3778	16.153
5.3722	16.021
5.3666	15.918
5.3611	15.851
5.3555	15.819
5.3500	15.822
5.3445	15.852
5.3390	15.906
5.3335	15.975
5.3280	16.055
5.3225	16.140
5.3171	16.229
5.3116	16.323
5.3062	16.423
5.3008	16.535
5.2954	16.663
5.2900	16.811
5.2846	16.982
5.2792	17.179
5.2738	17.402
5.2684	17.650
5.2631	17.922
5.2578	18.216
5.2524	18.530
5.2471	18.859
5.2418	19.200
5.2365	19.545
5.2312	19.887
5.2260	20.219
5.2207	20.533
5.2154	20.823
5.2102	21.085
5.2050	21.318
5.1998	21.522
5.1945	21.701
5.1893	21.857
5.1842	21.996
5.1790	22.121
5.1738	22.237
5.1686	22.348
5.1635	22.456
5.1584	22.566
5.1532	22.681
5.1481	22.801
5.1430	22.930
5.1379	23.067
5.1328	23.211
5.1277	23.359
5.1227	23.505
5.1176	23.643
5.1126	23.769
5.1075	23.878
5.1025	23.968
5.0975	24.039
5.0925	24.094
5.0875	24.139
5.0825	24.179
5.0775	24.222
5.0726	24.272
5.0676	24.332
5.0627	24.403
5.0577	24.483
5.0528	24.569
5.0479	24.655
5.0430	24.739
5.0380	24.818
5.0332	24.891
5.0283	24.960
5.0234	25.029
5.0185	25.102
5.0137	25.185
5.0088	25.284
5.0040	25.404
4.9992	25.549
4.9944	25.723
4.9896	25.930
4.9848	26.169
4.9800	26.438
4.9752	26.730
4.9704	27.036
4.9657	27.343
4.9609	27.638
4.9562	27.912
4.9514	28.158
4.9467	28.376
4.9420	28.573
4.9373	28.757
4.9326	28.945
4.9279	29.150
4.9232	29.383
4.9186	29.652
4.9139	29.956
4.9092	30.292
4.9046	30.651
4.9000	31.020
4.8953	31.385
4.8907	31.736
4.8861	32.063
4.8815	32.361
4.8769	32.629
4.8723	32.868
4.8678	33.081
4.8632	33.270
4.8586	33.440
4.8541	33.594
4.8495	33.734
4.8450	33.864
4.8405	33.985
4.8360	34.099
4.8315	34.208
4.8270	34.313
4.8225	34.414
4.8180	34.513
4.8135	34.609
4.8090	34.703
4.8046	34.795
4.8001	34.886
4.7957	34.976
4.7913	35.067
4.7868	35.159
4.7824	35.253
4.7780	35.351
4.7736	35.453
4.7692	35.559
4.7648	35.668
4.7605	35.779
4.7561	35.891
4.7517	36.001
4.7474	36.109
4.7431	36.212
4.7387	36.309
4.7344	36.401
4.7301	36.485
4.7258	36.561
4.7215	36.629
4.7172	36.686
4.7129	36.734
4.7086	36.773
4.7043	36.805
4.7000	36.834
4.6958	36.864
4.6915	36.901
4.6873	36.950
4.6831	37.014
4.6788	37.096
4.6746	37.195
4.6704	37.309
4.6662	37.436
4.6620	37.572
4.6578	37.712
4.6536	37.855
4.6495	37.998
4.6453	38.141
4.6411	38.283
4.6370	38.424
4.6328	38.565
4.6287	38.703
4.6246	38.839
4.6205	38.972
4.6163	39.101
4.6122	39.226
4.6081	39.347
4.6040	39.463
4.6000	39.576
4.5959	39.686
4.5918	39.793
4.5877	39.898
4.5837	40.002
4.5796	40.105
4.5756	40.206
4.5716	40.305
4.5675	40.402
4.5635	40.495
4.5595	40.585
4.5555	40.669
4.5515	40.748
4.5475	40.819
4.5435	40.882
4.5395	40.937
4.5356	40.982
4.5316	41.017
4.5276	41.042
4.5237	41.059
4.5197	41.067
4.5158	41.070
4.5119	41.070
4.5080	41.070
4.5040	41.072
4.5001	41.078
4.4962	41.091
4.4923	41.111
4.4884	41.138
4.4846	41.173
4.4807	41.216
4.4768	41.267
4.4730	41.327
4.4691	41.397
4.4652	41.477
4.4614	41.566
4.4576	41.663
4.4537	41.765
4.4499	41.868
4.4461	41.971
4.4423	42.071
4.4385	42.167
4.4347	42.260
4.4309	42.351
4.4271	42.441
4.4233	42.532
4.4196	42.624
4.4158	42.717
4.4120	42.811
4.4083	42.904
4.4045	42.998
4.4008	43.090
4.3971	43.180
4.3934	43.268
4.3896	43.352
4.3859	43.431
4.3822	43.504
4.3785	43.567
4.3748	43.620
4.3711	43.662
4.3674	43.692
4.3638	43.712
4.3601	43.725
4.3564	43.737
4.3528	43.752
4.3491	43.774
4.3455	43.809
4.3418	43.857
4.3382	43.921
4.3346	43.997
4.3310	44.083
4.3273	44.175
4.3237	44.269
4.3201	44.362
4.3165	44.451
4.3129	44.535
4.3094	44.612
4.3058	44.685
4.3022	44.754
4.2986	44.820
4.2951	44.885
4.2915	44.949
4.2880	45.013
4.2844	45.078
4.2809	45.144
4.2774	45.212
4.2738	45.281
4.2703	45.352
4.2668	45.425
4.2633	45.497
4.2598	45.566
4.2563	45.632
4.2528	45.690
4.2493	45.743
4.2458	45.789
4.2424	45.831
4.2389	45.872
4.2354	45.914
4.2320	45.957
4.2285	46.003
4.2251	46.050
4.2216	46.096
4.2182	46.140
4.2148	46.181
4.2113	46.218
4.2079	46.251
4.2045	46.283
4.2011	46.313
4.1977	46.345
4.1943	46.379
4.1909	46.415
4.1875	46.453
4.1841	46.494
4.1808	46.536
4.1774	46.579
4.1740	46.624
4.1707	46.668
4.1673	46.711
4.1640	46.754
4.1606	46.795
4.1573	46.835
4.1540	46.874
4.1506	46.911
4.1473	46.948
4.1440	46.983
4.1407	47.018
4.1374	47.053
4.1341	47.088
4.1308	47.123
4.1275	47.159
4.1242	47.196
4.1209	47.232
4.1177	47.269
4.1144	47.305
4.1111	47.341
4.1079	47.376
4.1046	47.411
4.1014	47.445
4.0981	47.478
4.0949	47.511
4.0917	47.543
4.0884	47.573
4.0852	47.603
4.0820	47.631
4.0788	47.659
4.0756	47.685
4.0724	47.711
4.0692	47.737
4.0660	47.762
4.0628	47.787
4.0596	47.812
4.0565	47.836
4.0533	47.860
4.0501	47.883
4.0470	47.904
4.0438	47.923
4.0406	47.938
4.0375	47.951
4.0344	47.961
4.0312	47.969
4.0281	47.977
4.0250	47.984
4.0218	47.993
4.0187	48.003
4.0156	48.015
4.0125	48.027
4.0094	48.041
4.0063	48.054
4.0032	48.067
4.0001	48.079
3.9970	48.092
3.9940	48.104
3.9909	48.117
3.9878	48.129
3.9847	48.143
3.9817	48.156
3.9786	48.171
3.9756	48.186
3.9725	48.202
3.9695	48.221
3.9665	48.243
3.9634	48.267
3.9604	48.294
3.9574	48.322
3.9544	48.352
3.9513	48.381
3.9483	48.409
3.9453	48.435
3.9423	48.458
3.9393	48.478
3.9363	48.496
3.9333	48.511
3.9304	48.523
3.9274	48.533
3.9244	48.541
3.9214	48.547
3.9185	48.551
3.9155	48.554
3.9126	48.556
3.9096	48.557
3.9067	48.558
3.9037	48.559
3.9008	48.559
3.8979	48.559
3.8949	48.557
3.8920	48.554
3.8891	48.549
3.8862	48.541
3.8833	48.531
3.8804	48.519
3.8775	48.507
3.8746	48.495
3.8717	48.485
3.8688	48.475
3.8659	48.468
3.8630	48.462
3.8601	48.456
3.8573	48.450
3.8544	48.442
3.8515	48.433
3.8487	48.422
3.8458	48.410
3.8430	48.397
3.8401	48.384
3.8373	48.373
3.8344	48.363
3.8316	48.357
3.8288	48.352
3.8259	48.348
3.8231	48.345
3.8203	48.342
3.8175	48.337
3.8147	48.332
3.8119	48.324
3.8091	48.316
3.8063	48.307
3.8035	48.297
3.8007	48.285
3.7979	48.271
3.7951	48.256
3.7924	48.238
3.7896	48.219
3.7868	48.199
3.7841	48.179
3.7813	48.159
3.7785	48.139
3.7758	48.120
3.7730	48.099
3.7703	48.078
3.7676	48.054
3.7648	48.029
3.7621	48.002
3.7594	47.974
3.7566	47.947
3.7539	47.921
3.7512	47.897
3.7485	47.876
3.7458	47.856
3.7431	47.837
3.7404	47.819
3.7377	47.800
3.7350	47.781
3.7323	47.761
3.7296	47.742
3.7269	47.724
3.7242	47.707
3.7216	47.692
3.7189	47.679
3.7162	47.668
3.7136	47.657
3.7109	47.647
3.7083	47.636
3.7056	47.625
3.7030	47.613
3.7003	47.599
3.6977	47.584
3.6950	47.568
3.6924	47.551
3.6898	47.534
3.6872	47.517
3.6845	47.501
3.6819	47.487
3.6793	47.474
3.6767	47.461
3.6741	47.447
3.6715	47.432
3.6689	47.414
3.6663	47.393
3.6637	47.371
3.6611	47.347
3.6585	47.324
3.6560	47.300
3.6534	47.277
3.6508	47.253
3.6482	47.228
3.6457	47.201
3.6431	47.172
3.6406	47.141
3.6380	47.109
3.6355	47.075
3.6329	47.040
3.6304	47.005
3.6278	46.969
3.6253	46.933
3.6227	46.898
3.6202	46.865
3.6177	46.832
3.6152	46.801
3.6127	46.770
3.6101	46.737
3.6076	46.703
3.6051	46.667
3.6026	46.628
3.6001	46.585
3.5976	46.541
3.5951	46.495
3.5926	46.450
3.5901	46.405
3.5876	46.364
3.5852	46.325
3.5827	46.287
3.5802	46.251
3.5777	46.214
3.5753	46.175
3.5728	46.133
3.5704	46.089
3.5679	46.042
3.5654	45.993
3.5630	45.944
3.5605	45.897
3.5581	45.851
3.5557	45.807
3.5532	45.765
3.5508	45.724
3.5484	45.683
3.5459	45.641
3.5435	45.599
3.5411	45.554
3.5387	45.508
3.5363	45.461
3.5338	45.414
3.5314	45.365
3.5290	45.316
3.5266	45.266
3.5242	45.215
3.5218	45.161
3.5195	45.106
3.5171	45.048
3.5147	44.988
3.5123	44.927
3.5099	44.863
3.5075	44.800
3.5052	44.738
3.5028	44.678
3.5004	44.621
3.4981	44.568
3.4957	44.519
3.4934	44.475
3.4910	44.434
3.4887	44.395
3.4863	44.357
3.4840	44.318
3.4816	44.278
3.4793	44.234
3.4770	44.188
3.4746	44.141
3.4723	44.093
3.4700	44.047
3.4677	44.001
3.4653	43.956
3.4630	43.910
3.4607	43.863
3.4584	43.812
3.4561	43.757
3.4538	43.696
3.4515	43.632
3.4492	43.565
3.4469	43.496
3.4446	43.429
3.4423	43.361
3.4400	43.296
3.4378	43.231
3.4355	43.167
3.4332	43.103
3.4309	43.037
3.4287	42.969
3.4264	42.899
3.4241	42.826
3.4219	42.750
3.4196	42.673
3.4174	42.594
3.4151	42.516
3.4129	42.440
3.4106	42.368
3.4084	42.300
3.4061	42.237
3.4039	42.179
3.4017	42.123
3.3994	42.068
3.3972	42.011
3.3950	41.950
3.3928	41.885
3.3906	41.814
3.3883	41.739
3.3861	41.661
3.3839	41.581
3.3817	41.502
3.3795	41.426
3.3773	41.352
3.3751	41.282
3.3729	41.215
3.3707	41.148
3.3685	41.080
3.3663	41.010
3.3641	40.937
3.3620	40.858
3.3598	40.776
3.3576	40.691
3.3554	40.604
3.3533	40.515
3.3511	40.425
3.3489	40.337
3.3468	40.249
3.3446	40.164
3.3425	40.081
3.3403	40.000
3.3382	39.921
3.3360	39.843
3.3339	39.764
3.3317	39.683
3.3296	39.598
3.3274	39.510
3.3253	39.420
3.3232	39.328
3.3210	39.238
3.3189	39.151
3.3168	39.066
3.3147	38.985
3.3126	38.905
3.3104	38.823
3.3083	38.738
3.3062	38.649
3.3041	38.554
3.3020	38.454
3.2999	38.352
3.2978	38.249
3.2957	38.148
3.2936	38.050
3.2915	37.956
3.2894	37.867
3.2874	37.780
3.2853	37.695
3.2832	37.609
3.2811	37.519
3.2790	37.424
3.2770	37.324
3.2749	37.218
3.2728	37.108
3.2708	36.998
3.2687	36.889
3.2666	36.783
3.2646	36.680
3.2625	36.581
3.2605	36.481
3.2584	36.380
3.2564	36.276
3.2543	36.167
3.2523	36.053
3.2503	35.936
3.2482	35.817
3.2462	35.699
3.2442	35.584
3.2421	35.473
3.2401	35.366
3.2381	35.261
3.2361	35.159
3.2340	35.057
3.2320	34.954
3.2300	34.850
3.2280	34.743
3.2260	34.633
3.2240	34.520
3.2220	34.404
3.2200	34.286
3.2180	34.164
3.2160	34.040
3.2140	33.913
3.2120	33.784
3.2100	33.655
3.2080	33.526
3.2060	33.397
3.2040	33.270
3.2021	33.145
3.2001	33.021
3.1981	32.896
3.1961	32.771
3.1942	32.643
3.1922	32.511
3.1902	32.375
3.1883	32.235
3.1863	32.093
3.1844	31.951
3.1824	31.808
3.1805	31.668
3.1785	31.529
3.1766	31.392
3.1746	31.255
3.1727	31.118
3.1707	30.980
3.1688	30.841
3.1669	30.699
3.1649	30.555
3.1630	30.408
3.1611	30.258
3.1591	30.105
3.1572	29.950
3.1553	29.793
3.1534	29.636
3.1515	29.480
3.1495	29.326
3.1476	29.174
3.1457	29.024
3.1438	28.873
3.1419	28.720
3.1400	28.566
3.1381	28.410
3.1362	28.253
3.1343	28.096
3.1324	27.940
3.1305	27.787
3.1286	27.635
3.1268	27.486
3.1249	27.338
3.1230	27.192
3.1211	27.046
3.1192	26.903
3.1174	26.760
3.1155	26.620
3.1136	26.480
3.1117	26.340
3.1099	26.200
3.1080	26.058
3.1061	25.915
3.1043	25.771
3.1024	25.626
3.1006	25.483
3.0987	25.341
3.0969	25.201
3.0950	25.065
3.0932	24.930
3.0913	24.797
3.0895	24.665
3.0876	24.534
3.0858	24.404
3.0840	24.275
3.0821	24.147
3.0803	24.020
3.0785	23.894
3.0766	23.768
3.0748	23.643
3.0730	23.517
3.0712	23.390
3.0694	23.262
3.0675	23.133
3.0657	23.003
3.0639	22.874
3.0621	22.746
3.0603	22.619
3.0585	22.495
3.0567	22.372
3.0549	22.251
3.0531	22.130
3.0513	22.009
3.0495	21.889
3.0477	21.769
3.0459	21.649
3.0441	21.529
3.0423	21.409
3.0406	21.289
3.0388	21.170
3.0370	21.050
3.0352	20.932
3.0334	20.816
3.0317	20.701
3.0299	20.587
3.0281	20.474
3.0264	20.361
3.0246	20.247
3.0228	20.133
3.0211	20.020
3.0193	19.909
3.0176	19.800
3.0158	19.695
3.0140	19.594
3.0123	19.494
3.0105	19.396
3.0088	19.298
3.0070	19.199
3.0053	19.098
3.0036	18.996
3.0018	18.894
3.0001	18.791
2.9984	18.690
2.9966	18.590
2.9949	18.491
2.9932	18.394
2.9914	18.298
2.9897	18.204
2.9880	18.111
2.9863	18.018
2.9845	17.926
2.9828	17.833
2.9811	17.742
2.9794	17.651
2.9777	17.561
2.9760	17.475
2.9743	17.392
2.9726	17.312
2.9709	17.234
2.9692	17.160
2.9675	17.088
2.9658	17.018
2.9641	16.953
2.9624	16.893
2.9607	16.837
2.9590	16.787
2.9573	16.740
2.9556	16.695
2.9539	16.650
2.9523	16.605
2.9506	16.559
2.9489	16.513
2.9472	16.469
2.9455	16.429
2.9439	16.396
2.9422	16.371
2.9405	16.353
2.9389	16.343
2.9372	16.337
2.9355	16.333
2.9339	16.331
2.9322	16.328
2.9306	16.327
2.9289	16.327
2.9272	16.331
2.9256	16.341
2.9239	16.357
2.9223	16.379
2.9207	16.407
2.9190	16.437
2.9174	16.469
2.9157	16.499
2.9141	16.527
2.9124	16.553
2.9108	16.579
2.9092	16.603
2.9075	16.630
2.9059	16.659
2.9043	16.692
2.9027	16.730
2.9010	16.771
2.8994	16.816
2.8978	16.863
2.8962	16.911
2.8946	16.958
2.8929	17.004
2.8913	17.048
2.8897	17.090
2.8881	17.129
2.8865	17.165
2.8849	17.198
2.8833	17.228
2.8817	17.254
2.8801	17.279
2.8785	17.303
2.8769	17.328
2.8753	17.354
2.8737	17.381
2.8721	17.408
2.8705	17.433
2.8689	17.454
2.8673	17.471
2.8658	17.483
2.8642	17.489
2.8626	17.491
2.8610	17.489
2.8594	17.484
2.8579	17.477
2.8563	17.467
2.8547	17.454
2.8531	17.437
2.8516	17.417
2.8500	17.393
2.8484	17.365
2.8469	17.334
2.8453	17.301
2.8437	17.266
2.8422	17.231
2.8406	17.197
2.8391	17.162
2.8375	17.128
2.8360	17.095
2.8344	17.063
2.8329	17.034
2.8313	17.006
2.8298	16.981
2.8282	16.959
2.8267	16.942
2.8252	16.929
2.8236	16.922
2.8221	16.920
2.8205	16.924
2.8190	16.931
2.8175	16.940
2.8159	16.947
2.8144	16.952
2.8129	16.951
2.8114	16.945
2.8098	16.936
2.8083	16.924
2.8068	16.915
2.8053	16.909
2.8038	16.907
2.8022	16.907
2.8007	16.906
2.7992	16.897
2.7977	16.874
2.7962	16.830
2.7947	16.762
2.7932	16.666
2.7917	16.543
2.7902	16.395
2.7887	16.223
2.7872	16.031
2.7857	15.819
2.7842	15.592
2.7827	15.348
2.7812	15.090
2.7797	14.821
2.7782	14.544
2.7767	14.263
2.7752	13.982
2.7738	13.705
2.7723	13.435
2.7708	13.174
2.7693	12.925
2.7678	12.689
2.7664	12.468
2.7649	12.265
2.7634	12.085
2.7619	11.935
2.7605	11.825
2.7590	11.763
2.7575	11.758
2.7561	11.816
2.7546	11.938
2.7531	12.120
2.7517	12.351
2.7502	12.621
2.7488	12.916
2.7473	13.226
2.7458	13.546
2.7444	13.877
2.7429	14.225
2.7415	14.599
2.7400	15.011
2.7386	15.468
2.7371	15.976
2.7357	16.535
2.7343	17.144
2.7328	17.801
2.7314	18.503
2.7299	19.254
2.7285	20.061
2.7271	20.936
2.7256	21.890
2.7242	22.931
2.7228	24.058
2.7213	25.259
2.7199	26.507
2.7185	27.765
2.7171	28.993
2.7156	30.151
2.7142	31.209
2.7128	32.151
2.7114	32.978
2.7100	33.702
2.7085	34.346
2.7071	34.937
2.7057	35.499
2.7043	36.052
2.7029	36.612
2.7015	37.187
2.7001	37.786
2.6987	38.410
2.6973	39.062
2.6959	39.742
2.6945	40.445
2.6931	41.163
2.6917	41.879
2.6903	42.573
2.6889	43.224
2.6875	43.811
2.6861	44.319
2.6847	44.741
2.6833	45.082
2.6819	45.352
2.6805	45.562
2.6791	45.728
2.6778	45.855
2.6764	45.951
2.6750	46.017
2.6736	46.059
2.6722	46.085
2.6709	46.112
2.6695	46.158
2.6681	46.240
2.6667	46.370
2.6654	46.549
2.6640	46.763
2.6626	46.994
2.6613	47.217
2.6599	47.411
2.6585	47.567
2.6572	47.681
2.6558	47.759
2.6545	47.813
2.6531	47.854
2.6517	47.890
2.6504	47.924
2.6490	47.957
2.6477	47.987
2.6463	48.016
2.6450	48.044
2.6436	48.071
2.6423	48.095
2.6409	48.113
2.6396	48.117
2.6382	48.098
2.6369	48.052
2.6356	47.980
2.6342	47.891
2.6329	47.800
2.6315	47.723
2.6302	47.672
2.6289	47.649
2.6275	47.650
2.6262	47.660
2.6249	47.665
2.6236	47.656
2.6222	47.631
2.6209	47.598
2.6196	47.572
2.6183	47.564
2.6169	47.579
2.6156	47.612
2.6143	47.648
2.6130	47.671
2.6117	47.671
2.6103	47.646
2.6090	47.606
2.6077	47.567
2.6064	47.543
2.6051	47.539
2.6038	47.552
2.6025	47.565
2.6012	47.563
2.5999	47.534
2.5986	47.482
2.5973	47.420
2.5960	47.370
2.5947	47.349
2.5934	47.368
2.5921	47.421
2.5908	47.493
2.5895	47.564
2.5882	47.620
2.5869	47.654
2.5856	47.670
2.5843	47.678
2.5830	47.687
2.5817	47.701
2.5805	47.719
2.5792	47.736
2.5779	47.746
2.5766	47.747
2.5753	47.742
2.5741	47.735
2.5728	47.730
2.5715	47.729
2.5702	47.729
2.5690	47.725
2.5677	47.716
2.5664	47.700
2.5651	47.684
2.5639	47.675
2.5626	47.682
2.5613	47.708
2.5601	47.750
2.5588	47.800
2.5575	47.847
2.5563	47.883
2.5550	47.901
2.5538	47.902
2.5525	47.891
2.5513	47.876
2.5500	47.862
2.5487	47.854
2.5475	47.852
2.5462	47.855
2.5450	47.861
2.5437	47.866
2.5425	47.870
2.5413	47.872
2.5400	47.870
2.5388	47.865
2.5375	47.856
2.5363	47.843
2.5350	47.827
2.5338	47.810
2.5326	47.793
2.5313	47.778
2.5301	47.768
2.5289	47.762
2.5276	47.758
2.5264	47.757
2.5252	47.756
2.5239	47.753
2.5227	47.749
2.5215	47.743
2.5202	47.733
2.5190	47.719
2.5178	47.701
2.5166	47.679
2.5154	47.654
2.5141	47.628
2.5129	47.601
2.5117	47.576
2.5105	47.554
2.5093	47.534
2.5081	47.517
2.5068	47.501
2.5056	47.486
2.5044	47.472
2.5032	47.458
2.5020	47.445
2.5008	47.434
2.4996	47.427
2.4984	47.422
2.4972	47.419
2.4960	47.416
2.4948	47.413
2.4936	47.406
2.4924	47.397
2.4912	47.383
2.4900	47.367
2.4888	47.349
2.4876	47.332
2.4864	47.316
2.4852	47.304
2.4840	47.293
2.4828	47.284
2.4816	47.275
2.4805	47.264
2.4793	47.251
2.4781	47.234
2.4769	47.216
2.4757	47.197
2.4745	47.179
2.4734	47.163
2.4722	47.152
2.4710	47.145
2.4698	47.140
2.4686	47.137
2.4675	47.132
2.4663	47.125
2.4651	47.115
2.4640	47.100
2.4628	47.083
2.4616	47.064
2.4604	47.044
2.4593	47.024
2.4581	47.002
2.4569	46.979
2.4558	46.952
2.4546	46.924
2.4535	46.895
2.4523	46.868
2.4511	46.845
2.4500	46.830
2.4488	46.821
2.4477	46.818
2.4465	46.817
2.4454	46.815
2.4442	46.810
2.4431	46.802
2.4419	46.792
2.4408	46.781
2.4396	46.772
2.4385	46.766
2.4373	46.764
2.4362	46.765
2.4350	46.769
2.4339	46.774
2.4327	46.780
2.4316	46.786
2.4305	46.794
2.4293	46.804
2.4282	46.816
2.4270	46.832
2.4259	46.850
2.4248	46.870
2.4236	46.891
2.4225	46.912
2.4214	46.931
2.4202	46.946
2.4191	46.959
2.4180	46.971
2.4169	46.982
2.4157	46.994
2.4146	47.007
2.4135	47.021
2.4124	47.037
2.4112	47.051
2.4101	47.064
2.4090	47.075
2.4079	47.084
2.4068	47.091
2.4056	47.096
2.4045	47.100
2.4034	47.102
2.4023	47.103
2.4012	47.100
2.4001	47.096
2.3990	47.088
2.3979	47.078
2.3967	47.065
2.3956	47.050
2.3945	47.031
2.3934	47.009
2.3923	46.984
2.3912	46.958
2.3901	46.930
2.3890	46.905
2.3879	46.885
2.3868	46.869
2.3857	46.857
2.3846	46.847
2.3835	46.836
2.3824	46.821
2.3813	46.799
2.3802	46.772
2.3791	46.740
2.3781	46.708
2.3770	46.679
2.3759	46.656
2.3748	46.640
2.3737	46.631
2.3726	46.626
2.3715	46.622
2.3704	46.617
2.3694	46.609
2.3683	46.596
2.3672	46.579
2.3661	46.560
2.3650	46.539
2.3640	46.517
2.3629	46.494
2.3618	46.472
2.3607	46.450
2.3597	46.429
2.3586	46.410
2.3575	46.394
2.3564	46.380
2.3554	46.368
2.3543	46.357
2.3532	46.344
2.3522	46.329
2.3511	46.314
2.3500	46.300
2.3490	46.289
2.3479	46.284
2.3468	46.287
2.3458	46.296
2.3447	46.313
2.3436	46.334
2.3426	46.360
2.3415	46.388
2.3405	46.419
2.3394	46.452
2.3384	46.486
2.3373	46.521
2.3363	46.557
2.3352	46.592
2.3342	46.628
2.3331	46.665
2.3321	46.702
2.3310	46.741
2.3300	46.781
2.3289	46.819
2.3279	46.857
2.3268	46.892
2.3258	46.925
2.3247	46.955
2.3237	46.985
2.3226	47.015
2.3216	47.045
2.3206	47.077
2.3195	47.110
2.3185	47.143
2.3175	47.177
2.3164	47.211
2.3154	47.245
2.3144	47.280
2.3133	47.316
2.3123	47.354
2.3113	47.393
2.3102	47.431
2.3092	47.469
2.3082	47.503
2.3071	47.531
2.3061	47.554
2.3051	47.572
2.3041	47.585
2.3030	47.595
2.3020	47.604
2.3010	47.614
2.3000	47.625
2.2990	47.637
2.2979	47.652
2.2969	47.670
2.2959	47.689
2.2949	47.709
2.2939	47.729
2.2929	47.747
2.2918	47.760
2.2908	47.768
2.2898	47.771
2.2888	47.770
2.2878	47.768
2.2868	47.766
2.2858	47.766
2.2848	47.768
2.2838	47.769
2.2828	47.767
2.2818	47.761
2.2808	47.749
2.2798	47.733
2.2787	47.713
2.2777	47.692
2.2767	47.672
2.2757	47.657
2.2747	47.645
2.2738	47.636
2.2728	47.627
2.2718	47.617
2.2708	47.603
2.2698	47.585
2.2688	47.564
2.2678	47.540
2.2668	47.516
2.2658	47.492
2.2648	47.469
2.2638	47.448
2.2628	47.428
2.2618	47.410
2.2609	47.395
2.2599	47.383
2.2589	47.379
2.2579	47.381
2.2569	47.392
2.2559	47.409
2.2550	47.432
2.2540	47.457
2.2530	47.482
2.2520	47.505
2.2510	47.527
2.2501	47.550
2.2491	47.576
2.2481	47.606
2.2471	47.641
2.2462	47.679
2.2452	47.715
2.2442	47.746
2.2433	47.768
2.2423	47.780
2.2413	47.785
2.2403	47.785
2.2394	47.784
2.2384	47.785
2.2374	47.790
2.2365	47.794
2.2355	47.796
2.2345	47.791
2.2336	47.778
2.2326	47.758
2.2317	47.735
2.2307	47.710
2.2297	47.689
2.2288	47.673
2.2278	47.659
2.2269	47.644
2.2259	47.623
2.2250	47.595
2.2240	47.558
2.2231	47.514
2.2221	47.466
2.2211	47.419
2.2202	47.375
2.2192	47.337
2.2183	47.304
2.2173	47.275
2.2164	47.246
2.2155	47.215
2.2145	47.181
2.2136	47.143
2.2126	47.102
2.2117	47.061
2.2107	47.023
2.2098	46.994
2.2088	46.975
2.2079	46.968
2.2070	46.973
2.2060	46.986
2.2051	47.003
2.2041	47.021
2.2032	47.035
2.2023	47.045
2.2013	47.053
2.2004	47.061
2.1995	47.072
2.1985	47.092
2.1976	47.121
2.1967	47.160
2.1957	47.206
2.1948	47.257
2.1939	47.312
2.1930	47.367
2.1920	47.420
2.1911	47.471
2.1902	47.520
2.1893	47.567
2.1883	47.614
2.1874	47.662
2.1865	47.711
2.1856	47.763
2.1846	47.817
2.1837	47.874
2.1828	47.932
2.1819	47.992
2.1810	48.053
2.1800	48.115
2.1791	48.177
2.1782	48.239
2.1773	48.298
2.1764	48.353
2.1755	48.401
2.1746	48.444
2.1736	48.479
2.1727	48.511
2.1718	48.538
2.1709	48.563
2.1700	48.586
2.1691	48.606
2.1682	48.624
2.1673	48.637
2.1664	48.648
2.1655	48.656
2.1646	48.663
2.1637	48.671
2.1628	48.682
2.1619	48.698
2.1610	48.718
2.1601	48.742
2.1592	48.768
2.1583	48.794
2.1574	48.816
2.1565	48.832
2.1556	48.841
2.1547	48.844
2.1538	48.845
2.1529	48.849
2.1520	48.862
2.1511	48.884
2.1502	48.917
2.1493	48.954
2.1484	48.990
2.1475	49.018
2.1466	49.032
2.1458	49.033
2.1449	49.023
2.1440	49.010
2.1431	49.000
2.1422	48.997
2.1413	49.004
2.1404	49.017
2.1396	49.034
2.1387	49.050
2.1378	49.062
2.1369	49.069
2.1360	49.073
2.1352	49.076
2.1343	49.079
2.1334	49.083
2.1325	49.087
2.1316	49.088
2.1308	49.086
2.1299	49.080
2.1290	49.071
2.1281	49.060
2.1273	49.053
2.1264	49.052
2.1255	49.060
2.1247	49.079
2.1238	49.105
2.1229	49.138
2.1220	49.171
2.1212	49.200
2.1203	49.221
2.1194	49.230
2.1186	49.228
2.1177	49.217
2.1168	49.200
2.1160	49.184
2.1151	49.172
2.1143	49.168
2.1134	49.174
2.1125	49.188
2.1117	49.208
2.1108	49.231
2.1100	49.254
2.1091	49.275
2.1082	49.295
2.1074	49.311
2.1065	49.324
2.1057	49.334
2.1048	49.339
2.1040	49.341
2.1031	49.339
2.1023	49.335
2.1014	49.332
2.1005	49.331
2.0997	49.333
2.0988	49.338
2.0980	49.344
2.0971	49.351
2.0963	49.357
2.0955	49.364
2.0946	49.373
2.0938	49.385
2.0929	49.399
2.0921	49.416
2.0912	49.431
2.0904	49.443
2.0895	49.449
2.0887	49.448
2.0879	49.442
2.0870	49.434
2.0862	49.432
2.0853	49.435
2.0845	49.452
2.0837	49.479
2.0828	49.494
2.0820	49.527
2.0812	49.506
2.0803	49.433
2.0795	49.437
2.0760	49.437
2.0720	49.437
2.0680	49.397
2.0640	49.397
2.0600	49.451
2.0560	49.491
2.0520	49.451
2.0480	49.424
2.0440	49.384
2.0400	49.343
2.0360	49.317
2.0320	49.023
2.0280	48.905
2.0240	48.851
2.0200	48.836
2.0160	48.984
2.0120	48.958
2.0080	48.786
2.0040	48.615
2.0000	48.483
1.9960	48.459
1.9920	48.498
1.9880	48.513
1.9840	48.328
1.9800	48.251
1.9760	48.228
1.9720	48.281
1.9680	48.519
1.9640	48.166
1.9600	48.097
1.9560	48.043
1.9520	47.637
1.9480	47.507
1.9440	47.507
1.9400	47.269
1.9360	47.235
1.9320	47.379
1.9280	47.483
1.9240	47.318
1.9200	47.692
1.9160	47.746
1.9120	47.653
1.9080	47.653
1.9040	47.657
1.9000	47.637
1.8960	47.718
1.8920	47.531
1.8880	47.518
1.8840	47.460
1.8800	47.584
1.8760	47.869
1.8720	47.866
1.8680	47.572
1.8640	47.735
1.8600	47.670
1.8560	47.493
1.8520	47.419
1.8480	47.374
1.8440	47.581
1.8400	47.774
1.8360	47.796
1.8320	47.921
1.8280	47.742
1.8240	47.534
1.8200	47.097
1.8160	47.060
1.8120	46.861
1.8080	46.825
1.8040	46.934
1.8000	47.024
1.7960	46.932
1.7920	46.557
1.7880	46.413
1.7840	46.503
1.7800	46.575
1.7760	46.324
1.7720	45.984
1.7680	45.939
1.7640	45.850
1.7600	45.681
1.7560	45.646
1.7520	45.630
1.7480	45.738
1.7440	46.111
1.7400	46.271
1.7360	46.683
1.7320	46.792
1.7280	46.865
1.7240	46.865
1.7200	46.612
1.7160	46.162
1.7120	46.198
1.7080	46.315
1.7040	46.288
1.7000	46.120
1.6960	46.137
1.6920	46.120
1.6880	46.191
1.6840	45.856
1.6800	46.217
1.6760	46.342
1.6720	45.904
1.6680	45.834
1.6640	45.869
1.6600	45.994
1.6560	46.191
1.6520	46.370
1.6480	46.120
1.6440	46.351
1.6400	45.940
1.6360	45.940
1.6320	46.135
1.6280	46.244
1.6240	45.904
1.6200	45.834
1.6160	45.783
1.6120	45.926
1.6080	46.316
1.6040	46.315
1.6000	46.171
1.5960	46.244
1.5920	46.081
1.5880	46.046
1.5840	46.351
1.5800	46.584
1.5760	46.350
1.5720	46.189
1.5680	46.227
1.5640	46.247
1.5600	45.895
1.5560	45.825
1.5520	45.876
1.5480	46.105
1.5440	46.069
1.5400	46.072
1.5360	46.210
1.5320	46.227
1.5280	46.352
1.5240	46.424
1.5200	46.105
1.5160	46.301
1.5120	46.496
1.5080	46.818
1.5040	46.855
1.5000	46.765
1.4960	46.290
1.4920	45.605
1.4880	45.555
1.4840	45.575
1.4800	45.347
1.4760	45.367
1.4720	45.333
1.4680	45.749
1.4640	45.800
1.4600	45.660
1.4560	45.266
1.4520	45.073
1.4480	44.881
1.4440	44.838
1.4400	44.839
1.4360	44.817
1.4320	44.886
1.4280	44.727
1.4240	44.625
1.4200	44.501
1.4160	44.142
1.4120	43.769
1.4080	43.543
1.4040	43.164
1.4000	43.081
1.3960	43.205
1.3920	43.163
1.3880	42.966
1.3840	42.842
1.3800	43.147
1.3760	43.314
1.3720	43.032
1.3680	42.983
1.3640	42.851
1.3600	42.790
1.3560	42.633
1.3520	42.509
1.3480	42.324
1.3440	42.439
1.3400	42.281
1.3360	42.078
1.3320	42.088
1.3280	42.062
1.3240	42.013
1.3200	41.767
1.3160	41.567
1.3120	41.536
1.3080	41.536
1.3040	41.474
1.3000	41.474
1.2960	41.296
1.2920	41.388
1.2880	41.271
1.2840	41.245
1.2800	41.463
1.2760	41.651
1.2720	41.651
1.2680	41.746
1.2640	41.726
1.2600	41.544
1.2560	41.481
1.2520	41.390
1.2480	41.814
1.2440	41.987
1.2400	41.905
1.2360	42.027
1.2320	41.968
1.2280	42.277
1.2240	42.240
1.2200	42.390
1.2160	42.454
1.2120	42.448
1.2080	42.501
1.2040	42.501
1.2000	42.592
1.1960	42.659
1.1920	42.743
1.1880	42.639
1.1840	42.877
1.1800	42.935
1.1760	42.929
1.1720	43.133
1.1680	43.223
1.1640	43.232
1.1600	43.319
1.1560	43.391
1.1520	43.439
1.1480	43.866
1.1440	43.990
1.1400	44.204
1.1360	44.113
1.1320	44.014
1.1280	44.137
1.1240	44.237
1.1200	44.245
1.1160	44.279
1.1120	44.570
1.1080	44.537
1.1040	44.403
1.1000	44.566
1.0960	44.958
1.0920	45.027
1.0880	45.311
1.0840	45.426
1.0800	45.141
1.0760	45.243
1.0720	45.296
1.0680	45.286
1.0640	45.329
1.0600	45.465
1.0560	45.463
1.0520	45.485
1.0480	45.404
1.0440	45.577
1.0400	46.019
1.0360	46.102
1.0320	46.102
1.0280	46.144
1.0240	46.395
1.0200	46.576
1.0160	46.430
1.0120	46.006
1.0080	45.963
1.0040	46.123
1.0000	46.221
0.99600	46.392
0.99200	46.308
0.98800	46.373
0.98400	46.378
0.98000	46.227
0.97600	46.031
0.97200	46.109
0.96800	46.066
0.96400	46.205
0.96000	46.066
0.95600	46.101
0.95200	45.817
0.94800	45.546
0.94400	45.817
0.94000	45.748
0.93600	45.590
0.93200	45.444
0.92800	45.241
0.92400	45.355
0.92000	45.152
0.91600	45.019
0.91200	44.986
0.90800	44.785
0.90400	44.718
0.90000	44.695
0.89600	44.573
0.89200	44.483
0.88800	44.337
0.88400	44.224
0.88000	44.215
0.87600	44.045
0.87200	44.276
0.86800	44.029
0.86400	43.857
0.86000	43.997
0.85600	43.750
0.85200	43.601
0.84800	43.651
0.84400	43.609
0.84000	43.518
0.83600	43.591
0.83200	43.329
0.82800	43.387
0.82400	43.380
0.82000	43.667
0.81600	43.562
0.81200	43.400
0.80800	43.194
0.80400	43.400
0.80000	43.841
0.79900	43.901
0.79800	43.901
0.79700	44.057
0.79600	44.134
0.79500	44.231
0.79400	44.287
0.79300	44.252
0.79200	44.485
0.79100	44.249
0.79000	43.936
0.78900	43.901
0.78800	44.213
0.78700	44.154
0.78600	44.040
0.78500	44.095
0.78400	44.190
0.78300	44.287
0.78200	44.196
0.78100	44.677
0.78000	44.385
0.77900	44.403
0.77800	44.228
0.77700	44.249
0.77600	43.749
0.77500	43.961
0.77400	44.058
0.77300	44.058
0.77200	44.113
0.77100	44.116
0.77000	44.006
0.76900	43.734
0.76800	44.016
0.76700	44.343
0.76600	44.052
0.76500	44.055
0.76400	44.087
0.76300	44.208
0.76200	44.231
0.76100	44.396
0.76000	43.608
0.75900	43.592
0.75800	43.689
0.75700	43.785
0.75600	43.840
0.75500	43.798
0.75400	44.123
0.75300	43.630
0.75200	43.668
0.75100	43.668
0.75000	43.689
0.74900	43.840
0.74800	43.646
0.74700	43.646
0.74600	43.377
0.74500	43.452
0.74400	43.602
0.74300	43.228
0.74200	43.758
0.74100	44.374
0.74000	43.985
0.73900	43.506
0.73800	43.506
0.73700	43.646
0.73600	43.430
0.73500	43.355
0.73400	43.506
0.73300	43.560
0.73200	43.731
0.73100	43.599
0.73000	43.489
0.72900	43.716
0.72800	43.636
0.72700	43.501
0.72600	43.615
0.72500	43.225
0.72400	43.074
0.72300	43.074
0.72200	43.056
0.72100	43.209
0.72000	43.207
0.71900	43.530
0.71800	43.470
0.71700	43.430
0.71600	43.277
0.71500	43.147
0.71400	43.147
0.71300	43.127
0.71200	43.454
0.71100	43.337
0.71000	43.588
0.70900	43.375
0.70800	43.353
0.70700	42.930
0.70600	42.712
0.70500	42.847
0.70400	43.059
0.70300	42.943
0.70200	43.041
0.70100	42.849
0.70000	43.135
0.69900	43.480
0.69800	43.350
0.69700	43.411
0.69600	43.455
0.69500	43.233
0.69400	43.233
0.69300	43.194
0.69200	42.978
0.69100	43.233
0.69000	43.294
0.68900	43.411
0.68800	43.333
0.68700	43.233
0.68600	43.333
0.68500	43.311
0.68400	43.233
0.68300	43.133
0.68200	43.094
0.68100	43.094
0.68000	43.211
0.67900	43.049
0.67800	43.211
0.67700	42.932
0.67600	43.033
0.67500	43.350
0.67400	43.250
0.67300	43.451
0.67200	43.094
0.67100	43.429
0.67000	43.490
0.66900	43.127
0.66800	42.987
0.66700	43.288
0.66600	43.350
0.66500	43.110
0.66400	42.994
0.66300	43.055
0.66200	43.104
0.66100	43.003
0.66000	42.926
0.65900	43.223
0.65800	43.223
0.65700	43.043
0.65600	43.049
0.65500	43.289
0.65400	43.211
0.65300	43.033
0.65200	42.933
0.65100	42.755
0.65000	42.579
0.64900	42.465
0.64800	42.564
0.64700	42.786
0.64600	43.223
0.64500	43.020
0.64400	43.122
0.64300	43.044
0.64200	43.049
0.64100	42.910
0.64000	43.386
0.63900	43.712
0.63800	43.189
0.63700	42.894
0.63600	42.579
0.63500	42.294
0.63400	42.332
0.63300	42.494
0.63200	42.256
0.63100	42.246
0.63000	42.332
0.62900	42.156
0.62800	42.218
0.62700	41.919
0.62600	41.856
0.62500	42.246
0.62400	42.208
0.62300	42.294
0.62200	42.218
0.62100	42.179
0.62000	42.284
0.61900	42.656
0.61800	42.851
0.61700	42.429
0.61600	42.313
0.61500	42.135
0.61400	41.983
0.61300	41.831
0.61200	42.236
0.61100	42.313
0.61000	42.275
0.60900	42.236
0.60800	42.198
0.60700	42.096
0.60600	41.869
0.60500	42.034
0.60400	41.832
0.60300	41.707
0.60200	41.821
0.60100	41.705
0.60000	41.833
0.59900	41.846
0.59800	41.974
0.59700	42.065
0.59600	42.182
0.59500	41.835
0.59400	41.537
0.59300	41.638
0.59200	41.668
0.59100	41.319
0.59000	41.213
0.58900	41.514
0.58800	41.772
0.58700	41.591
0.58600	41.358
0.58500	41.547
0.58400	40.947
0.58300	41.026
0.58200	41.125
0.58100	40.882
0.58000	41.102
0.57900	40.971
0.57800	40.933
0.57700	40.782
0.57600	40.577
0.57500	40.614
0.57400	40.539
0.57300	40.621
0.57200	40.493
0.57100	40.641
0.57000	40.594
0.56900	40.456
0.56800	40.861
0.56700	40.805
0.56600	40.945
0.56500	40.908
0.56400	40.935
0.56300	40.678
0.56200	40.438
0.56100	40.336
0.56000	40.692
0.55900	40.632
0.55800	40.632
0.55700	40.957
0.55600	40.693
0.55500	40.724
0.55400	40.693
0.55300	40.790
0.55200	40.695
0.55100	40.599
0.55000	40.502
0.54900	40.806
0.54800	40.700
0.54700	40.567
0.54600	40.737
0.54500	40.806
0.54400	40.669
0.54300	40.875
0.54200	40.809
0.54100	40.708
0.54000	40.709
0.53900	40.445
0.53800	40.581
0.53700	40.275
0.53600	40.073
0.53500	39.939
0.53400	40.107
0.53300	39.771
0.53200	39.540
0.53100	39.408
0.53000	39.473
0.52900	39.439
0.52800	39.736
0.52700	39.503
0.52600	39.402
0.52500	39.402
0.52400	39.367
0.52300	39.068
0.52200	39.303
0.52100	39.169
0.52000	38.962
0.51900	38.928
0.51800	38.832
0.51700	38.864
0.51600	38.631
0.51500	38.929
0.51400	38.530
0.51300	38.461
0.51200	38.071
0.51100	38.040
0.51000	38.165
0.50900	38.002
0.50800	38.461
0.50700	38.451
0.50600	38.013
0.50500	37.819
0.50400	37.780
0.50300	37.835
0.50200	37.610
0.50100	38.041
0.50000	37.665
0.49900	37.656
0.49800	37.415
0.49700	37.345
0.49600	37.122
0.49500	37.113
0.49400	37.153
0.49300	37.345
0.49200	37.500
0.49100	37.554
0.49000	37.398
0.48900	37.295
0.48800	37.121
0.48700	36.941
0.48600	36.899
0.48500	36.480
0.48400	36.787
0.48300	36.776
0.48200	36.524
0.48100	36.727
0.48000	36.790
0.47900	36.646
0.47800	36.428
0.47700	35.900
0.47600	36.221
0.47500	36.060
0.47400	36.339
0.47300	36.073
0.47200	36.117
0.47100	35.724
0.47000	35.928
0.46900	35.524
0.46800	35.696
0.46700	35.479
0.46600	35.204
0.46500	34.946
0.46400	35.316
0.46300	35.243
0.46200	35.226
0.46100	35.083
0.46000	34.741
0.45900	34.741
0.45800	34.918
0.45700	35.007
0.45600	34.654
0.45500	34.566
0.45400	34.124
0.45300	34.421
0.45200	34.329
0.45100	34.010
0.45000	34.050
0.44900	34.239
0.44800	33.841
0.44700	33.870
0.44600	33.933
0.44500	33.826
0.44400	33.830
0.44300	33.405
0.44200	33.405
0.44100	33.494
0.44000	33.382
0.43900	33.333
0.43800	33.233
0.43700	33.097
0.43600	33.101
0.43500	33.051
0.43400	32.837
0.43300	32.701
0.43200	32.623
0.43100	32.388
0.43000	32.335
0.42900	32.197
0.42800	31.909
0.42700	31.940
0.42600	31.753
0.42500	31.379
0.42400	31.324
0.42300	31.354
0.42200	30.969
0.42100	30.800
0.42000	30.871
0.41900	30.637
0.41800	30.541
0.41700	30.224
0.41600	30.113
0.41500	30.201
0.41400	30.189
0.41300	29.985
0.41200	29.560
0.41100	29.449
0.41000	29.338
0.40900	29.515
0.40800	29.265
0.40700	29.287
0.40600	29.112
0.40500	28.857
0.40400	28.603
0.40300	28.497
0.40200	28.518
0.40100	28.041
0.40000	28.048
