Name: Albite Gneiss
Type:  Rocks
Class: Metamorphic 
Subclass: Gneiss 
Particle Size:  0-75 Micrometer
Sample No.:  gneiss5.doc
Owner:  JHU
Wavelength Range:  All
Origin:  Sample No. 390, The Hunt and Salisbury Collection at the U.S. 
Geological Survey, Denver, Co.
Description: This coarse-grained rock has been sheared enough to giveit mortar 
texture.  The abundant albite subhedra (some with perthite) often evidence brittle 
deformation, while other areas have recrystallized.  In addition to this phase there 
are muscoviteeuhedra (secondary to deformation), and larger primary muscovite 
heavily sheared to sericite in foliated masses or bands throughout the sample.  
Modes were 67% albite and 33% muscovite.
Measurement:  Directional (10 Degree) Hemispherical Reflectance
First Column:  X
Second Column:  Y  
X Units:  Wavelength (micrometers)
Y Units:  Reflectance (percent)
First X Value: 14.9831
Last X Value:  0.4
Number of X Values: 2868
Additional Information:  None

14.983	1.7984
14.940	1.9360
14.897	2.0994
14.854	2.2817
14.812	2.4631
14.770	2.6237
14.728	2.7532
14.686	2.8607
14.645	2.9574
14.603	3.0490
14.562	3.1340
14.521	3.2100
14.481	3.2754
14.441	3.3287
14.400	3.3718
14.361	3.4094
14.321	3.4388
14.281	3.4537
14.242	3.4459
14.203	3.4090
14.164	3.3445
14.126	3.2588
14.087	3.1610
14.049	3.0597
14.011	2.9581
13.973	2.8569
13.936	2.7546
13.899	2.6497
13.861	2.5462
13.824	2.4515
13.788	2.3753
13.751	2.3272
13.715	2.3144
13.679	2.3357
13.643	2.3828
13.607	2.4418
13.571	2.4963
13.536	2.5306
13.500	2.5342
13.465	2.5046
13.430	2.4473
13.396	2.3736
13.361	2.2997
13.327	2.2422
13.293	2.2152
13.259	2.2275
13.225	2.2782
13.191	2.3568
13.158	2.4451
13.124	2.5237
13.091	2.5747
13.058	2.5882
13.026	2.5657
12.993	2.5178
12.960	2.4589
12.928	2.4020
12.896	2.3556
12.864	2.3236
12.832	2.3030
12.800	2.2884
12.769	2.2744
12.737	2.2583
12.706	2.2408
12.675	2.2282
12.644	2.2336
12.614	2.2737
12.583	2.3648
12.552	2.5176
12.522	2.7347
12.492	3.0078
12.462	3.3206
12.432	3.6529
12.402	3.9861
12.373	4.3067
12.343	4.6082
12.314	4.8879
12.285	5.1462
12.256	5.3838
12.227	5.5995
12.198	5.7916
12.169	5.9597
12.141	6.1061
12.113	6.2370
12.084	6.3613
12.056	6.4878
12.028	6.6223
12.000	6.7661
11.973	6.9153
11.945	7.0645
11.918	7.2070
11.890	7.3387
11.863	7.4578
11.836	7.5637
11.809	7.6555
11.782	7.7311
11.755	7.7879
11.729	7.8227
11.702	7.8343
11.676	7.8239
11.650	7.7938
11.624	7.7474
11.598	7.6873
11.572	7.6165
11.546	7.5367
11.520	7.4507
11.495	7.3609
11.469	7.2707
11.444	7.1817
11.419	7.0941
11.394	7.0064
11.369	6.9174
11.344	6.8238
11.319	6.7246
11.294	6.6190
11.270	6.5077
11.245	6.3891
11.221	6.2612
11.197	6.1207
11.173	5.9661
11.149	5.7980
11.125	5.6222
11.101	5.4491
11.077	5.2890
11.054	5.1500
11.030	5.0354
11.007	4.9428
10.983	4.8659
10.960	4.7962
10.937	4.7268
10.914	4.6541
10.891	4.5769
10.868	4.4950
10.846	4.4102
10.823	4.3235
10.800	4.2373
10.778	4.1533
10.755	4.0730
10.733	3.9993
10.711	3.9349
10.689	3.8826
10.667	3.8430
10.645	3.8165
10.623	3.8021
10.602	3.7969
10.580	3.7966
10.558	3.7966
10.537	3.7926
10.516	3.7831
10.494	3.7687
10.473	3.7526
10.452	3.7405
10.431	3.7365
10.410	3.7438
10.389	3.7630
10.368	3.7936
10.348	3.8352
10.327	3.8885
10.306	3.9546
10.286	4.0346
10.266	4.1284
10.245	4.2328
10.225	4.3432
10.205	4.4545
10.185	4.5623
10.165	4.6636
10.145	4.7579
10.125	4.8455
10.106	4.9279
10.086	5.0058
10.066	5.0806
10.047	5.1533
10.027	5.2239
10.008	5.2907
9.9887	5.3513
9.9695	5.4006
9.9504	5.4297
9.9313	5.4283
9.9123	5.3868
9.8934	5.3004
9.8746	5.1737
9.8558	5.0229
9.8371	4.8765
9.8185	4.7676
9.7999	4.7266
9.7814	4.7730
9.7630	4.9094
9.7447	5.1207
9.7264	5.3788
9.7082	5.6507
9.6900	5.9048
9.6719	6.1167
9.6539	6.2716
9.6360	6.3606
9.6181	6.3798
9.6003	6.3270
9.5825	6.2029
9.5649	6.0135
9.5472	5.7719
9.5297	5.5012
9.5122	5.2298
9.4948	4.9859
9.4774	4.7887
9.4601	4.6437
9.4429	4.5431
9.4257	4.4692
9.4086	4.4036
9.3916	4.3354
9.3746	4.2627
9.3577	4.1931
9.3408	4.1372
9.3240	4.1040
9.3073	4.0976
9.2906	4.1156
9.2740	4.1516
9.2574	4.1985
9.2409	4.2489
9.2245	4.2965
9.2081	4.3347
9.1918	4.3572
9.1755	4.3593
9.1593	4.3382
9.1431	4.2949
9.1270	4.2343
9.1110	4.1656
9.0950	4.0988
9.0791	4.0432
9.0632	4.0043
9.0474	3.9861
9.0316	3.9887
9.0159	4.0102
9.0003	4.0491
8.9847	4.1026
8.9691	4.1689
8.9536	4.2442
8.9382	4.3257
8.9228	4.4114
8.9075	4.4997
8.8922	4.5907
8.8770	4.6845
8.8618	4.7815
8.8467	4.8805
8.8316	4.9800
8.8166	5.0783
8.8016	5.1740
8.7867	5.2677
8.7718	5.3610
8.7570	5.4543
8.7422	5.5455
8.7275	5.6301
8.7129	5.7018
8.6982	5.7549
8.6837	5.7847
8.6692	5.7928
8.6547	5.7852
8.6403	5.7705
8.6259	5.7570
8.6116	5.7508
8.5973	5.7537
8.5830	5.7636
8.5688	5.7771
8.5547	5.7918
8.5406	5.8070
8.5266	5.8235
8.5126	5.8444
8.4986	5.8718
8.4847	5.9071
8.4708	5.9502
8.4570	5.9997
8.4432	6.0525
8.4295	6.1032
8.4158	6.1454
8.4022	6.1728
8.3886	6.1804
8.3750	6.1636
8.3615	6.1207
8.3481	6.0535
8.3347	5.9652
8.3213	5.8598
8.3079	5.7433
8.2946	5.6222
8.2814	5.5017
8.2682	5.3833
8.2550	5.2661
8.2419	5.1453
8.2288	5.0134
8.2158	4.8623
8.2028	4.6866
8.1898	4.4848
8.1769	4.2591
8.1640	4.0150
8.1512	3.7609
8.1384	3.5049
8.1256	3.2546
8.1129	3.0161
8.1002	2.7935
8.0876	2.5884
8.0750	2.4011
8.0624	2.2303
8.0499	2.0743
8.0374	1.9310
8.0250	1.7989
8.0126	1.6769
8.0002	1.5646
7.9879	1.4619
7.9756	1.3676
7.9634	1.2816
7.9512	1.2030
7.9390	1.1320
7.9268	1.0687
7.9147	1.0133
7.9027	0.96620
7.8906	0.92640
7.8786	0.89280
7.8667	0.86390
7.8548	0.83930
7.8429	0.81960
7.8310	0.80590
7.8192	0.79900
7.8075	0.79950
7.7957	0.80610
7.7840	0.81650
7.7723	0.82790
7.7607	0.83880
7.7491	0.84900
7.7375	0.85920
7.7260	0.87120
7.7145	0.88730
7.7031	0.90940
7.6916	0.93730
7.6802	0.97020
7.6689	1.0062
7.6575	1.0446
7.6462	1.0837
7.6350	1.1230
7.6238	1.1628
7.6126	1.2042
7.6014	1.2478
7.5903	1.2947
7.5792	1.3451
7.5681	1.3993
7.5571	1.4574
7.5461	1.5180
7.5351	1.5812
7.5242	1.6463
7.5133	1.7131
7.5024	1.7811
7.4916	1.8488
7.4807	1.9151
7.4700	1.9784
7.4592	2.0378
7.4485	2.0942
7.4378	2.1491
7.4272	2.2048
7.4165	2.2630
7.4059	2.3246
7.3954	2.3895
7.3848	2.4574
7.3743	2.5275
7.3639	2.6007
7.3534	2.6777
7.3430	2.7589
7.3326	2.8446
7.3223	2.9346
7.3119	3.0282
7.3016	3.1243
7.2914	3.2226
7.2811	3.3221
7.2709	3.4227
7.2607	3.5241
7.2506	3.6256
7.2404	3.7282
7.2303	3.8331
7.2203	3.9420
7.2102	4.0569
7.2002	4.1784
7.1902	4.3074
7.1803	4.4424
7.1703	4.5824
7.1604	4.7254
7.1506	4.8696
7.1407	5.0141
7.1309	5.1564
7.1211	5.2954
7.1113	5.4288
7.1016	5.5545
7.0919	5.6717
7.0822	5.7797
7.0725	5.8799
7.0629	5.9739
7.0533	6.0651
7.0437	6.1548
7.0341	6.2422
7.0246	6.3256
7.0151	6.4026
7.0056	6.4717
6.9962	6.5345
6.9867	6.5956
6.9773	6.6614
6.9679	6.7381
6.9586	6.8281
6.9493	6.9323
6.9400	7.0481
6.9307	7.1696
6.9214	7.2913
6.9122	7.4088
6.9030	7.5196
6.8938	7.6224
6.8847	7.7190
6.8755	7.8142
6.8664	7.9123
6.8573	8.0134
6.8483	8.1152
6.8393	8.2130
6.8302	8.3004
6.8213	8.3700
6.8123	8.4207
6.8034	8.4576
6.7944	8.4884
6.7855	8.5199
6.7767	8.5588
6.7678	8.6099
6.7590	8.6743
6.7502	8.7496
6.7414	8.8337
6.7327	8.9258
6.7239	9.0248
6.7152	9.1285
6.7065	9.2334
6.6979	9.3360
6.6892	9.4312
6.6806	9.5129
6.6720	9.5754
6.6634	9.6173
6.6549	9.6453
6.6464	9.6701
6.6378	9.7033
6.6294	9.7542
6.6209	9.8264
6.6124	9.9160
6.6040	10.013
6.5956	10.109
6.5872	10.202
6.5789	10.293
6.5705	10.388
6.5622	10.491
6.5539	10.600
6.5456	10.711
6.5374	10.816
6.5292	10.910
6.5209	10.992
6.5128	11.068
6.5046	11.153
6.4964	11.257
6.4883	11.392
6.4802	11.555
6.4721	11.737
6.4640	11.916
6.4560	12.071
6.4480	12.188
6.4399	12.261
6.4320	12.300
6.4240	12.319
6.4160	12.336
6.4081	12.356
6.4002	12.375
6.3923	12.380
6.3844	12.362
6.3766	12.311
6.3687	12.229
6.3609	12.127
6.3531	12.021
6.3454	11.921
6.3376	11.832
6.3299	11.753
6.3221	11.683
6.3144	11.616
6.3068	11.547
6.2991	11.475
6.2914	11.402
6.2838	11.326
6.2762	11.245
6.2686	11.161
6.2611	11.072
6.2535	10.982
6.2460	10.890
6.2385	10.798
6.2310	10.707
6.2235	10.619
6.2160	10.536
6.2086	10.461
6.2011	10.401
6.1937	10.364
6.1863	10.358
6.1790	10.386
6.1716	10.452
6.1643	10.552
6.1570	10.676
6.1496	10.815
6.1424	10.959
6.1351	11.101
6.1278	11.236
6.1206	11.366
6.1134	11.491
6.1062	11.611
6.0990	11.717
6.0918	11.803
6.0847	11.862
6.0776	11.892
6.0704	11.897
6.0633	11.894
6.0563	11.901
6.0492	11.932
6.0421	11.990
6.0351	12.071
6.0281	12.165
6.0211	12.257
6.0141	12.333
6.0071	12.395
6.0002	12.449
5.9932	12.500
5.9863	12.550
5.9794	12.597
5.9725	12.635
5.9657	12.655
5.9588	12.649
5.9520	12.623
5.9451	12.590
5.9383	12.561
5.9315	12.542
5.9247	12.535
5.9180	12.534
5.9112	12.532
5.9045	12.527
5.8978	12.527
5.8911	12.547
5.8844	12.599
5.8777	12.684
5.8711	12.794
5.8644	12.911
5.8578	13.017
5.8512	13.095
5.8446	13.138
5.8380	13.150
5.8314	13.143
5.8249	13.127
5.8184	13.108
5.8118	13.086
5.8053	13.056
5.7988	13.011
5.7923	12.943
5.7859	12.856
5.7794	12.757
5.7730	12.660
5.7666	12.573
5.7602	12.500
5.7538	12.439
5.7474	12.385
5.7410	12.332
5.7347	12.275
5.7283	12.221
5.7220	12.178
5.7157	12.151
5.7094	12.143
5.7031	12.155
5.6969	12.180
5.6906	12.214
5.6844	12.249
5.6782	12.285
5.6719	12.322
5.6657	12.364
5.6596	12.415
5.6534	12.479
5.6472	12.558
5.6411	12.650
5.6349	12.745
5.6288	12.830
5.6227	12.890
5.6166	12.913
5.6106	12.891
5.6045	12.829
5.5984	12.737
5.5924	12.636
5.5864	12.547
5.5804	12.491
5.5744	12.483
5.5684	12.530
5.5624	12.634
5.5564	12.790
5.5505	12.990
5.5445	13.224
5.5386	13.484
5.5327	13.759
5.5268	14.043
5.5209	14.327
5.5151	14.607
5.5092	14.877
5.5033	15.131
5.4975	15.366
5.4917	15.581
5.4859	15.776
5.4801	15.956
5.4743	16.131
5.4685	16.309
5.4628	16.498
5.4570	16.699
5.4513	16.909
5.4455	17.125
5.4398	17.343
5.4341	17.564
5.4284	17.796
5.4228	18.046
5.4171	18.318
5.4114	18.608
5.4058	18.911
5.4002	19.215
5.3945	19.508
5.3889	19.783
5.3833	20.036
5.3778	20.263
5.3722	20.465
5.3666	20.640
5.3611	20.792
5.3555	20.922
5.3500	21.033
5.3445	21.125
5.3390	21.198
5.3335	21.251
5.3280	21.284
5.3225	21.297
5.3171	21.295
5.3116	21.286
5.3062	21.277
5.3008	21.275
5.2954	21.285
5.2900	21.309
5.2846	21.344
5.2792	21.384
5.2738	21.421
5.2684	21.450
5.2631	21.465
5.2578	21.471
5.2524	21.470
5.2471	21.475
5.2418	21.497
5.2365	21.547
5.2312	21.632
5.2260	21.754
5.2207	21.909
5.2154	22.088
5.2102	22.280
5.2050	22.475
5.1998	22.668
5.1945	22.858
5.1893	23.048
5.1842	23.243
5.1790	23.446
5.1738	23.658
5.1686	23.875
5.1635	24.091
5.1584	24.301
5.1532	24.503
5.1481	24.696
5.1430	24.884
5.1379	25.070
5.1328	25.262
5.1277	25.463
5.1227	25.678
5.1176	25.911
5.1126	26.164
5.1075	26.438
5.1025	26.728
5.0975	27.030
5.0925	27.335
5.0875	27.635
5.0825	27.917
5.0775	28.171
5.0726	28.392
5.0676	28.576
5.0627	28.724
5.0577	28.843
5.0528	28.943
5.0479	29.033
5.0430	29.119
5.0380	29.205
5.0332	29.288
5.0283	29.365
5.0234	29.431
5.0185	29.486
5.0137	29.533
5.0088	29.582
5.0040	29.648
4.9992	29.752
4.9944	29.915
4.9896	30.154
4.9848	30.479
4.9800	30.889
4.9752	31.371
4.9704	31.902
4.9657	32.454
4.9609	32.993
4.9562	33.488
4.9514	33.907
4.9467	34.227
4.9420	34.431
4.9373	34.512
4.9326	34.475
4.9279	34.340
4.9232	34.139
4.9186	33.911
4.9139	33.702
4.9092	33.551
4.9046	33.486
4.9000	33.518
4.8953	33.641
4.8907	33.834
4.8861	34.073
4.8815	34.334
4.8769	34.603
4.8723	34.874
4.8678	35.147
4.8632	35.430
4.8586	35.724
4.8541	36.029
4.8495	36.335
4.8450	36.627
4.8405	36.886
4.8360	37.096
4.8315	37.244
4.8270	37.322
4.8225	37.327
4.8180	37.262
4.8135	37.132
4.8090	36.942
4.8046	36.705
4.8001	36.436
4.7957	36.158
4.7913	35.899
4.7868	35.691
4.7824	35.561
4.7780	35.528
4.7736	35.598
4.7692	35.762
4.7648	36.000
4.7605	36.287
4.7561	36.597
4.7517	36.910
4.7474	37.215
4.7431	37.507
4.7387	37.790
4.7344	38.068
4.7301	38.346
4.7258	38.624
4.7215	38.901
4.7172	39.173
4.7129	39.435
4.7086	39.684
4.7043	39.920
4.7000	40.142
4.6958	40.352
4.6915	40.551
4.6873	40.741
4.6831	40.924
4.6788	41.097
4.6746	41.260
4.6704	41.412
4.6662	41.553
4.6620	41.689
4.6578	41.831
4.6536	41.992
4.6495	42.188
4.6453	42.430
4.6411	42.724
4.6370	43.065
4.6328	43.442
4.6287	43.840
4.6246	44.243
4.6205	44.637
4.6163	45.014
4.6122	45.366
4.6081	45.695
4.6040	45.998
4.6000	46.281
4.5959	46.547
4.5918	46.801
4.5877	47.048
4.5837	47.291
4.5796	47.533
4.5756	47.775
4.5716	48.016
4.5675	48.256
4.5635	48.495
4.5595	48.733
4.5555	48.968
4.5515	49.201
4.5475	49.432
4.5435	49.663
4.5395	49.896
4.5356	50.134
4.5316	50.383
4.5276	50.643
4.5237	50.916
4.5197	51.202
4.5158	51.498
4.5119	51.803
4.5080	52.114
4.5040	52.431
4.5001	52.749
4.4962	53.069
4.4923	53.386
4.4884	53.698
4.4846	54.002
4.4807	54.299
4.4768	54.588
4.4730	54.867
4.4691	55.138
4.4652	55.400
4.4614	55.651
4.4576	55.887
4.4537	56.106
4.4499	56.307
4.4461	56.489
4.4423	56.657
4.4385	56.813
4.4347	56.963
4.4309	57.110
4.4271	57.258
4.4233	57.410
4.4196	57.566
4.4158	57.729
4.4120	57.899
4.4083	58.078
4.4045	58.264
4.4008	58.457
4.3971	58.654
4.3934	58.857
4.3896	59.064
4.3859	59.274
4.3822	59.485
4.3785	59.693
4.3748	59.895
4.3711	60.089
4.3674	60.277
4.3638	60.461
4.3601	60.644
4.3564	60.829
4.3528	61.019
4.3491	61.213
4.3455	61.412
4.3418	61.613
4.3382	61.817
4.3346	62.022
4.3310	62.229
4.3273	62.438
4.3237	62.648
4.3201	62.859
4.3165	63.066
4.3129	63.266
4.3094	63.459
4.3058	63.642
4.3022	63.816
4.2986	63.981
4.2951	64.138
4.2915	64.279
4.2880	64.395
4.2844	64.477
4.2809	64.521
4.2774	64.537
4.2738	64.550
4.2703	64.592
4.2668	64.691
4.2633	64.861
4.2598	65.098
4.2563	65.378
4.2528	65.671
4.2493	65.951
4.2458	66.206
4.2424	66.434
4.2389	66.644
4.2354	66.845
4.2320	67.046
4.2285	67.248
4.2251	67.450
4.2216	67.649
4.2182	67.841
4.2148	68.022
4.2113	68.192
4.2079	68.349
4.2045	68.494
4.2011	68.627
4.1977	68.749
4.1943	68.863
4.1909	68.969
4.1875	69.070
4.1841	69.166
4.1808	69.260
4.1774	69.352
4.1740	69.442
4.1707	69.528
4.1673	69.610
4.1640	69.686
4.1606	69.758
4.1573	69.824
4.1540	69.886
4.1506	69.945
4.1473	70.001
4.1440	70.055
4.1407	70.107
4.1374	70.159
4.1341	70.212
4.1308	70.265
4.1275	70.316
4.1242	70.367
4.1209	70.414
4.1177	70.459
4.1144	70.501
4.1111	70.542
4.1079	70.583
4.1046	70.625
4.1014	70.669
4.0981	70.713
4.0949	70.756
4.0917	70.796
4.0884	70.831
4.0852	70.862
4.0820	70.888
4.0788	70.913
4.0756	70.938
4.0724	70.965
4.0692	70.992
4.0660	71.020
4.0628	71.045
4.0596	71.066
4.0565	71.082
4.0533	71.094
4.0501	71.105
4.0470	71.117
4.0438	71.129
4.0406	71.142
4.0375	71.154
4.0344	71.164
4.0312	71.171
4.0281	71.178
4.0250	71.184
4.0218	71.191
4.0187	71.200
4.0156	71.211
4.0125	71.222
4.0094	71.232
4.0063	71.241
4.0032	71.248
4.0001	71.253
3.9970	71.257
3.9940	71.260
3.9909	71.262
3.9878	71.263
3.9847	71.265
3.9817	71.270
3.9786	71.280
3.9756	71.297
3.9725	71.319
3.9695	71.348
3.9665	71.379
3.9634	71.411
3.9604	71.442
3.9574	71.472
3.9544	71.502
3.9513	71.531
3.9483	71.560
3.9453	71.591
3.9423	71.623
3.9393	71.657
3.9363	71.691
3.9333	71.726
3.9304	71.760
3.9274	71.791
3.9244	71.819
3.9214	71.847
3.9185	71.874
3.9155	71.901
3.9126	71.929
3.9096	71.955
3.9067	71.978
3.9037	71.996
3.9008	72.009
3.8979	72.018
3.8949	72.027
3.8920	72.037
3.8891	72.048
3.8862	72.058
3.8833	72.063
3.8804	72.064
3.8775	72.062
3.8746	72.058
3.8717	72.058
3.8688	72.062
3.8659	72.070
3.8630	72.081
3.8601	72.090
3.8573	72.096
3.8544	72.098
3.8515	72.097
3.8487	72.095
3.8458	72.092
3.8430	72.089
3.8401	72.086
3.8373	72.083
3.8344	72.080
3.8316	72.078
3.8288	72.077
3.8259	72.076
3.8231	72.076
3.8203	72.077
3.8175	72.077
3.8147	72.078
3.8119	72.080
3.8091	72.083
3.8063	72.087
3.8035	72.090
3.8007	72.091
3.7979	72.089
3.7951	72.083
3.7924	72.072
3.7896	72.056
3.7868	72.037
3.7841	72.016
3.7813	71.993
3.7785	71.970
3.7758	71.947
3.7730	71.922
3.7703	71.893
3.7676	71.858
3.7648	71.817
3.7621	71.770
3.7594	71.717
3.7566	71.662
3.7539	71.604
3.7512	71.545
3.7485	71.484
3.7458	71.423
3.7431	71.363
3.7404	71.305
3.7377	71.252
3.7350	71.204
3.7323	71.162
3.7296	71.124
3.7269	71.090
3.7242	71.055
3.7216	71.021
3.7189	70.988
3.7162	70.954
3.7136	70.922
3.7109	70.889
3.7083	70.856
3.7056	70.823
3.7030	70.789
3.7003	70.755
3.6977	70.723
3.6950	70.695
3.6924	70.671
3.6898	70.649
3.6872	70.628
3.6845	70.606
3.6819	70.580
3.6793	70.552
3.6767	70.524
3.6741	70.496
3.6715	70.470
3.6689	70.447
3.6663	70.426
3.6637	70.407
3.6611	70.388
3.6585	70.370
3.6560	70.354
3.6534	70.340
3.6508	70.326
3.6482	70.311
3.6457	70.295
3.6431	70.275
3.6406	70.253
3.6380	70.227
3.6355	70.198
3.6329	70.167
3.6304	70.134
3.6278	70.099
3.6253	70.064
3.6227	70.026
3.6202	69.986
3.6177	69.943
3.6152	69.896
3.6127	69.845
3.6101	69.791
3.6076	69.734
3.6051	69.675
3.6026	69.614
3.6001	69.553
3.5976	69.490
3.5951	69.425
3.5926	69.358
3.5901	69.288
3.5876	69.213
3.5852	69.134
3.5827	69.051
3.5802	68.964
3.5777	68.876
3.5753	68.786
3.5728	68.695
3.5704	68.604
3.5679	68.511
3.5654	68.418
3.5630	68.324
3.5605	68.228
3.5581	68.131
3.5557	68.031
3.5532	67.927
3.5508	67.817
3.5484	67.702
3.5459	67.584
3.5435	67.465
3.5411	67.347
3.5387	67.230
3.5363	67.114
3.5338	66.993
3.5314	66.863
3.5290	66.723
3.5266	66.569
3.5242	66.404
3.5218	66.229
3.5195	66.045
3.5171	65.853
3.5147	65.657
3.5123	65.460
3.5099	65.270
3.5075	65.099
3.5052	64.961
3.5028	64.867
3.5004	64.824
3.4981	64.829
3.4957	64.870
3.4934	64.933
3.4910	64.996
3.4887	65.049
3.4863	65.082
3.4840	65.096
3.4816	65.094
3.4793	65.079
3.4770	65.053
3.4746	65.016
3.4723	64.965
3.4700	64.897
3.4677	64.811
3.4653	64.705
3.4630	64.582
3.4607	64.443
3.4584	64.291
3.4561	64.127
3.4538	63.955
3.4515	63.782
3.4492	63.612
3.4469	63.452
3.4446	63.308
3.4423	63.182
3.4400	63.072
3.4378	62.971
3.4355	62.871
3.4332	62.767
3.4309	62.650
3.4287	62.515
3.4264	62.364
3.4241	62.201
3.4219	62.033
3.4196	61.870
3.4174	61.726
3.4151	61.609
3.4129	61.525
3.4106	61.472
3.4084	61.444
3.4061	61.428
3.4039	61.411
3.4017	61.382
3.3994	61.334
3.3972	61.265
3.3950	61.179
3.3928	61.082
3.3906	60.979
3.3883	60.876
3.3861	60.775
3.3839	60.675
3.3817	60.580
3.3795	60.490
3.3773	60.408
3.3751	60.336
3.3729	60.272
3.3707	60.215
3.3685	60.160
3.3663	60.105
3.3641	60.049
3.3620	59.993
3.3598	59.938
3.3576	59.885
3.3554	59.834
3.3533	59.783
3.3511	59.730
3.3489	59.674
3.3468	59.615
3.3446	59.554
3.3425	59.489
3.3403	59.422
3.3382	59.352
3.3360	59.281
3.3339	59.208
3.3317	59.132
3.3296	59.053
3.3274	58.970
3.3253	58.883
3.3232	58.790
3.3210	58.693
3.3189	58.595
3.3168	58.494
3.3147	58.392
3.3126	58.288
3.3104	58.181
3.3083	58.072
3.3062	57.961
3.3041	57.850
3.3020	57.740
3.2999	57.632
3.2978	57.526
3.2957	57.422
3.2936	57.319
3.2915	57.215
3.2894	57.107
3.2874	56.996
3.2853	56.882
3.2832	56.766
3.2811	56.650
3.2790	56.535
3.2770	56.422
3.2749	56.310
3.2728	56.200
3.2708	56.090
3.2687	55.983
3.2666	55.876
3.2646	55.769
3.2625	55.662
3.2605	55.552
3.2584	55.439
3.2564	55.325
3.2543	55.212
3.2523	55.099
3.2503	54.989
3.2482	54.881
3.2462	54.774
3.2442	54.666
3.2421	54.554
3.2401	54.438
3.2381	54.319
3.2361	54.198
3.2340	54.074
3.2320	53.949
3.2300	53.822
3.2280	53.692
3.2260	53.558
3.2240	53.419
3.2220	53.278
3.2200	53.137
3.2180	52.995
3.2160	52.854
3.2140	52.713
3.2120	52.572
3.2100	52.428
3.2080	52.281
3.2060	52.131
3.2040	51.979
3.2021	51.825
3.2001	51.670
3.1981	51.516
3.1961	51.363
3.1942	51.209
3.1922	51.055
3.1902	50.902
3.1883	50.749
3.1863	50.599
3.1844	50.451
3.1824	50.307
3.1805	50.165
3.1785	50.023
3.1766	49.880
3.1746	49.737
3.1727	49.594
3.1707	49.454
3.1688	49.317
3.1669	49.184
3.1649	49.053
3.1630	48.921
3.1611	48.789
3.1591	48.654
3.1572	48.518
3.1553	48.379
3.1534	48.238
3.1515	48.096
3.1495	47.953
3.1476	47.811
3.1457	47.671
3.1438	47.533
3.1419	47.397
3.1400	47.261
3.1381	47.122
3.1362	46.980
3.1343	46.833
3.1324	46.683
3.1305	46.533
3.1286	46.386
3.1268	46.241
3.1249	46.099
3.1230	45.960
3.1211	45.822
3.1192	45.682
3.1174	45.540
3.1155	45.396
3.1136	45.251
3.1117	45.107
3.1099	44.965
3.1080	44.824
3.1061	44.685
3.1043	44.546
3.1024	44.410
3.1006	44.276
3.0987	44.146
3.0969	44.022
3.0950	43.900
3.0932	43.779
3.0913	43.656
3.0895	43.530
3.0876	43.403
3.0858	43.276
3.0840	43.153
3.0821	43.037
3.0803	42.928
3.0785	42.824
3.0766	42.722
3.0748	42.620
3.0730	42.517
3.0712	42.412
3.0694	42.308
3.0675	42.207
3.0657	42.108
3.0639	42.010
3.0621	41.912
3.0603	41.813
3.0585	41.711
3.0567	41.609
3.0549	41.507
3.0531	41.406
3.0513	41.309
3.0495	41.213
3.0477	41.119
3.0459	41.025
3.0441	40.930
3.0423	40.833
3.0406	40.734
3.0388	40.634
3.0370	40.535
3.0352	40.439
3.0334	40.346
3.0317	40.256
3.0299	40.169
3.0281	40.081
3.0264	39.991
3.0246	39.899
3.0228	39.803
3.0211	39.706
3.0193	39.609
3.0176	39.513
3.0158	39.418
3.0140	39.323
3.0123	39.226
3.0105	39.127
3.0088	39.024
3.0070	38.920
3.0053	38.815
3.0036	38.712
3.0018	38.608
3.0001	38.503
2.9984	38.398
2.9966	38.290
2.9949	38.181
2.9932	38.072
2.9914	37.964
2.9897	37.858
2.9880	37.753
2.9863	37.649
2.9845	37.544
2.9828	37.437
2.9811	37.329
2.9794	37.221
2.9777	37.114
2.9760	37.010
2.9743	36.906
2.9726	36.801
2.9709	36.695
2.9692	36.587
2.9675	36.480
2.9658	36.375
2.9641	36.275
2.9624	36.179
2.9607	36.082
2.9590	35.981
2.9573	35.873
2.9556	35.758
2.9539	35.641
2.9523	35.528
2.9506	35.423
2.9489	35.326
2.9472	35.236
2.9455	35.148
2.9439	35.059
2.9422	34.967
2.9405	34.874
2.9389	34.783
2.9372	34.698
2.9355	34.622
2.9339	34.555
2.9322	34.497
2.9306	34.446
2.9289	34.399
2.9272	34.355
2.9256	34.312
2.9239	34.274
2.9223	34.240
2.9207	34.213
2.9190	34.194
2.9174	34.184
2.9157	34.179
2.9141	34.177
2.9124	34.179
2.9108	34.184
2.9092	34.195
2.9075	34.212
2.9059	34.236
2.9043	34.269
2.9027	34.308
2.9010	34.354
2.8994	34.404
2.8978	34.457
2.8962	34.513
2.8946	34.572
2.8929	34.633
2.8913	34.696
2.8897	34.762
2.8881	34.828
2.8865	34.892
2.8849	34.953
2.8833	35.007
2.8817	35.056
2.8801	35.098
2.8785	35.136
2.8769	35.170
2.8753	35.198
2.8737	35.220
2.8721	35.237
2.8705	35.247
2.8689	35.253
2.8673	35.252
2.8658	35.244
2.8642	35.226
2.8626	35.198
2.8610	35.160
2.8594	35.115
2.8579	35.065
2.8563	35.012
2.8547	34.954
2.8531	34.891
2.8516	34.822
2.8500	34.748
2.8484	34.668
2.8469	34.584
2.8453	34.492
2.8437	34.390
2.8422	34.276
2.8406	34.146
2.8391	34.004
2.8375	33.855
2.8360	33.701
2.8344	33.546
2.8329	33.386
2.8313	33.217
2.8298	33.036
2.8282	32.839
2.8267	32.625
2.8252	32.394
2.8236	32.149
2.8221	31.893
2.8205	31.624
2.8190	31.341
2.8175	31.040
2.8159	30.719
2.8144	30.373
2.8129	29.998
2.8114	29.592
2.8098	29.156
2.8083	28.690
2.8068	28.201
2.8053	27.695
2.8038	27.178
2.8022	26.654
2.8007	26.122
2.7992	25.577
2.7977	25.015
2.7962	24.431
2.7947	23.823
2.7932	23.194
2.7917	22.548
2.7902	21.895
2.7887	21.244
2.7872	20.603
2.7857	19.982
2.7842	19.383
2.7827	18.810
2.7812	18.262
2.7797	17.737
2.7782	17.230
2.7767	16.742
2.7752	16.271
2.7738	15.820
2.7723	15.393
2.7708	14.993
2.7693	14.623
2.7678	14.283
2.7664	13.973
2.7649	13.697
2.7634	13.460
2.7619	13.271
2.7605	13.142
2.7590	13.078
2.7575	13.087
2.7561	13.167
2.7546	13.310
2.7531	13.507
2.7517	13.743
2.7502	14.002
2.7488	14.269
2.7473	14.537
2.7458	14.802
2.7444	15.068
2.7429	15.345
2.7415	15.648
2.7400	15.988
2.7386	16.377
2.7371	16.824
2.7357	17.336
2.7343	17.914
2.7328	18.562
2.7314	19.279
2.7299	20.067
2.7285	20.926
2.7271	21.868
2.7256	22.907
2.7242	24.065
2.7228	25.358
2.7213	26.793
2.7199	28.349
2.7185	29.985
2.7171	31.639
2.7156	33.244
2.7142	34.738
2.7128	36.070
2.7114	37.206
2.7100	38.128
2.7085	38.841
2.7071	39.387
2.7057	39.846
2.7043	40.318
2.7029	40.906
2.7015	41.688
2.7001	42.692
2.6987	43.900
2.6973	45.268
2.6959	46.751
2.6945	48.311
2.6931	49.918
2.6917	51.551
2.6903	53.187
2.6889	54.790
2.6875	56.316
2.6861	57.729
2.6847	58.998
2.6833	60.106
2.6819	61.050
2.6805	61.842
2.6791	62.508
2.6778	63.081
2.6764	63.576
2.6750	63.993
2.6736	64.338
2.6722	64.624
2.6709	64.871
2.6695	65.110
2.6681	65.386
2.6667	65.737
2.6654	66.160
2.6640	66.623
2.6626	67.092
2.6613	67.533
2.6599	67.909
2.6585	68.207
2.6572	68.443
2.6558	68.640
2.6545	68.820
2.6531	68.993
2.6517	69.169
2.6504	69.340
2.6490	69.494
2.6477	69.625
2.6463	69.732
2.6450	69.820
2.6436	69.901
2.6423	69.984
2.6409	70.065
2.6396	70.134
2.6382	70.175
2.6369	70.175
2.6356	70.122
2.6342	70.017
2.6329	69.895
2.6315	69.794
2.6302	69.742
2.6289	69.759
2.6275	69.839
2.6262	69.947
2.6249	70.025
2.6236	70.036
2.6222	69.987
2.6209	69.900
2.6196	69.818
2.6183	69.794
2.6169	69.854
2.6156	69.982
2.6143	70.126
2.6130	70.239
2.6117	70.286
2.6103	70.248
2.6090	70.146
2.6077	70.045
2.6064	70.011
2.6051	70.076
2.6038	70.230
2.6025	70.422
2.6012	70.580
2.5999	70.630
2.5986	70.553
2.5973	70.412
2.5960	70.304
2.5947	70.308
2.5934	70.450
2.5921	70.701
2.5908	70.983
2.5895	71.211
2.5882	71.332
2.5869	71.366
2.5856	71.368
2.5843	71.391
2.5830	71.459
2.5817	71.568
2.5805	71.693
2.5792	71.798
2.5779	71.856
2.5766	71.871
2.5753	71.874
2.5741	71.890
2.5728	71.938
2.5715	72.022
2.5702	72.128
2.5690	72.229
2.5677	72.294
2.5664	72.317
2.5651	72.314
2.5639	72.314
2.5626	72.348
2.5613	72.437
2.5601	72.576
2.5588	72.736
2.5575	72.882
2.5563	72.988
2.5550	73.048
2.5538	73.074
2.5525	73.090
2.5513	73.112
2.5500	73.146
2.5487	73.189
2.5475	73.230
2.5462	73.260
2.5450	73.281
2.5437	73.299
2.5425	73.318
2.5413	73.341
2.5400	73.365
2.5388	73.383
2.5375	73.392
2.5363	73.387
2.5350	73.375
2.5338	73.359
2.5326	73.346
2.5313	73.336
2.5301	73.325
2.5289	73.308
2.5276	73.283
2.5264	73.247
2.5252	73.206
2.5239	73.162
2.5227	73.117
2.5215	73.074
2.5202	73.029
2.5190	72.982
2.5178	72.932
2.5166	72.879
2.5154	72.825
2.5141	72.772
2.5129	72.719
2.5117	72.665
2.5105	72.610
2.5093	72.552
2.5081	72.493
2.5068	72.435
2.5056	72.381
2.5044	72.332
2.5032	72.286
2.5020	72.242
2.5008	72.201
2.4996	72.161
2.4984	72.121
2.4972	72.081
2.4960	72.041
2.4948	72.001
2.4936	71.960
2.4924	71.919
2.4912	71.880
2.4900	71.842
2.4888	71.804
2.4876	71.765
2.4864	71.727
2.4852	71.689
2.4840	71.652
2.4828	71.616
2.4816	71.581
2.4805	71.546
2.4793	71.509
2.4781	71.468
2.4769	71.421
2.4757	71.369
2.4745	71.310
2.4734	71.243
2.4722	71.171
2.4710	71.095
2.4698	71.019
2.4686	70.943
2.4675	70.867
2.4663	70.792
2.4651	70.716
2.4640	70.638
2.4628	70.560
2.4616	70.483
2.4604	70.412
2.4593	70.346
2.4581	70.286
2.4569	70.234
2.4558	70.186
2.4546	70.141
2.4535	70.096
2.4523	70.053
2.4511	70.010
2.4500	69.966
2.4488	69.925
2.4477	69.888
2.4465	69.858
2.4454	69.836
2.4442	69.825
2.4431	69.827
2.4419	69.840
2.4408	69.861
2.4396	69.889
2.4385	69.924
2.4373	69.965
2.4362	70.014
2.4350	70.074
2.4339	70.145
2.4327	70.227
2.4316	70.317
2.4305	70.412
2.4293	70.513
2.4282	70.618
2.4270	70.726
2.4259	70.835
2.4248	70.943
2.4236	71.047
2.4225	71.147
2.4214	71.244
2.4202	71.340
2.4191	71.434
2.4180	71.527
2.4169	71.619
2.4157	71.709
2.4146	71.798
2.4135	71.888
2.4124	71.978
2.4112	72.070
2.4101	72.161
2.4090	72.247
2.4079	72.325
2.4068	72.392
2.4056	72.447
2.4045	72.491
2.4034	72.526
2.4023	72.556
2.4012	72.581
2.4001	72.604
2.3990	72.623
2.3979	72.637
2.3967	72.644
2.3956	72.646
2.3945	72.642
2.3934	72.635
2.3923	72.624
2.3912	72.608
2.3901	72.589
2.3890	72.563
2.3879	72.535
2.3868	72.506
2.3857	72.482
2.3846	72.465
2.3835	72.454
2.3824	72.448
2.3813	72.446
2.3802	72.443
2.3791	72.441
2.3781	72.439
2.3770	72.439
2.3759	72.441
2.3748	72.442
2.3737	72.439
2.3726	72.428
2.3715	72.408
2.3704	72.375
2.3694	72.332
2.3683	72.280
2.3672	72.222
2.3661	72.158
2.3650	72.088
2.3640	72.015
2.3629	71.935
2.3618	71.845
2.3607	71.745
2.3597	71.638
2.3586	71.528
2.3575	71.419
2.3564	71.318
2.3554	71.228
2.3543	71.149
2.3532	71.080
2.3522	71.022
2.3511	70.981
2.3500	70.960
2.3490	70.965
2.3479	70.995
2.3468	71.048
2.3458	71.115
2.3447	71.192
2.3436	71.276
2.3426	71.368
2.3415	71.469
2.3405	71.586
2.3394	71.721
2.3384	71.872
2.3373	72.037
2.3363	72.213
2.3352	72.393
2.3342	72.572
2.3331	72.746
2.3321	72.915
2.3310	73.080
2.3300	73.245
2.3289	73.415
2.3279	73.594
2.3268	73.784
2.3258	73.982
2.3247	74.183
2.3237	74.382
2.3226	74.577
2.3216	74.767
2.3206	74.953
2.3195	75.137
2.3185	75.321
2.3175	75.505
2.3164	75.690
2.3154	75.875
2.3144	76.058
2.3133	76.240
2.3123	76.419
2.3113	76.595
2.3102	76.769
2.3092	76.940
2.3082	77.111
2.3071	77.279
2.3061	77.442
2.3051	77.599
2.3041	77.750
2.3030	77.894
2.3020	78.029
2.3010	78.156
2.3000	78.275
2.2990	78.386
2.2979	78.492
2.2969	78.597
2.2959	78.706
2.2949	78.821
2.2939	78.936
2.2929	79.049
2.2918	79.152
2.2908	79.245
2.2898	79.327
2.2888	79.402
2.2878	79.477
2.2868	79.553
2.2858	79.629
2.2848	79.704
2.2838	79.773
2.2828	79.833
2.2818	79.884
2.2808	79.926
2.2798	79.962
2.2787	79.989
2.2777	80.008
2.2767	80.016
2.2757	80.015
2.2747	80.005
2.2738	79.990
2.2728	79.972
2.2718	79.950
2.2708	79.923
2.2698	79.886
2.2688	79.835
2.2678	79.771
2.2668	79.695
2.2658	79.608
2.2648	79.512
2.2638	79.410
2.2628	79.299
2.2618	79.176
2.2609	79.039
2.2599	78.889
2.2589	78.729
2.2579	78.561
2.2569	78.393
2.2559	78.231
2.2550	78.077
2.2540	77.929
2.2530	77.787
2.2520	77.649
2.2510	77.514
2.2501	77.382
2.2491	77.258
2.2481	77.150
2.2471	77.058
2.2462	76.982
2.2452	76.919
2.2442	76.862
2.2433	76.803
2.2423	76.740
2.2413	76.670
2.2403	76.594
2.2394	76.515
2.2384	76.431
2.2374	76.338
2.2365	76.234
2.2355	76.116
2.2345	75.981
2.2336	75.830
2.2326	75.662
2.2317	75.480
2.2307	75.284
2.2297	75.070
2.2288	74.838
2.2278	74.589
2.2269	74.325
2.2259	74.049
2.2250	73.764
2.2240	73.475
2.2231	73.185
2.2221	72.894
2.2211	72.606
2.2202	72.325
2.2192	72.053
2.2183	71.790
2.2173	71.539
2.2164	71.301
2.2155	71.078
2.2145	70.871
2.2136	70.684
2.2126	70.520
2.2117	70.380
2.2107	70.265
2.2098	70.176
2.2088	70.112
2.2079	70.074
2.2070	70.063
2.2060	70.079
2.2051	70.121
2.2041	70.188
2.2032	70.281
2.2023	70.399
2.2013	70.541
2.2004	70.707
2.1995	70.896
2.1985	71.110
2.1976	71.347
2.1967	71.607
2.1957	71.891
2.1948	72.197
2.1939	72.524
2.1930	72.872
2.1920	73.244
2.1911	73.641
2.1902	74.058
2.1893	74.490
2.1883	74.929
2.1874	75.365
2.1865	75.788
2.1856	76.199
2.1846	76.598
2.1837	76.991
2.1828	77.381
2.1819	77.768
2.1810	78.150
2.1800	78.520
2.1791	78.871
2.1782	79.204
2.1773	79.518
2.1764	79.817
2.1755	80.103
2.1746	80.375
2.1736	80.633
2.1727	80.874
2.1718	81.096
2.1709	81.301
2.1700	81.491
2.1691	81.667
2.1682	81.833
2.1673	81.986
2.1664	82.128
2.1655	82.258
2.1646	82.379
2.1637	82.494
2.1628	82.606
2.1619	82.718
2.1610	82.830
2.1601	82.939
2.1592	83.040
2.1583	83.130
2.1574	83.208
2.1565	83.277
2.1556	83.342
2.1547	83.410
2.1538	83.483
2.1529	83.559
2.1520	83.635
2.1511	83.705
2.1502	83.768
2.1493	83.824
2.1484	83.878
2.1475	83.933
2.1466	83.990
2.1458	84.046
2.1449	84.102
2.1440	84.153
2.1431	84.197
2.1422	84.230
2.1413	84.252
2.1404	84.262
2.1396	84.261
2.1387	84.255
2.1378	84.251
2.1369	84.254
2.1360	84.265
2.1352	84.282
2.1343	84.300
2.1334	84.314
2.1325	84.321
2.1316	84.321
2.1308	84.318
2.1299	84.313
2.1290	84.307
2.1281	84.297
2.1273	84.283
2.1264	84.265
2.1255	84.247
2.1247	84.232
2.1238	84.225
2.1229	84.225
2.1220	84.232
2.1212	84.245
2.1203	84.264
2.1194	84.290
2.1186	84.320
2.1177	84.353
2.1168	84.385
2.1160	84.413
2.1151	84.436
2.1143	84.460
2.1134	84.490
2.1125	84.531
2.1117	84.581
2.1108	84.637
2.1100	84.693
2.1091	84.743
2.1082	84.786
2.1074	84.827
2.1065	84.871
2.1057	84.921
2.1048	84.978
2.1040	85.041
2.1031	85.109
2.1023	85.178
2.1014	85.248
2.1005	85.318
2.0997	85.384
2.0988	85.443
2.0980	85.496
2.0971	85.543
2.0963	85.590
2.0955	85.642
2.0946	85.701
2.0938	85.766
2.0929	85.833
2.0921	85.895
2.0912	85.949
2.0904	85.995
2.0895	86.036
2.0887	86.077
2.0879	86.121
2.0870	86.169
2.0862	86.218
2.0853	86.266
2.0845	86.307
2.0837	86.341
2.0828	86.369
2.0820	86.388
2.0812	86.414
2.0803	86.442
2.0795	86.475
2.0760	86.475
2.0720	86.475
2.0680	86.494
2.0640	86.494
2.0600	86.703
2.0560	86.873
2.0520	86.892
2.0480	86.570
2.0440	86.401
2.0400	86.043
2.0360	86.007
2.0320	85.448
2.0280	85.414
2.0240	85.301
2.0200	85.354
2.0160	85.187
2.0120	84.501
2.0080	84.263
2.0040	84.026
2.0000	84.139
1.9960	83.553
1.9920	83.439
1.9880	83.204
1.9840	83.112
1.9800	82.324
1.9760	81.930
1.9720	81.676
1.9680	81.331
1.9640	81.010
1.9600	81.308
1.9560	81.469
1.9520	81.400
1.9480	81.239
1.9440	80.780
1.9400	80.388
1.9360	80.293
1.9320	80.282
1.9280	79.796
1.9240	79.255
1.9200	78.975
1.9160	78.441
1.9120	77.788
1.9080	77.415
1.9040	77.317
1.9000	77.628
1.8960	78.162
1.8920	79.288
1.8880	80.094
1.8840	81.092
1.8800	82.579
1.8760	83.917
1.8720	84.962
1.8680	85.015
1.8640	85.167
1.8600	85.435
1.8560	85.573
1.8520	86.155
1.8480	86.326
1.8440	87.091
1.8400	87.647
1.8360	87.871
1.8320	88.217
1.8280	87.326
1.8240	86.562
1.8200	86.059
1.8160	86.167
1.8120	85.774
1.8080	85.883
1.8040	86.186
1.8000	86.096
1.7960	85.741
1.7920	85.883
1.7880	86.133
1.7840	85.685
1.7800	85.917
1.7760	85.685
1.7720	85.454
1.7680	85.374
1.7640	85.374
1.7600	85.294
1.7560	85.313
1.7520	85.192
1.7480	85.319
1.7440	85.173
1.7400	85.492
1.7360	85.951
1.7320	85.805
1.7280	85.857
1.7240	85.948
1.7200	86.165
1.7160	86.167
1.7120	86.419
1.7080	86.105
1.7040	86.062
1.7000	85.628
1.6960	86.197
1.6920	85.628
1.6880	85.769
1.6840	85.455
1.6800	85.741
1.6760	85.543
1.6720	85.463
1.6680	84.966
1.6640	85.304
1.6600	85.374
1.6560	85.233
1.6520	84.528
1.6480	84.737
1.6440	85.638
1.6400	85.534
1.6360	85.086
1.6320	85.298
1.6280	85.157
1.6240	84.748
1.6200	84.608
1.6160	84.509
1.6120	84.439
1.6080	84.142
1.6040	84.311
1.6000	84.201
1.5960	83.992
1.5920	84.291
1.5880	84.311
1.5840	84.560
1.5800	84.661
1.5760	84.538
1.5720	84.219
1.5680	83.852
1.5640	83.016
1.5600	82.589
1.5560	82.543
1.5520	82.635
1.5480	82.906
1.5440	82.838
1.5400	82.412
1.5360	83.110
1.5320	83.673
1.5280	83.832
1.5240	83.535
1.5200	83.262
1.5160	82.948
1.5120	82.528
1.5080	82.602
1.5040	82.382
1.5000	82.343
1.4960	82.754
1.4920	81.511
1.4880	81.333
1.4840	81.288
1.4800	80.933
1.4760	80.712
1.4720	80.646
1.4680	81.444
1.4640	81.713
1.4600	81.174
1.4560	80.928
1.4520	80.639
1.4480	80.173
1.4440	80.257
1.4400	80.238
1.4360	80.280
1.4320	80.052
1.4280	79.649
1.4240	78.464
1.4200	77.142
1.4160	75.525
1.4120	73.762
1.4080	72.730
1.4040	72.212
1.4000	72.220
1.3960	73.284
1.3920	74.313
1.3880	75.301
1.3840	76.323
1.3800	77.727
1.3760	79.062
1.3720	79.314
1.3680	79.396
1.3640	79.766
1.3600	80.109
1.3560	80.157
1.3520	80.067
1.3480	79.659
1.3440	79.974
1.3400	79.474
1.3360	79.248
1.3320	79.635
1.3280	79.676
1.3240	79.393
1.3200	79.359
1.3160	79.125
1.3120	79.060
1.3080	78.882
1.3040	78.664
1.3000	78.486
1.2960	78.219
1.2920	78.142
1.2880	77.911
1.2840	78.141
1.2800	78.320
1.2760	78.619
1.2720	78.437
1.2680	78.450
1.2640	78.406
1.2600	78.315
1.2560	78.002
1.2520	77.820
1.2480	77.756
1.2440	77.371
1.2400	77.289
1.2360	77.262
1.2320	77.144
1.2280	77.217
1.2240	76.691
1.2200	76.537
1.2160	76.845
1.2120	76.655
1.2080	76.313
1.2040	76.584
1.2000	76.584
1.1960	76.620
1.1920	76.432
1.1880	76.029
1.1840	76.146
1.1800	76.085
1.1760	75.900
1.1720	75.598
1.1680	75.509
1.1640	75.339
1.1600	75.244
1.1560	75.101
1.1520	74.994
1.1480	75.565
1.1440	75.355
1.1400	75.235
1.1360	74.424
1.1320	74.242
1.1280	74.212
1.1240	74.395
1.1200	74.131
1.1160	73.919
1.1120	74.558
1.1080	74.314
1.1040	73.708
1.1000	73.428
1.0960	73.707
1.0920	73.708
1.0880	73.980
1.0840	74.619
1.0800	74.221
1.0760	74.131
1.0720	73.627
1.0680	73.052
1.0640	72.941
1.0600	73.087
1.0560	72.437
1.0520	72.678
1.0480	72.990
1.0440	73.149
1.0400	73.446
1.0360	73.837
1.0320	73.656
1.0280	73.054
1.0240	73.264
1.0200	73.173
1.0160	73.596
1.0120	72.907
1.0080	73.144
1.0040	73.083
1.0000	72.876
0.99600	72.957
0.99200	72.161
0.98800	72.343
0.98400	72.240
0.98000	72.626
0.97600	72.236
0.97200	72.091
0.96800	72.295
0.96400	72.349
0.96000	72.114
0.95600	72.082
0.95200	71.456
0.94800	71.456
0.94400	71.726
0.94000	71.700
0.93600	71.315
0.93200	71.552
0.92800	70.938
0.92400	71.433
0.92000	71.028
0.91600	70.961
0.91200	70.725
0.90800	70.929
0.90400	70.636
0.90000	70.571
0.89600	70.693
0.89200	70.425
0.88800	70.124
0.88400	70.147
0.88000	70.048
0.87600	69.859
0.87200	70.258
0.86800	69.963
0.86400	69.682
0.86000	69.869
0.85600	69.695
0.85200	69.570
0.84800	69.577
0.84400	69.468
0.84000	69.377
0.83600	69.663
0.83200	69.115
0.82800	69.150
0.82400	68.981
0.82000	69.866
0.81600	69.453
0.81200	69.262
0.80800	69.555
0.80400	69.442
0.80000	69.722
0.79900	70.183
0.79800	70.183
0.79700	70.118
0.79600	70.541
0.79500	70.930
0.79400	71.056
0.79300	70.993
0.79200	70.670
0.79100	70.504
0.79000	70.928
0.78900	70.670
0.78800	70.539
0.78700	70.312
0.78600	70.020
0.78500	70.183
0.78400	70.570
0.78300	70.764
0.78200	70.149
0.78100	70.049
0.78000	69.986
0.77900	70.377
0.77800	70.830
0.77700	70.115
0.77600	70.020
0.77500	69.985
0.77400	69.791
0.77300	69.888
0.77200	69.820
0.77100	69.920
0.77000	70.116
0.76900	69.406
0.76800	69.337
0.76700	70.307
0.76600	70.404
0.76500	70.272
0.76400	70.524
0.76300	70.824
0.76200	69.727
0.76100	69.945
0.76000	70.143
0.75900	69.755
0.75800	69.949
0.75700	69.562
0.75600	69.336
0.75500	69.497
0.75400	69.849
0.75300	68.853
0.75200	69.014
0.75100	69.111
0.75000	69.079
0.74900	69.239
0.74800	68.948
0.74700	69.142
0.74600	68.917
0.74500	68.657
0.74400	68.878
0.74300	68.663
0.74200	68.814
0.74100	69.424
0.74000	68.938
0.73900	68.524
0.73800	68.913
0.73700	68.754
0.73600	68.460
0.73500	68.076
0.73400	68.134
0.73300	68.455
0.73200	69.164
0.73100	68.391
0.73000	68.493
0.72900	68.779
0.72800	68.972
0.72700	68.908
0.72600	68.711
0.72500	68.809
0.72400	68.455
0.72300	68.066
0.72200	68.357
0.72100	68.713
0.72000	68.062
0.71900	68.541
0.71800	68.803
0.71700	68.441
0.71600	68.379
0.71500	67.996
0.71400	68.093
0.71300	68.223
0.71200	68.478
0.71100	68.805
0.71000	68.770
0.70900	68.086
0.70800	67.919
0.70700	67.733
0.70600	67.860
0.70500	67.532
0.70400	67.723
0.70300	67.628
0.70200	67.922
0.70100	67.926
0.70000	68.146
0.69900	68.829
0.69800	68.622
0.69700	68.757
0.69600	68.293
0.69500	68.424
0.69400	68.324
0.69300	68.459
0.69200	68.461
0.69100	68.725
0.69000	68.859
0.68900	69.058
0.68800	68.925
0.68700	68.725
0.68600	68.524
0.68500	68.556
0.68400	68.324
0.68300	68.324
0.68200	68.159
0.68100	68.459
0.68000	68.456
0.67900	68.623
0.67800	68.556
0.67700	68.224
0.67600	68.324
0.67500	68.723
0.67400	68.623
0.67300	68.824
0.67200	68.559
0.67100	68.755
0.67000	68.790
0.66900	68.957
0.66800	68.789
0.66700	68.789
0.66600	68.623
0.66500	68.556
0.66400	68.359
0.66300	68.393
0.66200	68.888
0.66100	68.686
0.66000	68.353
0.65900	68.686
0.65800	68.686
0.65700	68.552
0.65600	68.322
0.65500	68.488
0.65400	68.456
0.65300	68.625
0.65200	68.625
0.65100	68.892
0.65000	68.262
0.64900	67.868
0.64800	67.867
0.64700	68.689
0.64600	69.596
0.64500	69.494
0.64400	69.293
0.64300	69.259
0.64200	69.226
0.64100	68.757
0.64000	69.226
0.63900	69.395
0.63800	68.991
0.63700	68.559
0.63600	68.162
0.63500	68.359
0.63400	68.424
0.63300	68.359
0.63200	68.393
0.63100	69.225
0.63000	69.125
0.62900	68.393
0.62800	68.327
0.62700	68.227
0.62600	68.393
0.62500	68.824
0.62400	68.757
0.62300	68.359
0.62200	68.227
0.62100	68.361
0.62000	68.891
0.61900	69.259
0.61800	69.701
0.61700	69.395
0.61600	68.686
0.61500	68.452
0.61400	68.388
0.61300	68.324
0.61200	69.158
0.61100	69.394
0.61000	69.529
0.60900	69.461
0.60800	69.394
0.60700	69.292
0.60600	69.022
0.60500	68.754
0.60400	68.552
0.60300	68.585
0.60200	68.482
0.60100	68.918
0.60000	69.018
0.59900	68.709
0.59800	67.957
0.59700	67.985
0.59600	68.808
0.59500	68.098
0.59400	67.989
0.59300	68.738
0.59200	68.605
0.59100	68.433
0.59000	68.430
0.58900	68.745
0.58800	69.019
0.58700	69.088
0.58600	69.019
0.58500	69.361
0.58400	68.368
0.58300	68.815
0.58200	68.503
0.58100	68.538
0.58000	68.745
0.57900	68.985
0.57800	68.710
0.57700	68.644
0.57600	68.644
0.57500	68.712
0.57400	68.679
0.57300	68.680
0.57200	68.788
0.57100	68.955
0.57000	68.686
0.56900	68.417
0.56800	68.620
0.56700	68.785
0.56600	68.854
0.56500	68.888
0.56400	68.753
0.56300	69.124
0.56200	69.057
0.56100	68.854
0.56000	69.026
0.55900	68.885
0.55800	68.885
0.55700	69.053
0.55600	68.929
0.55500	68.509
0.55400	68.633
0.55300	68.731
0.55200	68.524
0.55100	68.413
0.55000	68.402
0.54900	68.879
0.54800	68.601
0.54700	68.538
0.54600	68.952
0.54500	68.879
0.54400	68.826
0.54300	69.006
0.54200	69.069
0.54100	68.868
0.54000	69.170
0.53900	69.417
0.53800	69.280
0.53700	68.985
0.53600	68.985
0.53500	68.720
0.53400	68.544
0.53300	68.215
0.53200	67.482
0.53100	67.421
0.53000	67.743
0.52900	67.953
0.52800	68.328
0.52700	68.466
0.52600	68.365
0.52500	68.466
0.52400	68.391
0.52300	68.202
0.52200	68.567
0.52100	68.103
0.52000	68.277
0.51900	68.113
0.51800	67.926
0.51700	67.988
0.51600	67.926
0.51500	68.214
0.51400	67.624
0.51300	67.686
0.51200	67.215
0.51100	66.854
0.51000	67.099
0.50900	66.876
0.50800	67.183
0.50700	67.757
0.50600	67.592
0.50500	67.205
0.50400	67.328
0.50300	67.233
0.50200	67.189
0.50100	67.541
0.50000	67.297
0.49900	66.579
0.49800	66.196
0.49700	66.358
0.49600	65.915
0.49500	65.692
0.49400	65.874
0.49300	66.055
0.49200	66.461
0.49100	66.667
0.49000	66.360
0.48900	65.750
0.48800	65.809
0.48700	65.348
0.48600	65.467
0.48500	65.340
0.48400	65.748
0.48300	65.523
0.48200	64.616
0.48100	64.919
0.48000	65.556
0.47900	65.473
0.47800	65.244
0.47700	64.790
0.47600	64.723
0.47500	64.197
0.47400	64.859
0.47300	64.533
0.47200	64.211
0.47100	64.238
0.47000	63.933
0.46900	63.427
0.46800	63.368
0.46700	62.934
0.46600	63.093
0.46500	62.979
0.46400	63.119
0.46300	62.769
0.46200	63.043
0.46100	62.958
0.46000	62.571
0.45900	65.322
0.45800	65.478
0.45700	65.247
0.45600	65.264
0.45500	64.673
0.45400	64.304
0.45300	64.276
0.45200	64.406
0.45100	64.274
0.45000	64.465
0.44900	64.642
0.44800	64.051
0.44700	63.493
0.44600	63.528
0.44500	63.524
0.44400	63.528
0.44300	62.793
0.44200	62.706
0.44100	62.661
0.44000	62.238
0.43900	62.455
0.43800	62.580
0.43700	62.413
0.43600	62.209
0.43500	62.114
0.43400	61.796
0.43300	61.630
0.43200	61.268
0.43100	61.436
0.43000	61.233
0.42900	61.080
0.42800	60.702
0.42700	60.109
0.42600	60.382
0.42500	60.053
0.42400	59.952
0.42300	60.131
0.42200	59.383
0.42100	59.591
0.42000	59.660
0.41900	58.957
0.41800	58.955
0.41700	58.520
0.41600	58.515
0.41500	58.258
0.41400	58.467
0.41300	57.937
0.41200	57.551
0.41100	57.191
0.41000	57.080
0.40900	57.343
0.40800	57.391
0.40700	57.125
0.40600	56.902
0.40500	56.377
0.40400	55.997
0.40300	55.997
0.40200	55.728
0.40100	55.763
0.40000	55.877
