Name: Hornblende Schist 
Type:  Rocks
Class:  Metamorphic 
Subclass: Schist 
Particle Size:  0-75 Micrometer
Sample No.:   schist2.doc
Owner:  JHU
Wavelength Range:  All
Origin:  Sample No. 241, The Hunt and Salisbury Collection at the U.S. 
Geological Survey, Denver, Co.
Description: Coarse grains of euhedral to subhedral hornblende with lesser 
amounts of anhedral alkali feldspar characterize this sample.  Modes were 78.4% 
hornblende and 21.6% feldspar.    



Measurement:  Directional (10 Degree) Hemispherical Reflectance
First Column:  X
Second Column:  Y  
X Units:  Wavelength (micrometers)
Y Units:  Reflectance (percent)
First X Value: 14.9831	
Last X Value:  0.4
Number of X Values: 2868
Additional Information:  None

14.983	1.0261
14.940	0.88050
14.897	0.81890
14.854	0.85420
14.812	0.97120
14.770	1.1317
14.728	1.2933
14.686	1.4204
14.645	1.5026
14.603	1.5474
14.562	1.5699
14.521	1.5923
14.481	1.6279
14.441	1.6759
14.400	1.7314
14.361	1.7889
14.321	1.8486
14.281	1.9144
14.242	1.9900
14.203	2.0792
14.164	2.1782
14.126	2.2786
14.087	2.3719
14.049	2.4496
14.011	2.5098
13.973	2.5564
13.936	2.5941
13.899	2.6263
13.861	2.6557
13.824	2.6836
13.788	2.7099
13.751	2.7321
13.715	2.7506
13.679	2.7667
13.643	2.7821
13.607	2.7970
13.571	2.8120
13.536	2.8257
13.500	2.8354
13.465	2.8371
13.430	2.8290
13.396	2.8134
13.361	2.7947
13.327	2.7767
13.293	2.7610
13.259	2.7454
13.225	2.7250
13.191	2.6928
13.158	2.6467
13.124	2.5905
13.091	2.5339
13.058	2.4887
13.026	2.4662
12.993	2.4754
12.960	2.5202
12.928	2.5986
12.896	2.7063
12.864	2.8382
12.832	2.9886
12.800	3.1520
12.769	3.3237
12.737	3.5008
12.706	3.6815
12.675	3.8634
12.644	4.0455
12.614	4.2267
12.583	4.4048
12.552	4.5767
12.522	4.7380
12.492	4.8831
12.462	5.0087
12.432	5.1105
12.402	5.1875
12.373	5.2414
12.343	5.2760
12.314	5.2966
12.285	5.3082
12.256	5.3156
12.227	5.3217
12.198	5.3262
12.169	5.3274
12.141	5.3229
12.113	5.3106
12.084	5.2888
12.056	5.2578
12.028	5.2180
12.000	5.1711
11.973	5.1176
11.945	5.0581
11.918	4.9954
11.890	4.9322
11.863	4.8725
11.836	4.8211
11.809	4.7825
11.782	4.7593
11.755	4.7512
11.729	4.7562
11.702	4.7697
11.676	4.7875
11.650	4.8052
11.624	4.8204
11.598	4.8310
11.572	4.8363
11.546	4.8348
11.520	4.8263
11.495	4.8097
11.469	4.7846
11.444	4.7503
11.419	4.7079
11.394	4.6579
11.369	4.6023
11.344	4.5433
11.319	4.4843
11.294	4.4282
11.270	4.3768
11.245	4.3323
11.221	4.2951
11.197	4.2643
11.173	4.2395
11.149	4.2196
11.125	4.2047
11.101	4.1942
11.077	4.1897
11.054	4.1919
11.030	4.2002
11.007	4.2115
10.983	4.2222
10.960	4.2257
10.937	4.2165
10.914	4.1895
10.891	4.1450
10.868	4.0863
10.846	4.0214
10.823	3.9617
10.800	3.9198
10.778	3.9065
10.755	3.9292
10.733	3.9894
10.711	4.0844
10.689	4.2073
10.667	4.3491
10.645	4.5021
10.623	4.6589
10.602	4.8156
10.580	4.9696
10.558	5.1197
10.537	5.2661
10.516	5.4075
10.494	5.5427
10.473	5.6696
10.452	5.7866
10.431	5.8920
10.410	5.9850
10.389	6.0658
10.368	6.1345
10.348	6.1915
10.327	6.2389
10.306	6.2792
10.286	6.3171
10.266	6.3557
10.245	6.3976
10.225	6.4423
10.205	6.4852
10.185	6.5188
10.165	6.5356
10.145	6.5309
10.125	6.5030
10.106	6.4523
10.086	6.3827
10.066	6.2976
10.047	6.2005
10.027	6.0923
10.008	5.9739
9.9887	5.8463
9.9695	5.7094
9.9504	5.5628
9.9313	5.4072
9.9123	5.2422
9.8934	5.0679
9.8746	4.8846
9.8558	4.6961
9.8371	4.5083
9.8185	4.3297
9.7999	4.1706
9.7814	4.0410
9.7630	3.9484
9.7447	3.8944
9.7264	3.8748
9.7082	3.8814
9.6900	3.9023
9.6719	3.9255
9.6539	3.9427
9.6360	3.9508
9.6181	3.9517
9.6003	3.9503
9.5825	3.9534
9.5649	3.9657
9.5472	3.9899
9.5297	4.0259
9.5122	4.0732
9.4948	4.1317
9.4774	4.2011
9.4601	4.2816
9.4429	4.3719
9.4257	4.4690
9.4086	4.5689
9.3916	4.6669
9.3746	4.7591
9.3577	4.8403
9.3408	4.9068
9.3240	4.9551
9.3073	4.9821
9.2906	4.9862
9.2740	4.9667
9.2574	4.9253
9.2409	4.8640
9.2245	4.7853
9.2081	4.6908
9.1918	4.5838
9.1755	4.4673
9.1593	4.3460
9.1431	4.2255
9.1270	4.1116
9.1110	4.0095
9.0950	3.9238
9.0791	3.8561
9.0632	3.8082
9.0474	3.7819
9.0316	3.7777
9.0159	3.7936
9.0003	3.8253
8.9847	3.8651
8.9691	3.9039
8.9536	3.9333
8.9382	3.9503
8.9228	3.9605
8.9075	3.9757
8.8922	4.0098
8.8770	4.0744
8.8618	4.1744
8.8467	4.3046
8.8316	4.4536
8.8166	4.6061
8.8016	4.7491
8.7867	4.8737
8.7718	4.9757
8.7570	5.0551
8.7422	5.1121
8.7275	5.1446
8.7129	5.1453
8.6982	5.1034
8.6837	5.0075
8.6692	4.8498
8.6547	4.6297
8.6403	4.3579
8.6259	4.0514
8.6116	3.7317
8.5973	3.4189
8.5830	3.1279
8.5688	2.8671
8.5547	2.6379
8.5406	2.4385
8.5266	2.2647
8.5126	2.1122
8.4986	1.9774
8.4847	1.8573
8.4708	1.7510
8.4570	1.6577
8.4432	1.5774
8.4295	1.5099
8.4158	1.4550
8.4022	1.4107
8.3886	1.3750
8.3750	1.3451
8.3615	1.3188
8.3481	1.2949
8.3347	1.2729
8.3213	1.2535
8.3079	1.2374
8.2946	1.2255
8.2814	1.2189
8.2682	1.2177
8.2550	1.2222
8.2419	1.2336
8.2288	1.2520
8.2158	1.2790
8.2028	1.3150
8.1898	1.3596
8.1769	1.4119
8.1640	1.4709
8.1512	1.5358
8.1384	1.6058
8.1256	1.6814
8.1129	1.7619
8.1002	1.8476
8.0876	1.9379
8.0750	2.0321
8.0624	2.1306
8.0499	2.2341
8.0374	2.3431
8.0250	2.4577
8.0126	2.5780
8.0002	2.7035
7.9879	2.8330
7.9756	2.9666
7.9634	3.1035
7.9512	3.2434
7.9390	3.3855
7.9268	3.5288
7.9147	3.6721
7.9027	3.8139
7.8906	3.9529
7.8786	4.0896
7.8667	4.2246
7.8548	4.3593
7.8429	4.4950
7.8310	4.6326
7.8192	4.7711
7.8075	4.9108
7.7957	5.0513
7.7840	5.1936
7.7723	5.3385
7.7607	5.4877
7.7491	5.6417
7.7375	5.8006
7.7260	5.9628
7.7145	6.1276
7.7031	6.2936
7.6916	6.4594
7.6802	6.6237
7.6689	6.7860
7.6575	6.9451
7.6462	7.1004
7.6350	7.2515
7.6238	7.3977
7.6126	7.5381
7.6014	7.6719
7.5903	7.7986
7.5792	7.9175
7.5681	8.0290
7.5571	8.1351
7.5461	8.2376
7.5351	8.3388
7.5242	8.4399
7.5133	8.5424
7.5024	8.6469
7.4916	8.7534
7.4807	8.8616
7.4700	8.9718
7.4592	9.0843
7.4485	9.1984
7.4378	9.3142
7.4272	9.4312
7.4165	9.5491
7.4059	9.6692
7.3954	9.7928
7.3848	9.9223
7.3743	10.059
7.3639	10.204
7.3534	10.356
7.3430	10.512
7.3326	10.671
7.3223	10.831
7.3119	10.991
7.3016	11.151
7.2914	11.312
7.2811	11.475
7.2709	11.639
7.2607	11.804
7.2506	11.969
7.2404	12.133
7.2303	12.296
7.2203	12.457
7.2102	12.612
7.2002	12.760
7.1902	12.899
7.1803	13.028
7.1703	13.147
7.1604	13.257
7.1506	13.359
7.1407	13.455
7.1309	13.548
7.1211	13.641
7.1113	13.738
7.1016	13.841
7.0919	13.952
7.0822	14.072
7.0725	14.200
7.0629	14.335
7.0533	14.476
7.0437	14.624
7.0341	14.777
7.0246	14.933
7.0151	15.090
7.0056	15.245
6.9962	15.399
6.9867	15.548
6.9773	15.693
6.9679	15.830
6.9586	15.957
6.9493	16.070
6.9400	16.164
6.9307	16.238
6.9214	16.295
6.9122	16.339
6.9030	16.376
6.8938	16.413
6.8847	16.452
6.8755	16.496
6.8664	16.545
6.8573	16.598
6.8483	16.653
6.8393	16.708
6.8302	16.765
6.8213	16.823
6.8123	16.885
6.8034	16.952
6.7944	17.027
6.7855	17.108
6.7767	17.191
6.7678	17.272
6.7590	17.347
6.7502	17.411
6.7414	17.462
6.7327	17.502
6.7239	17.534
6.7152	17.566
6.7065	17.604
6.6979	17.655
6.6892	17.722
6.6806	17.806
6.6720	17.904
6.6634	18.011
6.6549	18.123
6.6464	18.240
6.6378	18.359
6.6294	18.479
6.6209	18.597
6.6124	18.704
6.6040	18.795
6.5956	18.863
6.5872	18.908
6.5789	18.934
6.5705	18.946
6.5622	18.948
6.5539	18.941
6.5456	18.926
6.5374	18.899
6.5292	18.858
6.5209	18.805
6.5128	18.743
6.5046	18.678
6.4964	18.617
6.4883	18.566
6.4802	18.527
6.4721	18.499
6.4640	18.476
6.4560	18.454
6.4480	18.428
6.4399	18.399
6.4320	18.370
6.4240	18.346
6.4160	18.329
6.4081	18.318
6.4002	18.306
6.3923	18.282
6.3844	18.237
6.3766	18.164
6.3687	18.062
6.3609	17.934
6.3531	17.788
6.3454	17.629
6.3376	17.465
6.3299	17.298
6.3221	17.133
6.3144	16.972
6.3068	16.816
6.2991	16.669
6.2914	16.532
6.2838	16.405
6.2762	16.292
6.2686	16.192
6.2611	16.108
6.2535	16.042
6.2460	15.992
6.2385	15.958
6.2310	15.939
6.2235	15.934
6.2160	15.940
6.2086	15.955
6.2011	15.977
6.1937	16.005
6.1863	16.036
6.1790	16.067
6.1716	16.096
6.1643	16.123
6.1570	16.149
6.1496	16.175
6.1424	16.206
6.1351	16.249
6.1278	16.307
6.1206	16.387
6.1134	16.494
6.1062	16.629
6.0990	16.787
6.0918	16.961
6.0847	17.146
6.0776	17.331
6.0704	17.512
6.0633	17.684
6.0563	17.848
6.0492	18.003
6.0421	18.143
6.0351	18.266
6.0281	18.368
6.0211	18.446
6.0141	18.495
6.0071	18.517
6.0002	18.516
5.9932	18.497
5.9863	18.466
5.9794	18.433
5.9725	18.407
5.9657	18.397
5.9588	18.410
5.9520	18.453
5.9451	18.533
5.9383	18.651
5.9315	18.807
5.9247	18.994
5.9180	19.206
5.9112	19.433
5.9045	19.669
5.8978	19.906
5.8911	20.146
5.8844	20.387
5.8777	20.628
5.8711	20.867
5.8644	21.100
5.8578	21.323
5.8512	21.534
5.8446	21.732
5.8380	21.920
5.8314	22.104
5.8249	22.287
5.8184	22.472
5.8118	22.655
5.8053	22.834
5.7988	23.006
5.7923	23.168
5.7859	23.320
5.7794	23.470
5.7730	23.620
5.7666	23.773
5.7602	23.929
5.7538	24.082
5.7474	24.227
5.7410	24.356
5.7347	24.464
5.7283	24.549
5.7220	24.615
5.7157	24.663
5.7094	24.698
5.7031	24.727
5.6969	24.754
5.6906	24.782
5.6844	24.814
5.6782	24.851
5.6719	24.896
5.6657	24.949
5.6596	25.013
5.6534	25.092
5.6472	25.187
5.6411	25.301
5.6349	25.431
5.6288	25.576
5.6227	25.730
5.6166	25.888
5.6106	26.046
5.6045	26.202
5.5984	26.356
5.5924	26.511
5.5864	26.667
5.5804	26.827
5.5744	26.989
5.5684	27.151
5.5624	27.309
5.5564	27.458
5.5505	27.592
5.5445	27.705
5.5386	27.792
5.5327	27.850
5.5268	27.877
5.5209	27.874
5.5151	27.842
5.5092	27.787
5.5033	27.713
5.4975	27.629
5.4917	27.546
5.4859	27.472
5.4801	27.419
5.4743	27.395
5.4685	27.403
5.4628	27.441
5.4570	27.503
5.4513	27.577
5.4455	27.653
5.4398	27.722
5.4341	27.777
5.4284	27.818
5.4228	27.848
5.4171	27.869
5.4114	27.885
5.4058	27.896
5.4002	27.902
5.3945	27.899
5.3889	27.885
5.3833	27.857
5.3778	27.816
5.3722	27.766
5.3666	27.713
5.3611	27.665
5.3555	27.633
5.3500	27.625
5.3445	27.650
5.3390	27.710
5.3335	27.805
5.3280	27.931
5.3225	28.077
5.3171	28.232
5.3116	28.384
5.3062	28.524
5.3008	28.644
5.2954	28.743
5.2900	28.826
5.2846	28.898
5.2792	28.973
5.2738	29.065
5.2684	29.189
5.2631	29.356
5.2578	29.572
5.2524	29.833
5.2471	30.123
5.2418	30.423
5.2365	30.706
5.2312	30.951
5.2260	31.140
5.2207	31.267
5.2154	31.329
5.2102	31.332
5.2050	31.284
5.1998	31.193
5.1945	31.069
5.1893	30.918
5.1842	30.747
5.1790	30.563
5.1738	30.372
5.1686	30.181
5.1635	29.996
5.1584	29.824
5.1532	29.673
5.1481	29.547
5.1430	29.449
5.1379	29.380
5.1328	29.337
5.1277	29.314
5.1227	29.306
5.1176	29.306
5.1126	29.310
5.1075	29.315
5.1025	29.323
5.0975	29.337
5.0925	29.360
5.0875	29.399
5.0825	29.457
5.0775	29.539
5.0726	29.648
5.0676	29.784
5.0627	29.948
5.0577	30.139
5.0528	30.355
5.0479	30.592
5.0430	30.845
5.0380	31.109
5.0332	31.376
5.0283	31.641
5.0234	31.899
5.0185	32.145
5.0137	32.377
5.0088	32.596
5.0040	32.800
4.9992	32.990
4.9944	33.168
4.9896	33.335
4.9848	33.491
4.9800	33.640
4.9752	33.783
4.9704	33.924
4.9657	34.064
4.9609	34.207
4.9562	34.355
4.9514	34.510
4.9467	34.675
4.9420	34.847
4.9373	35.028
4.9326	35.215
4.9279	35.403
4.9232	35.589
4.9186	35.769
4.9139	35.941
4.9092	36.102
4.9046	36.252
4.9000	36.393
4.8953	36.527
4.8907	36.659
4.8861	36.790
4.8815	36.924
4.8769	37.062
4.8723	37.202
4.8678	37.342
4.8632	37.480
4.8586	37.612
4.8541	37.737
4.8495	37.854
4.8450	37.965
4.8405	38.072
4.8360	38.181
4.8315	38.296
4.8270	38.421
4.8225	38.561
4.8180	38.720
4.8135	38.900
4.8090	39.102
4.8046	39.325
4.8001	39.566
4.7957	39.823
4.7913	40.090
4.7868	40.363
4.7824	40.640
4.7780	40.918
4.7736	41.197
4.7692	41.477
4.7648	41.759
4.7605	42.046
4.7561	42.335
4.7517	42.629
4.7474	42.924
4.7431	43.221
4.7387	43.516
4.7344	43.809
4.7301	44.100
4.7258	44.388
4.7215	44.674
4.7172	44.958
4.7129	45.243
4.7086	45.528
4.7043	45.816
4.7000	46.107
4.6958	46.399
4.6915	46.690
4.6873	46.978
4.6831	47.257
4.6788	47.527
4.6746	47.787
4.6704	48.038
4.6662	48.285
4.6620	48.535
4.6578	48.794
4.6536	49.066
4.6495	49.353
4.6453	49.654
4.6411	49.965
4.6370	50.281
4.6328	50.597
4.6287	50.911
4.6246	51.222
4.6205	51.527
4.6163	51.828
4.6122	52.124
4.6081	52.414
4.6040	52.699
4.6000	52.979
4.5959	53.255
4.5918	53.531
4.5877	53.807
4.5837	54.086
4.5796	54.368
4.5756	54.653
4.5716	54.937
4.5675	55.217
4.5635	55.489
4.5595	55.751
4.5555	55.999
4.5515	56.233
4.5475	56.453
4.5435	56.664
4.5395	56.867
4.5356	57.066
4.5316	57.260
4.5276	57.448
4.5237	57.626
4.5197	57.792
4.5158	57.943
4.5119	58.079
4.5080	58.204
4.5040	58.319
4.5001	58.428
4.4962	58.533
4.4923	58.634
4.4884	58.732
4.4846	58.826
4.4807	58.915
4.4768	59.001
4.4730	59.085
4.4691	59.170
4.4652	59.257
4.4614	59.349
4.4576	59.445
4.4537	59.545
4.4499	59.649
4.4461	59.755
4.4423	59.860
4.4385	59.963
4.4347	60.063
4.4309	60.160
4.4271	60.254
4.4233	60.346
4.4196	60.438
4.4158	60.530
4.4120	60.620
4.4083	60.708
4.4045	60.794
4.4008	60.876
4.3971	60.954
4.3934	61.030
4.3896	61.104
4.3859	61.177
4.3822	61.250
4.3785	61.325
4.3748	61.400
4.3711	61.476
4.3674	61.553
4.3638	61.630
4.3601	61.706
4.3564	61.781
4.3528	61.854
4.3491	61.927
4.3455	61.999
4.3418	62.073
4.3382	62.149
4.3346	62.227
4.3310	62.307
4.3273	62.389
4.3237	62.471
4.3201	62.553
4.3165	62.636
4.3129	62.719
4.3094	62.804
4.3058	62.890
4.3022	62.979
4.2986	63.069
4.2951	63.159
4.2915	63.249
4.2880	63.337
4.2844	63.424
4.2809	63.509
4.2774	63.594
4.2738	63.678
4.2703	63.762
4.2668	63.843
4.2633	63.921
4.2598	63.995
4.2563	64.065
4.2528	64.130
4.2493	64.191
4.2458	64.249
4.2424	64.306
4.2389	64.364
4.2354	64.421
4.2320	64.481
4.2285	64.541
4.2251	64.601
4.2216	64.657
4.2182	64.710
4.2148	64.760
4.2113	64.806
4.2079	64.852
4.2045	64.899
4.2011	64.947
4.1977	64.998
4.1943	65.049
4.1909	65.100
4.1875	65.149
4.1841	65.198
4.1808	65.243
4.1774	65.286
4.1740	65.329
4.1707	65.372
4.1673	65.416
4.1640	65.462
4.1606	65.510
4.1573	65.560
4.1540	65.610
4.1506	65.661
4.1473	65.714
4.1440	65.767
4.1407	65.819
4.1374	65.871
4.1341	65.920
4.1308	65.967
4.1275	66.012
4.1242	66.055
4.1209	66.099
4.1177	66.142
4.1144	66.185
4.1111	66.227
4.1079	66.269
4.1046	66.312
4.1014	66.356
4.0981	66.400
4.0949	66.445
4.0917	66.489
4.0884	66.533
4.0852	66.574
4.0820	66.614
4.0788	66.652
4.0756	66.689
4.0724	66.726
4.0692	66.763
4.0660	66.800
4.0628	66.837
4.0596	66.872
4.0565	66.906
4.0533	66.937
4.0501	66.964
4.0470	66.990
4.0438	67.014
4.0406	67.037
4.0375	67.058
4.0344	67.076
4.0312	67.093
4.0281	67.107
4.0250	67.118
4.0218	67.128
4.0187	67.137
4.0156	67.145
4.0125	67.152
4.0094	67.158
4.0063	67.164
4.0032	67.170
4.0001	67.176
3.9970	67.183
3.9940	67.189
3.9909	67.196
3.9878	67.204
3.9847	67.215
3.9817	67.229
3.9786	67.246
3.9756	67.266
3.9725	67.289
3.9695	67.314
3.9665	67.341
3.9634	67.371
3.9604	67.404
3.9574	67.440
3.9544	67.478
3.9513	67.517
3.9483	67.556
3.9453	67.592
3.9423	67.625
3.9393	67.654
3.9363	67.680
3.9333	67.706
3.9304	67.730
3.9274	67.755
3.9244	67.780
3.9214	67.804
3.9185	67.825
3.9155	67.844
3.9126	67.862
3.9096	67.879
3.9067	67.896
3.9037	67.913
3.9008	67.929
3.8979	67.943
3.8949	67.954
3.8920	67.964
3.8891	67.972
3.8862	67.979
3.8833	67.986
3.8804	67.992
3.8775	67.997
3.8746	67.999
3.8717	67.999
3.8688	67.996
3.8659	67.993
3.8630	67.991
3.8601	67.989
3.8573	67.987
3.8544	67.985
3.8515	67.982
3.8487	67.979
3.8458	67.975
3.8430	67.971
3.8401	67.968
3.8373	67.964
3.8344	67.961
3.8316	67.957
3.8288	67.953
3.8259	67.947
3.8231	67.942
3.8203	67.936
3.8175	67.929
3.8147	67.921
3.8119	67.912
3.8091	67.900
3.8063	67.887
3.8035	67.875
3.8007	67.866
3.7979	67.858
3.7951	67.853
3.7924	67.847
3.7896	67.839
3.7868	67.826
3.7841	67.810
3.7813	67.793
3.7785	67.775
3.7758	67.758
3.7730	67.743
3.7703	67.728
3.7676	67.713
3.7648	67.696
3.7621	67.678
3.7594	67.659
3.7566	67.639
3.7539	67.618
3.7512	67.595
3.7485	67.570
3.7458	67.543
3.7431	67.515
3.7404	67.487
3.7377	67.458
3.7350	67.429
3.7323	67.397
3.7296	67.364
3.7269	67.329
3.7242	67.293
3.7216	67.257
3.7189	67.221
3.7162	67.185
3.7136	67.148
3.7109	67.110
3.7083	67.070
3.7056	67.031
3.7030	66.990
3.7003	66.948
3.6977	66.906
3.6950	66.868
3.6924	66.836
3.6898	66.814
3.6872	66.798
3.6845	66.787
3.6819	66.774
3.6793	66.752
3.6767	66.719
3.6741	66.679
3.6715	66.636
3.6689	66.593
3.6663	66.553
3.6637	66.518
3.6611	66.485
3.6585	66.454
3.6560	66.424
3.6534	66.392
3.6508	66.357
3.6482	66.317
3.6457	66.275
3.6431	66.230
3.6406	66.186
3.6380	66.142
3.6355	66.097
3.6329	66.052
3.6304	66.007
3.6278	65.963
3.6253	65.921
3.6227	65.881
3.6202	65.843
3.6177	65.805
3.6152	65.765
3.6127	65.722
3.6101	65.677
3.6076	65.631
3.6051	65.584
3.6026	65.536
3.6001	65.486
3.5976	65.432
3.5951	65.376
3.5926	65.319
3.5901	65.264
3.5876	65.212
3.5852	65.162
3.5827	65.114
3.5802	65.066
3.5777	65.016
3.5753	64.964
3.5728	64.910
3.5704	64.855
3.5679	64.798
3.5654	64.738
3.5630	64.676
3.5605	64.613
3.5581	64.547
3.5557	64.478
3.5532	64.405
3.5508	64.328
3.5484	64.247
3.5459	64.163
3.5435	64.077
3.5411	63.989
3.5387	63.900
3.5363	63.808
3.5338	63.714
3.5314	63.618
3.5290	63.519
3.5266	63.414
3.5242	63.301
3.5218	63.178
3.5195	63.044
3.5171	62.898
3.5147	62.739
3.5123	62.573
3.5099	62.404
3.5075	62.241
3.5052	62.095
3.5028	61.975
3.5004	61.888
3.4981	61.832
3.4957	61.801
3.4934	61.781
3.4910	61.763
3.4887	61.739
3.4863	61.705
3.4840	61.663
3.4816	61.615
3.4793	61.564
3.4770	61.510
3.4746	61.453
3.4723	61.392
3.4700	61.324
3.4677	61.250
3.4653	61.169
3.4630	61.081
3.4607	60.985
3.4584	60.880
3.4561	60.767
3.4538	60.646
3.4515	60.520
3.4492	60.390
3.4469	60.261
3.4446	60.131
3.4423	60.001
3.4400	59.867
3.4378	59.725
3.4355	59.574
3.4332	59.412
3.4309	59.237
3.4287	59.051
3.4264	58.859
3.4241	58.666
3.4219	58.481
3.4196	58.313
3.4174	58.168
3.4151	58.049
3.4129	57.956
3.4106	57.882
3.4084	57.820
3.4061	57.763
3.4039	57.704
3.4017	57.643
3.3994	57.579
3.3972	57.509
3.3950	57.433
3.3928	57.348
3.3906	57.250
3.3883	57.138
3.3861	57.017
3.3839	56.890
3.3817	56.763
3.3795	56.641
3.3773	56.529
3.3751	56.431
3.3729	56.347
3.3707	56.273
3.3685	56.205
3.3663	56.137
3.3641	56.063
3.3620	55.977
3.3598	55.879
3.3576	55.772
3.3554	55.661
3.3533	55.552
3.3511	55.452
3.3489	55.364
3.3468	55.292
3.3446	55.234
3.3425	55.190
3.3403	55.158
3.3382	55.134
3.3360	55.117
3.3339	55.103
3.3317	55.087
3.3296	55.067
3.3274	55.037
3.3253	54.997
3.3232	54.947
3.3210	54.892
3.3189	54.834
3.3168	54.778
3.3147	54.727
3.3126	54.683
3.3104	54.642
3.3083	54.605
3.3062	54.571
3.3041	54.540
3.3020	54.513
3.2999	54.489
3.2978	54.468
3.2957	54.448
3.2936	54.428
3.2915	54.407
3.2894	54.384
3.2874	54.361
3.2853	54.337
3.2832	54.311
3.2811	54.280
3.2790	54.240
3.2770	54.188
3.2749	54.124
3.2728	54.048
3.2708	53.964
3.2687	53.874
3.2666	53.780
3.2646	53.683
3.2625	53.584
3.2605	53.484
3.2584	53.382
3.2564	53.279
3.2543	53.175
3.2523	53.069
3.2503	52.957
3.2482	52.838
3.2462	52.713
3.2442	52.583
3.2421	52.453
3.2401	52.325
3.2381	52.200
3.2361	52.080
3.2340	51.960
3.2320	51.839
3.2300	51.714
3.2280	51.583
3.2260	51.448
3.2240	51.309
3.2220	51.170
3.2200	51.032
3.2180	50.896
3.2160	50.761
3.2140	50.628
3.2120	50.495
3.2100	50.360
3.2080	50.223
3.2060	50.086
3.2040	49.947
3.2021	49.808
3.2001	49.668
3.1981	49.528
3.1961	49.388
3.1942	49.249
3.1922	49.111
3.1902	48.975
3.1883	48.842
3.1863	48.712
3.1844	48.587
3.1824	48.468
3.1805	48.354
3.1785	48.246
3.1766	48.142
3.1746	48.041
3.1727	47.943
3.1707	47.850
3.1688	47.764
3.1669	47.686
3.1649	47.616
3.1630	47.553
3.1611	47.493
3.1591	47.435
3.1572	47.375
3.1553	47.312
3.1534	47.247
3.1515	47.179
3.1495	47.109
3.1476	47.038
3.1457	46.966
3.1438	46.894
3.1419	46.821
3.1400	46.748
3.1381	46.674
3.1362	46.601
3.1343	46.528
3.1324	46.455
3.1305	46.381
3.1286	46.307
3.1268	46.232
3.1249	46.156
3.1230	46.081
3.1211	46.006
3.1192	45.933
3.1174	45.860
3.1155	45.788
3.1136	45.715
3.1117	45.643
3.1099	45.573
3.1080	45.503
3.1061	45.435
3.1043	45.369
3.1024	45.306
3.1006	45.245
3.0987	45.185
3.0969	45.126
3.0950	45.066
3.0932	45.004
3.0913	44.937
3.0895	44.867
3.0876	44.797
3.0858	44.728
3.0840	44.662
3.0821	44.600
3.0803	44.540
3.0785	44.480
3.0766	44.419
3.0748	44.359
3.0730	44.302
3.0712	44.249
3.0694	44.200
3.0675	44.156
3.0657	44.115
3.0639	44.075
3.0621	44.035
3.0603	43.993
3.0585	43.952
3.0567	43.910
3.0549	43.869
3.0531	43.829
3.0513	43.792
3.0495	43.761
3.0477	43.736
3.0459	43.718
3.0441	43.705
3.0423	43.695
3.0406	43.685
3.0388	43.674
3.0370	43.662
3.0352	43.649
3.0334	43.635
3.0317	43.620
3.0299	43.603
3.0281	43.581
3.0264	43.555
3.0246	43.522
3.0228	43.485
3.0211	43.442
3.0193	43.397
3.0176	43.350
3.0158	43.300
3.0140	43.247
3.0123	43.190
3.0105	43.128
3.0088	43.063
3.0070	42.998
3.0053	42.930
3.0036	42.860
3.0018	42.788
3.0001	42.716
2.9984	42.641
2.9966	42.565
2.9949	42.489
2.9932	42.414
2.9914	42.340
2.9897	42.265
2.9880	42.188
2.9863	42.111
2.9845	42.031
2.9828	41.948
2.9811	41.864
2.9794	41.782
2.9777	41.702
2.9760	41.626
2.9743	41.555
2.9726	41.490
2.9709	41.428
2.9692	41.366
2.9675	41.304
2.9658	41.240
2.9641	41.177
2.9624	41.116
2.9607	41.059
2.9590	41.007
2.9573	40.957
2.9556	40.909
2.9539	40.858
2.9523	40.806
2.9506	40.751
2.9489	40.697
2.9472	40.648
2.9455	40.605
2.9439	40.567
2.9422	40.532
2.9405	40.500
2.9389	40.467
2.9372	40.433
2.9355	40.401
2.9339	40.372
2.9322	40.350
2.9306	40.334
2.9289	40.327
2.9272	40.330
2.9256	40.346
2.9239	40.374
2.9223	40.413
2.9207	40.461
2.9190	40.512
2.9174	40.560
2.9157	40.602
2.9141	40.638
2.9124	40.672
2.9108	40.706
2.9092	40.742
2.9075	40.780
2.9059	40.818
2.9043	40.854
2.9027	40.886
2.9010	40.918
2.8994	40.953
2.8978	40.991
2.8962	41.030
2.8946	41.068
2.8929	41.100
2.8913	41.122
2.8897	41.135
2.8881	41.141
2.8865	41.141
2.8849	41.137
2.8833	41.130
2.8817	41.118
2.8801	41.099
2.8785	41.072
2.8769	41.040
2.8753	41.006
2.8737	40.974
2.8721	40.949
2.8705	40.936
2.8689	40.933
2.8673	40.941
2.8658	40.958
2.8642	40.984
2.8626	41.017
2.8610	41.057
2.8594	41.103
2.8579	41.155
2.8563	41.209
2.8547	41.260
2.8531	41.305
2.8516	41.345
2.8500	41.378
2.8484	41.408
2.8469	41.435
2.8453	41.461
2.8437	41.486
2.8422	41.508
2.8406	41.528
2.8391	41.546
2.8375	41.562
2.8360	41.576
2.8344	41.586
2.8329	41.590
2.8313	41.590
2.8298	41.588
2.8282	41.590
2.8267	41.600
2.8252	41.622
2.8236	41.653
2.8221	41.691
2.8205	41.733
2.8190	41.779
2.8175	41.829
2.8159	41.889
2.8144	41.960
2.8129	42.040
2.8114	42.124
2.8098	42.209
2.8083	42.287
2.8068	42.357
2.8053	42.418
2.8038	42.470
2.8022	42.511
2.8007	42.534
2.7992	42.530
2.7977	42.490
2.7962	42.403
2.7947	42.262
2.7932	42.057
2.7917	41.776
2.7902	41.405
2.7887	40.928
2.7872	40.331
2.7857	39.612
2.7842	38.780
2.7827	37.860
2.7812	36.882
2.7797	35.878
2.7782	34.874
2.7767	33.886
2.7752	32.915
2.7738	31.963
2.7723	31.031
2.7708	30.123
2.7693	29.243
2.7678	28.399
2.7664	27.592
2.7649	26.823
2.7634	26.097
2.7619	25.430
2.7605	24.848
2.7590	24.383
2.7575	24.054
2.7561	23.843
2.7546	23.684
2.7531	23.473
2.7517	23.107
2.7502	22.537
2.7488	21.809
2.7473	21.072
2.7458	20.522
2.7444	20.293
2.7429	20.364
2.7415	20.537
2.7400	20.531
2.7386	20.123
2.7371	19.303
2.7357	18.318
2.7343	17.580
2.7328	17.421
2.7314	17.857
2.7299	18.569
2.7285	19.079
2.7271	19.034
2.7256	18.453
2.7242	17.817
2.7228	17.874
2.7213	19.222
2.7199	21.980
2.7185	25.740
2.7171	29.759
2.7156	33.263
2.7142	35.748
2.7128	37.144
2.7114	37.736
2.7100	37.921
2.7085	38.024
2.7071	38.237
2.7057	38.620
2.7043	39.150
2.7029	39.784
2.7015	40.500
2.7001	41.296
2.6987	42.164
2.6973	43.101
2.6959	44.122
2.6945	45.251
2.6931	46.521
2.6917	47.953
2.6903	49.547
2.6889	51.276
2.6875	53.090
2.6861	54.934
2.6847	56.758
2.6833	58.527
2.6819	60.221
2.6805	61.826
2.6791	63.326
2.6778	64.704
2.6764	65.932
2.6750	66.984
2.6736	67.844
2.6722	68.512
2.6709	69.003
2.6695	69.347
2.6681	69.584
2.6667	69.750
2.6654	69.874
2.6640	69.970
2.6626	70.048
2.6613	70.109
2.6599	70.151
2.6585	70.176
2.6572	70.189
2.6558	70.196
2.6545	70.204
2.6531	70.215
2.6517	70.231
2.6504	70.249
2.6490	70.262
2.6477	70.270
2.6463	70.272
2.6450	70.269
2.6436	70.269
2.6423	70.276
2.6409	70.289
2.6396	70.304
2.6382	70.318
2.6369	70.326
2.6356	70.323
2.6342	70.310
2.6329	70.293
2.6315	70.279
2.6302	70.271
2.6289	70.270
2.6275	70.276
2.6262	70.284
2.6249	70.285
2.6236	70.277
2.6222	70.264
2.6209	70.248
2.6196	70.234
2.6183	70.229
2.6169	70.234
2.6156	70.247
2.6143	70.258
2.6130	70.259
2.6117	70.247
2.6103	70.217
2.6090	70.173
2.6077	70.127
2.6064	70.094
2.6051	70.082
2.6038	70.090
2.6025	70.107
2.6012	70.118
2.5999	70.107
2.5986	70.069
2.5973	70.014
2.5960	69.961
2.5947	69.924
2.5934	69.909
2.5921	69.909
2.5908	69.912
2.5895	69.904
2.5882	69.877
2.5869	69.836
2.5856	69.794
2.5843	69.757
2.5830	69.728
2.5817	69.703
2.5805	69.675
2.5792	69.637
2.5779	69.586
2.5766	69.523
2.5753	69.458
2.5741	69.392
2.5728	69.332
2.5715	69.279
2.5702	69.235
2.5690	69.202
2.5677	69.178
2.5664	69.165
2.5651	69.162
2.5639	69.169
2.5626	69.184
2.5613	69.207
2.5601	69.233
2.5588	69.262
2.5575	69.292
2.5563	69.325
2.5550	69.362
2.5538	69.403
2.5525	69.446
2.5513	69.484
2.5500	69.512
2.5487	69.527
2.5475	69.528
2.5462	69.520
2.5450	69.506
2.5437	69.490
2.5425	69.474
2.5413	69.454
2.5400	69.431
2.5388	69.404
2.5375	69.374
2.5363	69.343
2.5350	69.313
2.5338	69.282
2.5326	69.250
2.5313	69.215
2.5301	69.179
2.5289	69.141
2.5276	69.100
2.5264	69.053
2.5252	68.998
2.5239	68.933
2.5227	68.859
2.5215	68.779
2.5202	68.699
2.5190	68.623
2.5178	68.557
2.5166	68.498
2.5154	68.448
2.5141	68.405
2.5129	68.366
2.5117	68.329
2.5105	68.294
2.5093	68.259
2.5081	68.224
2.5068	68.186
2.5056	68.148
2.5044	68.112
2.5032	68.077
2.5020	68.047
2.5008	68.022
2.4996	68.001
2.4984	67.982
2.4972	67.965
2.4960	67.949
2.4948	67.934
2.4936	67.919
2.4924	67.905
2.4912	67.892
2.4900	67.878
2.4888	67.861
2.4876	67.839
2.4864	67.810
2.4852	67.774
2.4840	67.732
2.4828	67.688
2.4816	67.646
2.4805	67.613
2.4793	67.593
2.4781	67.588
2.4769	67.594
2.4757	67.605
2.4745	67.614
2.4734	67.616
2.4722	67.608
2.4710	67.593
2.4698	67.573
2.4686	67.549
2.4675	67.524
2.4663	67.498
2.4651	67.470
2.4640	67.444
2.4628	67.426
2.4616	67.424
2.4604	67.441
2.4593	67.479
2.4581	67.536
2.4569	67.604
2.4558	67.673
2.4546	67.736
2.4535	67.792
2.4523	67.841
2.4511	67.883
2.4500	67.916
2.4488	67.938
2.4477	67.945
2.4465	67.938
2.4454	67.919
2.4442	67.903
2.4431	67.900
2.4419	67.919
2.4408	67.963
2.4396	68.026
2.4385	68.097
2.4373	68.159
2.4362	68.202
2.4350	68.218
2.4339	68.206
2.4327	68.170
2.4316	68.114
2.4305	68.043
2.4293	67.960
2.4282	67.866
2.4270	67.761
2.4259	67.647
2.4248	67.524
2.4236	67.396
2.4225	67.268
2.4214	67.146
2.4202	67.034
2.4191	66.937
2.4180	66.853
2.4169	66.777
2.4157	66.700
2.4146	66.613
2.4135	66.509
2.4124	66.384
2.4112	66.235
2.4101	66.065
2.4090	65.876
2.4079	65.672
2.4068	65.455
2.4056	65.228
2.4045	64.991
2.4034	64.738
2.4023	64.465
2.4012	64.171
2.4001	63.859
2.3990	63.539
2.3979	63.223
2.3967	62.930
2.3956	62.671
2.3945	62.451
2.3934	62.268
2.3923	62.118
2.3912	62.000
2.3901	61.916
2.3890	61.875
2.3879	61.895
2.3868	61.992
2.3857	62.172
2.3846	62.430
2.3835	62.755
2.3824	63.125
2.3813	63.519
2.3802	63.923
2.3791	64.328
2.3781	64.729
2.3770	65.123
2.3759	65.504
2.3748	65.864
2.3737	66.194
2.3726	66.487
2.3715	66.742
2.3704	66.960
2.3694	67.147
2.3683	67.308
2.3672	67.450
2.3661	67.576
2.3650	67.688
2.3640	67.788
2.3629	67.872
2.3618	67.937
2.3607	67.975
2.3597	67.985
2.3586	67.967
2.3575	67.922
2.3564	67.857
2.3554	67.780
2.3543	67.698
2.3532	67.612
2.3522	67.524
2.3511	67.430
2.3500	67.327
2.3490	67.208
2.3479	67.066
2.3468	66.899
2.3458	66.705
2.3447	66.484
2.3436	66.239
2.3426	65.977
2.3415	65.705
2.3405	65.424
2.3394	65.135
2.3384	64.831
2.3373	64.507
2.3363	64.153
2.3352	63.767
2.3342	63.356
2.3331	62.930
2.3321	62.500
2.3310	62.077
2.3300	61.663
2.3289	61.256
2.3279	60.854
2.3268	60.461
2.3258	60.087
2.3247	59.752
2.3237	59.476
2.3226	59.271
2.3216	59.140
2.3206	59.074
2.3195	59.056
2.3185	59.074
2.3175	59.122
2.3164	59.197
2.3154	59.301
2.3144	59.429
2.3133	59.570
2.3123	59.712
2.3113	59.840
2.3102	59.952
2.3092	60.051
2.3082	60.149
2.3071	60.248
2.3061	60.344
2.3051	60.425
2.3041	60.479
2.3030	60.497
2.3020	60.492
2.3010	60.490
2.3000	60.528
2.2990	60.638
2.2979	60.842
2.2969	61.150
2.2959	61.554
2.2949	62.036
2.2939	62.568
2.2929	63.121
2.2918	63.667
2.2908	64.181
2.2898	64.647
2.2888	65.057
2.2878	65.417
2.2868	65.737
2.2858	66.031
2.2848	66.315
2.2838	66.601
2.2828	66.897
2.2818	67.204
2.2808	67.523
2.2798	67.850
2.2787	68.180
2.2777	68.507
2.2767	68.823
2.2757	69.121
2.2747	69.395
2.2738	69.641
2.2728	69.861
2.2718	70.057
2.2708	70.235
2.2698	70.400
2.2688	70.554
2.2678	70.696
2.2668	70.822
2.2658	70.928
2.2648	71.009
2.2638	71.064
2.2628	71.092
2.2618	71.097
2.2609	71.083
2.2599	71.053
2.2589	71.012
2.2579	70.963
2.2569	70.907
2.2559	70.846
2.2550	70.782
2.2540	70.722
2.2530	70.673
2.2520	70.646
2.2510	70.650
2.2501	70.695
2.2491	70.789
2.2481	70.933
2.2471	71.125
2.2462	71.355
2.2452	71.606
2.2442	71.863
2.2433	72.111
2.2423	72.342
2.2413	72.554
2.2403	72.751
2.2394	72.936
2.2384	73.110
2.2374	73.273
2.2365	73.422
2.2355	73.553
2.2345	73.665
2.2336	73.757
2.2326	73.832
2.2317	73.893
2.2307	73.943
2.2297	73.985
2.2288	74.021
2.2278	74.052
2.2269	74.077
2.2259	74.100
2.2250	74.124
2.2240	74.148
2.2231	74.173
2.2221	74.195
2.2211	74.213
2.2202	74.224
2.2192	74.231
2.2183	74.240
2.2173	74.253
2.2164	74.271
2.2155	74.290
2.2145	74.305
2.2136	74.312
2.2126	74.312
2.2117	74.307
2.2107	74.302
2.2098	74.301
2.2088	74.302
2.2079	74.305
2.2070	74.309
2.2060	74.315
2.2051	74.324
2.2041	74.340
2.2032	74.362
2.2023	74.385
2.2013	74.402
2.2004	74.413
2.1995	74.420
2.1985	74.426
2.1976	74.438
2.1967	74.457
2.1957	74.485
2.1948	74.516
2.1939	74.545
2.1930	74.570
2.1920	74.592
2.1911	74.613
2.1902	74.634
2.1893	74.655
2.1883	74.678
2.1874	74.700
2.1865	74.718
2.1856	74.731
2.1846	74.742
2.1837	74.754
2.1828	74.769
2.1819	74.791
2.1810	74.822
2.1800	74.861
2.1791	74.900
2.1782	74.934
2.1773	74.960
2.1764	74.979
2.1755	74.994
2.1746	75.009
2.1736	75.030
2.1727	75.055
2.1718	75.081
2.1709	75.105
2.1700	75.123
2.1691	75.134
2.1682	75.140
2.1673	75.143
2.1664	75.145
2.1655	75.147
2.1646	75.149
2.1637	75.150
2.1628	75.149
2.1619	75.147
2.1610	75.145
2.1601	75.145
2.1592	75.148
2.1583	75.157
2.1574	75.169
2.1565	75.182
2.1556	75.193
2.1547	75.202
2.1538	75.209
2.1529	75.212
2.1520	75.212
2.1511	75.210
2.1502	75.207
2.1493	75.206
2.1484	75.204
2.1475	75.207
2.1466	75.216
2.1458	75.229
2.1449	75.245
2.1440	75.260
2.1431	75.272
2.1422	75.271
2.1413	75.257
2.1404	75.233
2.1396	75.204
2.1387	75.175
2.1378	75.149
2.1369	75.128
2.1360	75.108
2.1352	75.088
2.1343	75.067
2.1334	75.049
2.1325	75.035
2.1316	75.028
2.1308	75.030
2.1299	75.039
2.1290	75.051
2.1281	75.065
2.1273	75.080
2.1264	75.093
2.1255	75.106
2.1247	75.120
2.1238	75.136
2.1229	75.153
2.1220	75.168
2.1212	75.177
2.1203	75.179
2.1194	75.177
2.1186	75.177
2.1177	75.190
2.1168	75.223
2.1160	75.277
2.1151	75.347
2.1143	75.422
2.1134	75.489
2.1125	75.543
2.1117	75.591
2.1108	75.644
2.1100	75.716
2.1091	75.813
2.1082	75.932
2.1074	76.060
2.1065	76.180
2.1057	76.279
2.1048	76.353
2.1040	76.404
2.1031	76.439
2.1023	76.464
2.1014	76.485
2.1005	76.505
2.0997	76.528
2.0988	76.558
2.0980	76.594
2.0971	76.635
2.0963	76.673
2.0955	76.699
2.0946	76.710
2.0938	76.709
2.0929	76.705
2.0921	76.709
2.0912	76.729
2.0904	76.767
2.0895	76.818
2.0887	76.871
2.0879	76.920
2.0870	76.959
2.0862	76.987
2.0853	77.014
2.0845	77.029
2.0837	77.052
2.0828	77.089
2.0820	77.087
2.0812	77.176
2.0803	77.207
2.0795	77.162
2.0760	77.162
2.0720	77.447
2.0680	77.567
2.0640	77.756
2.0600	77.498
2.0560	77.662
2.0520	77.687
2.0480	77.668
2.0440	77.788
2.0400	78.095
2.0360	77.982
2.0320	77.731
2.0280	77.432
2.0240	77.500
2.0200	77.731
2.0160	77.569
2.0120	77.271
2.0080	77.228
2.0040	77.000
2.0000	76.932
1.9960	76.823
1.9920	76.890
1.9880	76.941
1.9840	76.941
1.9800	76.992
1.9760	76.606
1.9720	76.356
1.9680	76.014
1.9640	75.882
1.9600	75.896
1.9560	75.962
1.9520	75.988
1.9480	75.922
1.9440	75.922
1.9400	75.804
1.9360	75.791
1.9320	75.772
1.9280	75.646
1.9240	75.752
1.9200	75.566
1.9160	75.499
1.9120	75.965
1.9080	76.245
1.9040	76.605
1.9000	76.724
1.8960	76.428
1.8920	76.554
1.8880	76.729
1.8840	76.738
1.8800	77.305
1.8760	77.882
1.8720	78.236
1.8680	77.539
1.8640	77.613
1.8600	77.650
1.8560	77.305
1.8520	77.535
1.8480	77.338
1.8440	77.597
1.8400	77.995
1.8360	78.107
1.8320	78.296
1.8280	78.035
1.8240	77.592
1.8200	77.042
1.8160	76.887
1.8120	76.781
1.8080	76.895
1.8040	77.091
1.8000	76.822
1.7960	76.498
1.7920	76.627
1.7880	76.423
1.7840	76.602
1.7800	76.373
1.7760	76.154
1.7720	76.115
1.7680	76.041
1.7640	75.863
1.7600	75.693
1.7560	75.719
1.7520	75.439
1.7480	75.312
1.7440	75.502
1.7400	75.183
1.7360	75.308
1.7320	75.410
1.7280	75.448
1.7240	75.448
1.7200	75.410
1.7160	75.090
1.7120	75.693
1.7080	75.305
1.7040	75.195
1.7000	74.799
1.6960	74.988
1.6920	74.888
1.6880	74.657
1.6840	74.042
1.6800	74.532
1.6760	74.595
1.6720	74.694
1.6680	74.121
1.6640	73.916
1.6600	73.531
1.6560	73.139
1.6520	73.011
1.6480	73.284
1.6440	73.573
1.6400	73.235
1.6360	73.235
1.6320	73.151
1.6280	72.670
1.6240	72.547
1.6200	72.514
1.6160	72.271
1.6120	72.122
1.6080	72.129
1.6040	72.344
1.6000	71.776
1.5960	71.236
1.5920	71.327
1.5880	71.267
1.5840	71.417
1.5800	71.660
1.5760	71.466
1.5720	71.076
1.5680	70.210
1.5640	69.710
1.5600	69.420
1.5560	69.393
1.5520	69.447
1.5480	69.145
1.5440	68.998
1.5400	68.711
1.5360	69.230
1.5320	69.405
1.5280	69.463
1.5240	68.931
1.5200	68.255
1.5160	68.229
1.5120	68.312
1.5080	68.741
1.5040	68.549
1.5000	68.225
1.4960	67.794
1.4920	66.741
1.4880	66.516
1.4840	66.315
1.4800	65.648
1.4760	65.271
1.4720	65.039
1.4680	65.607
1.4640	65.558
1.4600	65.337
1.4560	65.372
1.4520	65.028
1.4480	64.240
1.4440	64.008
1.4400	63.837
1.4360	63.764
1.4320	63.692
1.4280	63.404
1.4240	63.064
1.4200	62.652
1.4160	62.113
1.4120	61.473
1.4080	60.741
1.4040	59.998
1.4000	58.912
1.3960	57.503
1.3920	56.399
1.3880	55.751
1.3840	56.065
1.3800	57.187
1.3760	58.440
1.3720	58.785
1.3680	58.619
1.3640	58.514
1.3600	58.564
1.3560	58.374
1.3520	58.178
1.3480	57.795
1.3440	57.699
1.3400	57.107
1.3360	56.758
1.3320	56.417
1.3280	56.064
1.3240	55.763
1.3200	55.442
1.3160	55.048
1.3120	54.645
1.3080	54.288
1.3040	53.931
1.3000	53.485
1.2960	53.129
1.2920	52.814
1.2880	52.365
1.2840	52.134
1.2800	51.897
1.2760	51.432
1.2720	51.341
1.2680	51.198
1.2640	51.019
1.2600	50.562
1.2560	50.021
1.2520	50.021
1.2480	49.615
1.2440	49.094
1.2400	48.650
1.2360	48.328
1.2320	47.914
1.2280	47.802
1.2240	47.279
1.2200	46.877
1.2160	46.410
1.2120	46.113
1.2080	45.508
1.2040	45.147
1.2000	44.876
1.1960	44.397
1.1920	44.017
1.1880	43.639
1.1840	43.424
1.1800	43.029
1.1760	42.655
1.1720	42.496
1.1680	42.228
1.1640	41.791
1.1600	41.525
1.1560	41.696
1.1520	41.571
1.1480	41.372
1.1440	41.315
1.1400	41.077
1.1360	40.531
1.1320	40.341
1.1280	39.922
1.1240	39.748
1.1200	39.303
1.1160	39.154
1.1120	38.983
1.1080	38.678
1.1040	38.551
1.1000	38.266
1.0960	38.282
1.0920	37.731
1.0880	37.552
1.0840	37.555
1.0800	36.855
1.0760	36.674
1.0720	36.292
1.0680	35.869
1.0640	35.458
1.0600	35.573
1.0560	35.254
1.0520	34.929
1.0480	34.640
1.0440	34.526
1.0400	34.575
1.0360	34.262
1.0320	34.081
1.0280	34.332
1.0240	34.297
1.0200	34.207
1.0160	34.144
1.0120	33.951
1.0080	34.061
1.0040	33.844
1.0000	33.707
0.99600	33.789
0.99200	33.608
0.98800	33.724
0.98400	33.617
0.98000	33.927
0.97600	33.699
0.97200	33.581
0.96800	33.726
0.96400	33.836
0.96000	33.726
0.95600	33.573
0.95200	33.491
0.94800	33.491
0.94400	33.491
0.94000	33.527
0.93600	33.383
0.93200	33.410
0.92800	33.249
0.92400	33.356
0.92000	33.070
0.91600	33.123
0.91200	33.275
0.90800	33.150
0.90400	33.096
0.90000	33.150
0.89600	33.034
0.89200	32.944
0.88800	32.971
0.88400	32.935
0.88000	32.925
0.87600	33.095
0.87200	33.194
0.86800	33.140
0.86400	33.040
0.86000	33.258
0.85600	32.994
0.85200	33.021
0.84800	33.241
0.84400	33.102
0.84000	33.193
0.83600	33.422
0.83200	33.203
0.82800	33.357
0.82400	33.366
0.82000	33.530
0.81600	33.383
0.81200	33.248
0.80800	33.392
0.80400	33.608
0.80000	33.616
0.79900	32.554
0.79800	32.554
0.79700	32.523
0.79600	32.487
0.79500	32.584
0.79400	32.843
0.79300	32.523
0.79200	32.359
0.79100	32.423
0.79000	32.485
0.78900	32.359
0.78800	32.298
0.78700	32.426
0.78600	32.237
0.78500	32.262
0.78400	32.454
0.78300	32.259
0.78200	32.013
0.78100	31.913
0.78000	32.064
0.77900	31.863
0.77800	31.803
0.77700	31.937
0.77600	31.752
0.77500	31.786
0.77400	31.786
0.77300	31.786
0.77200	31.753
0.77100	31.563
0.77000	31.188
0.76900	31.415
0.76800	31.463
0.76700	31.642
0.76600	31.545
0.76500	31.396
0.76400	31.516
0.76300	31.224
0.76200	31.168
0.76100	31.413
0.76000	30.942
0.75900	31.144
0.75800	31.144
0.75700	31.144
0.75600	31.165
0.75500	30.991
0.75400	31.211
0.75300	30.883
0.75200	30.622
0.75100	30.428
0.75000	30.564
0.74900	30.874
0.74800	30.680
0.74700	30.389
0.74600	30.235
0.74500	30.292
0.74400	30.548
0.74300	30.121
0.74200	30.229
0.74100	30.742
0.74000	30.842
0.73900	30.213
0.73800	30.018
0.73700	29.808
0.73600	29.910
0.73500	29.808
0.73400	29.921
0.73300	30.179
0.73200	30.234
0.73100	30.061
0.73000	29.882
0.72900	30.053
0.72800	30.042
0.72700	30.013
0.72600	30.099
0.72500	29.709
0.72400	29.693
0.72300	29.693
0.72200	29.702
0.72100	29.624
0.72000	29.477
0.71900	29.742
0.71800	29.771
0.71700	29.839
0.71600	29.822
0.71500	29.650
0.71400	29.650
0.71300	29.514
0.71200	29.733
0.71100	29.597
0.71000	29.810
0.70900	29.724
0.70800	29.683
0.70700	29.219
0.70600	29.275
0.70500	29.205
0.70400	29.192
0.70300	29.301
0.70200	29.301
0.70100	29.012
0.70000	29.052
0.69900	29.307
0.69800	29.355
0.69700	29.527
0.69600	29.410
0.69500	29.468
0.69400	29.168
0.69300	29.139
0.69200	29.252
0.69100	29.368
0.69000	29.539
0.68900	29.627
0.68800	29.568
0.68700	29.368
0.68600	29.268
0.68500	29.225
0.68400	28.967
0.68300	29.168
0.68200	29.139
0.68100	29.339
0.68000	29.426
0.67900	29.455
0.67800	29.426
0.67700	29.067
0.67600	29.268
0.67500	29.556
0.67400	29.556
0.67300	29.255
0.67200	29.039
0.67100	29.212
0.67000	29.485
0.66900	29.514
0.66800	29.484
0.66700	29.384
0.66600	29.455
0.66500	29.225
0.66400	28.939
0.66300	28.711
0.66200	29.068
0.66100	29.068
0.66000	29.212
0.65900	29.663
0.65800	29.663
0.65700	29.300
0.65600	29.155
0.65500	28.982
0.65400	29.025
0.65300	29.068
0.65200	28.867
0.65100	28.910
0.65000	28.953
0.64900	28.968
0.64800	29.066
0.64700	29.082
0.64600	29.460
0.64500	29.662
0.64400	29.764
0.64300	29.704
0.64200	29.456
0.64100	29.125
0.64000	29.734
0.63900	29.777
0.63800	29.284
0.63700	29.139
0.63600	29.152
0.63500	28.939
0.63400	28.968
0.63300	28.939
0.63200	28.910
0.63100	29.054
0.63000	29.168
0.62900	29.310
0.62800	28.982
0.62700	28.882
0.62600	29.010
0.62500	29.255
0.62400	29.226
0.62300	29.339
0.62200	29.081
0.62100	29.152
0.62000	29.284
0.61900	29.692
0.61800	29.639
0.61700	29.752
0.61600	29.865
0.61500	29.805
0.61400	29.586
0.61300	29.468
0.61200	29.704
0.61100	29.663
0.61000	29.835
0.60900	29.704
0.60800	29.674
0.60700	29.674
0.60600	29.631
0.60500	29.602
0.60400	29.602
0.60300	29.663
0.60200	29.854
0.60100	29.595
0.60000	29.672
0.59900	29.660
0.59800	29.702
0.59700	29.854
0.59600	29.842
0.59500	29.675
0.59400	29.763
0.59300	29.903
0.59200	29.949
0.59100	29.815
0.59000	29.708
0.58900	29.517
0.58800	29.535
0.58700	29.784
0.58600	29.949
0.58500	29.995
0.58400	29.600
0.58300	29.766
0.58200	29.557
0.58100	29.630
0.58000	29.826
0.57900	30.094
0.57800	30.063
0.57700	30.146
0.57600	29.838
0.57500	29.868
0.57400	29.910
0.57300	29.931
0.57200	29.865
0.57100	30.087
0.57000	29.966
0.56900	29.935
0.56800	29.936
0.56700	29.649
0.56600	29.985
0.56500	29.854
0.56400	29.895
0.56300	30.015
0.56200	29.884
0.56100	29.782
0.56000	30.110
0.55900	29.819
0.55800	29.819
0.55700	29.958
0.55600	29.705
0.55500	29.551
0.55400	29.607
0.55300	29.408
0.55200	29.394
0.55100	29.378
0.55000	29.363
0.54900	29.630
0.54800	29.461
0.54700	29.434
0.54600	29.674
0.54500	29.630
0.54400	29.517
0.54300	29.587
0.54200	29.615
0.54100	29.314
0.54000	29.615
0.53900	29.511
0.53800	29.642
0.53700	29.354
0.53600	29.152
0.53500	29.124
0.53400	29.180
0.53300	28.902
0.53200	28.810
0.53100	28.683
0.53000	28.638
0.52900	28.575
0.52800	28.738
0.52700	28.710
0.52600	28.409
0.52500	28.509
0.52400	28.564
0.52300	28.482
0.52200	28.611
0.52100	28.483
0.52000	28.544
0.51900	28.416
0.51800	28.235
0.51700	28.463
0.51600	28.336
0.51500	28.316
0.51400	27.933
0.51300	27.959
0.51200	27.702
0.51100	27.476
0.51000	27.579
0.50900	27.427
0.50800	27.557
0.50700	27.714
0.50600	27.383
0.50500	27.306
0.50400	27.559
0.50300	27.487
0.50200	27.384
0.50100	27.389
0.50000	27.413
0.49900	26.953
0.49800	26.701
0.49700	26.928
0.49600	26.525
0.49500	26.499
0.49400	26.148
0.49300	26.423
0.49200	26.650
0.49100	26.675
0.49000	26.346
0.48900	26.243
0.48800	26.164
0.48700	26.019
0.48600	25.966
0.48500	25.630
0.48400	25.937
0.48300	25.908
0.48200	25.787
0.48100	25.686
0.48000	25.491
0.47900	25.539
0.47800	25.508
0.47700	25.146
0.47600	24.934
0.47500	24.786
0.47400	24.925
0.47300	24.672
0.47200	24.728
0.47100	24.355
0.47000	24.355
0.46900	24.199
0.46800	24.333
0.46700	23.939
0.46600	24.163
0.46500	23.816
0.46400	23.845
0.46300	23.867
0.46200	23.831
0.46100	23.720
0.46000	23.409
0.45900	24.005
0.45800	24.240
0.45700	23.998
0.45600	23.939
0.45500	23.976
0.45400	23.644
0.45300	23.663
0.45200	23.644
0.45100	23.457
0.45000	23.563
0.44900	23.627
0.44800	23.149
0.44700	23.067
0.44600	23.085
0.44500	22.977
0.44400	23.085
0.44300	22.763
0.44200	22.632
0.44100	22.935
0.44000	22.720
0.43900	22.656
0.43800	22.945
0.43700	22.712
0.43600	22.820
0.43500	22.966
0.43400	22.752
0.43300	22.309
0.43200	22.538
0.43100	22.387
0.43000	22.427
0.42900	22.586
0.42800	22.316
0.42700	22.076
0.42600	22.172
0.42500	21.705
0.42400	21.848
0.42300	21.848
0.42200	21.557
0.42100	21.376
0.42000	21.618
0.41900	21.306
0.41800	21.339
0.41700	20.940
0.41600	20.935
0.41500	21.028
0.41400	20.993
0.41300	20.707
0.41200	20.359
0.41100	20.171
0.41000	20.166
0.40900	20.326
0.40800	20.269
0.40700	20.286
0.40600	20.206
0.40500	20.068
0.40400	19.798
0.40300	20.010
0.40200	20.133
0.40100	19.748
0.40000	19.862
