Name: Gray Slate
Type:  Rocks
Class:  Metamorphic 
Subclass: Slate
Particle Size:  0-75 Micrometer
Sample No.:   slate1.doc
Owner:  JHU
Wavelength Range:  All
Origin:  Sample No. 307, The Hunt and Salisbury Collection at the U.S. 
Geological Survey, Denver, Co.
Description: This is a light gray somewhat banded rock.  It is fine-grained to 
microcrystalline and consists of carbonate, quartz, some feldspar and clay.  
Abundant carbonaceous granules are scattered in discontinuous bands 
throughout the section.


Measurement:  Directional (10 Degree) Hemispherical Reflectance
First Column:  X
Second Column:  Y  
X Units:  Wavelength (micrometers)
Y Units:  Reflectance (percent)
First X Value: 14.0112	
Last X Value:  0.4
Number of X Values: 2844
Additional Information:  None

14.983	1.1692
14.940	1.3416
14.897	1.4967
14.854	1.6362
14.812	1.7775
14.770	1.9263
14.728	2.0638
14.686	2.1718
14.645	2.2370
14.603	2.2443
14.562	2.1882
14.521	2.0752
14.481	1.9319
14.441	1.7974
14.400	1.7110
14.361	1.7029
14.321	1.7856
14.281	1.9466
14.242	2.1579
14.203	2.3812
14.164	2.5801
14.126	2.7317
14.087	2.8281
14.049	2.8738
14.011	2.8811
13.973	2.8643
13.936	2.8387
13.899	2.8174
13.861	2.8089
13.824	2.8195
13.788	2.8532
13.751	2.9093
13.715	2.9789
13.679	3.0433
13.643	3.0845
13.607	3.0928
13.571	3.0670
13.536	3.0137
13.500	2.9481
13.465	2.8889
13.430	2.8487
13.396	2.8297
13.361	2.8290
13.327	2.8404
13.293	2.8553
13.259	2.8648
13.225	2.8659
13.191	2.8631
13.158	2.8636
13.124	2.8707
13.091	2.8839
13.058	2.8960
13.026	2.8922
12.993	2.8565
12.960	2.7816
12.928	2.6718
12.896	2.5403
12.864	2.4056
12.832	2.2879
12.800	2.2003
12.769	2.1460
12.737	2.1186
12.706	2.1072
12.675	2.0991
12.644	2.0807
12.614	2.0418
12.583	1.9798
12.552	1.8964
12.522	1.7998
12.492	1.7025
12.462	1.6231
12.432	1.5803
12.402	1.5857
12.373	1.6430
12.343	1.7475
12.314	1.8855
12.285	2.0397
12.256	2.1927
12.227	2.3333
12.198	2.4574
12.169	2.5647
12.141	2.6597
12.113	2.7497
12.084	2.8418
12.056	2.9439
12.028	3.0604
12.000	3.1935
11.973	3.3422
11.945	3.5023
11.918	3.6678
11.890	3.8326
11.863	3.9934
11.836	4.1504
11.809	4.3044
11.782	4.4564
11.755	4.6061
11.729	4.7512
11.702	4.8879
11.676	5.0098
11.650	5.1112
11.624	5.1856
11.598	5.2270
11.572	5.2324
11.546	5.2038
11.520	5.1477
11.495	5.0766
11.469	5.0037
11.444	4.9402
11.419	4.8921
11.394	4.8602
11.369	4.8403
11.344	4.8256
11.319	4.8083
11.294	4.7806
11.270	4.7363
11.245	4.6705
11.221	4.5795
11.197	4.4635
11.173	4.3254
11.149	4.1715
11.125	4.0102
11.101	3.8525
11.077	3.7104
11.054	3.5944
11.030	3.5117
11.007	3.4656
10.983	3.4535
10.960	3.4696
10.937	3.5051
10.914	3.5520
10.891	3.6034
10.868	3.6519
10.846	3.6920
10.823	3.7190
10.800	3.7296
10.778	3.7235
10.755	3.7026
10.733	3.6723
10.711	3.6387
10.689	3.6062
10.667	3.5769
10.645	3.5515
10.623	3.5276
10.602	3.5025
10.580	3.4724
10.558	3.4367
10.537	3.3957
10.516	3.3502
10.494	3.2998
10.473	3.2449
10.452	3.1852
10.431	3.1212
10.410	3.0530
10.389	2.9832
10.368	2.9154
10.348	2.8522
10.327	2.7940
10.306	2.7404
10.286	2.6931
10.266	2.6538
10.245	2.6234
10.225	2.6031
10.205	2.5936
10.185	2.5927
10.165	2.5957
10.145	2.6000
10.125	2.6033
10.106	2.6057
10.086	2.6073
10.066	2.6078
10.047	2.6088
10.027	2.6104
10.008	2.6128
9.9887	2.6149
9.9695	2.6166
9.9504	2.6173
9.9313	2.6163
9.9123	2.6140
9.8934	2.6109
9.8746	2.6095
9.8558	2.6116
9.8371	2.6185
9.8185	2.6303
9.7999	2.6476
9.7814	2.6725
9.7630	2.7068
9.7447	2.7518
9.7264	2.8089
9.7082	2.8757
9.6900	2.9455
9.6719	3.0104
9.6539	3.0632
9.6360	3.1004
9.6181	3.1234
9.6003	3.1359
9.5825	3.1452
9.5649	3.1556
9.5472	3.1676
9.5297	3.1795
9.5122	3.1894
9.4948	3.1989
9.4774	3.2136
9.4601	3.2441
9.4429	3.3029
9.4257	3.3997
9.4086	3.5359
9.3916	3.7029
9.3746	3.8838
9.3577	4.0581
9.3408	4.2058
9.3240	4.3138
9.3073	4.3780
9.2906	4.4022
9.2740	4.3970
9.2574	4.3756
9.2409	4.3503
9.2245	4.3295
9.2081	4.3186
9.1918	4.3193
9.1755	4.3292
9.1593	4.3451
9.1431	4.3640
9.1270	4.3830
9.1110	4.3984
9.0950	4.4081
9.0791	4.4109
9.0632	4.4076
9.0474	4.3991
9.0316	4.3868
9.0159	4.3721
9.0003	4.3558
8.9847	4.3370
8.9691	4.3153
8.9536	4.2899
8.9382	4.2617
8.9228	4.2312
8.9075	4.1995
8.8922	4.1680
8.8770	4.1376
8.8618	4.1078
8.8467	4.0777
8.8316	4.0469
8.8166	4.0150
8.8016	3.9821
8.7867	3.9496
8.7718	3.9193
8.7570	3.8923
8.7422	3.8660
8.7275	3.8343
8.7129	3.7881
8.6982	3.7194
8.6837	3.6242
8.6692	3.5096
8.6547	3.3955
8.6403	3.3069
8.6259	3.2666
8.6116	3.2872
8.5973	3.3654
8.5830	3.4819
8.5688	3.6088
8.5547	3.7201
8.5406	3.8007
8.5266	3.8452
8.5126	3.8582
8.4986	3.8509
8.4847	3.8350
8.4708	3.8184
8.4570	3.8040
8.4432	3.7926
8.4295	3.7843
8.4158	3.7782
8.4022	3.7741
8.3886	3.7739
8.3750	3.7805
8.3615	3.7971
8.3481	3.8260
8.3347	3.8712
8.3213	3.9385
8.3079	4.0325
8.2946	4.1564
8.2814	4.3100
8.2682	4.4919
8.2550	4.6980
8.2419	4.9220
8.2288	5.1567
8.2158	5.3935
8.2028	5.6211
8.1898	5.8247
8.1769	5.9900
8.1640	6.1058
8.1512	6.1693
8.1384	6.1833
8.1256	6.1570
8.1129	6.1035
8.1002	6.0353
8.0876	5.9621
8.0750	5.8920
8.0624	5.8314
8.0499	5.7861
8.0374	5.7589
8.0250	5.7489
8.0126	5.7523
8.0002	5.7605
7.9879	5.7648
7.9756	5.7572
7.9634	5.7338
7.9512	5.6938
7.9390	5.6402
7.9268	5.5789
7.9147	5.5162
7.9027	5.4572
7.8906	5.4067
7.8786	5.3665
7.8667	5.3369
7.8548	5.3182
7.8429	5.3123
7.8310	5.3224
7.8192	5.3535
7.8075	5.4105
7.7957	5.4967
7.7840	5.6099
7.7723	5.7442
7.7607	5.8898
7.7491	6.0374
7.7375	6.1783
7.7260	6.3085
7.7145	6.4274
7.7031	6.5366
7.6916	6.6356
7.6802	6.7230
7.6689	6.7957
7.6575	6.8523
7.6462	6.8935
7.6350	6.9245
7.6238	6.9539
7.6126	6.9915
7.6014	7.0441
7.5903	7.1144
7.5792	7.2018
7.5681	7.3015
7.5571	7.4050
7.5461	7.5030
7.5351	7.5876
7.5242	7.6534
7.5133	7.6984
7.5024	7.7247
7.4916	7.7387
7.4807	7.7477
7.4700	7.7576
7.4592	7.7716
7.4485	7.7889
7.4378	7.8064
7.4272	7.8182
7.4165	7.8187
7.4059	7.8038
7.3954	7.7709
7.3848	7.7192
7.3743	7.6503
7.3639	7.5670
7.3534	7.4720
7.3430	7.3688
7.3326	7.2605
7.3223	7.1502
7.3119	7.0393
7.3016	6.9304
7.2914	6.8262
7.2811	6.7286
7.2709	6.6389
7.2607	6.5572
7.2506	6.4833
7.2404	6.4153
7.2303	6.3500
7.2203	6.2853
7.2102	6.2212
7.2002	6.1591
7.1902	6.1035
7.1803	6.0589
7.1703	6.0310
7.1604	6.0225
7.1506	6.0336
7.1407	6.0622
7.1309	6.1044
7.1211	6.1534
7.1113	6.2010
7.1016	6.2391
7.0919	6.2605
7.0822	6.2609
7.0725	6.2406
7.0629	6.2055
7.0533	6.1636
7.0437	6.1219
7.0341	6.0843
7.0246	6.0514
7.0151	6.0201
7.0056	5.9877
6.9962	5.9535
6.9867	5.9202
6.9773	5.8925
6.9679	5.8756
6.9586	5.8740
6.9493	5.8896
6.9400	5.9204
6.9307	5.9628
6.9214	6.0109
6.9122	6.0570
6.9030	6.0952
6.8938	6.1219
6.8847	6.1402
6.8755	6.1570
6.8664	6.1795
6.8573	6.2140
6.8483	6.2619
6.8393	6.3180
6.8302	6.3734
6.8213	6.4194
6.8123	6.4530
6.8034	6.4781
6.7944	6.5018
6.7855	6.5319
6.7767	6.5733
6.7678	6.6249
6.7590	6.6815
6.7502	6.7362
6.7414	6.7860
6.7327	6.8331
6.7239	6.8854
6.7152	6.9536
6.7065	7.0453
6.6979	7.1615
6.6892	7.2977
6.6806	7.4434
6.6720	7.5854
6.6634	7.7143
6.6549	7.8315
6.6464	7.9454
6.6378	8.0643
6.6294	8.1934
6.6209	8.3307
6.6124	8.4688
6.6040	8.5948
6.5956	8.7011
6.5872	8.7934
6.5789	8.8860
6.5705	8.9966
6.5622	9.1418
6.5539	9.3315
6.5456	9.5650
6.5374	9.8335
6.5292	10.125
6.5209	10.429
6.5128	10.745
6.5046	11.078
6.4964	11.437
6.4883	11.827
6.4802	12.241
6.4721	12.659
6.4640	13.047
6.4560	13.369
6.4480	13.606
6.4399	13.752
6.4320	13.826
6.4240	13.861
6.4160	13.882
6.4081	13.901
6.4002	13.911
6.3923	13.892
6.3844	13.825
6.3766	13.697
6.3687	13.512
6.3609	13.292
6.3531	13.061
6.3454	12.833
6.3376	12.616
6.3299	12.406
6.3221	12.199
6.3144	11.984
6.3068	11.757
6.2991	11.521
6.2914	11.285
6.2838	11.051
6.2762	10.823
6.2686	10.605
6.2611	10.399
6.2535	10.206
6.2460	10.030
6.2385	9.8729
6.2310	9.7386
6.2235	9.6311
6.2160	9.5550
6.2086	9.5179
6.2011	9.5307
6.1937	9.6048
6.1863	9.7488
6.1790	9.9654
6.1716	10.251
6.1643	10.590
6.1570	10.959
6.1496	11.331
6.1424	11.683
6.1351	11.998
6.1278	12.273
6.1206	12.515
6.1134	12.738
6.1062	12.946
6.0990	13.133
6.0918	13.286
6.0847	13.392
6.0776	13.442
6.0704	13.444
6.0633	13.425
6.0563	13.421
6.0492	13.455
6.0421	13.526
6.0351	13.623
6.0281	13.718
6.0211	13.782
6.0141	13.788
6.0071	13.738
6.0002	13.648
5.9932	13.530
5.9863	13.395
5.9794	13.252
5.9725	13.105
5.9657	12.957
5.9588	12.812
5.9520	12.693
5.9451	12.628
5.9383	12.637
5.9315	12.722
5.9247	12.873
5.9180	13.065
5.9112	13.271
5.9045	13.475
5.8978	13.681
5.8911	13.910
5.8844	14.178
5.8777	14.490
5.8711	14.833
5.8644	15.178
5.8578	15.495
5.8512	15.759
5.8446	15.964
5.8380	16.125
5.8314	16.273
5.8249	16.433
5.8184	16.620
5.8118	16.827
5.8053	17.035
5.7988	17.217
5.7923	17.347
5.7859	17.423
5.7794	17.463
5.7730	17.497
5.7666	17.547
5.7602	17.627
5.7538	17.733
5.7474	17.848
5.7410	17.950
5.7347	18.022
5.7283	18.065
5.7220	18.090
5.7157	18.105
5.7094	18.115
5.7031	18.120
5.6969	18.114
5.6906	18.083
5.6844	18.012
5.6782	17.894
5.6719	17.724
5.6657	17.502
5.6596	17.236
5.6534	16.944
5.6472	16.644
5.6411	16.357
5.6349	16.096
5.6288	15.859
5.6227	15.637
5.6166	15.411
5.6106	15.158
5.6045	14.868
5.5984	14.540
5.5924	14.188
5.5864	13.845
5.5804	13.551
5.5744	13.352
5.5684	13.283
5.5624	13.368
5.5564	13.607
5.5505	13.976
5.5445	14.436
5.5386	14.941
5.5327	15.448
5.5268	15.927
5.5209	16.362
5.5151	16.754
5.5092	17.110
5.5033	17.441
5.4975	17.755
5.4917	18.056
5.4859	18.346
5.4801	18.626
5.4743	18.896
5.4685	19.153
5.4628	19.386
5.4570	19.582
5.4513	19.722
5.4455	19.790
5.4398	19.774
5.4341	19.674
5.4284	19.494
5.4228	19.240
5.4171	18.913
5.4114	18.513
5.4058	18.040
5.4002	17.498
5.3945	16.903
5.3889	16.286
5.3833	15.683
5.3778	15.127
5.3722	14.647
5.3666	14.260
5.3611	13.973
5.3555	13.783
5.3500	13.682
5.3445	13.658
5.3390	13.696
5.3335	13.780
5.3280	13.894
5.3225	14.028
5.3171	14.174
5.3116	14.332
5.3062	14.506
5.3008	14.705
5.2954	14.937
5.2900	15.211
5.2846	15.531
5.2792	15.897
5.2738	16.306
5.2684	16.752
5.2631	17.234
5.2578	17.749
5.2524	18.299
5.2471	18.878
5.2418	19.482
5.2365	20.094
5.2312	20.695
5.2260	21.264
5.2207	21.784
5.2154	22.241
5.2102	22.627
5.2050	22.940
5.1998	23.183
5.1945	23.362
5.1893	23.488
5.1842	23.573
5.1790	23.630
5.1738	23.670
5.1686	23.700
5.1635	23.723
5.1584	23.742
5.1532	23.757
5.1481	23.771
5.1430	23.788
5.1379	23.813
5.1328	23.848
5.1277	23.893
5.1227	23.940
5.1176	23.981
5.1126	24.003
5.1075	23.993
5.1025	23.944
5.0975	23.855
5.0925	23.730
5.0875	23.582
5.0825	23.427
5.0775	23.280
5.0726	23.154
5.0676	23.058
5.0627	22.992
5.0577	22.952
5.0528	22.932
5.0479	22.922
5.0430	22.914
5.0380	22.898
5.0332	22.872
5.0283	22.839
5.0234	22.805
5.0185	22.784
5.0137	22.786
5.0088	22.823
5.0040	22.902
4.9992	23.031
4.9944	23.215
4.9896	23.464
4.9848	23.785
4.9800	24.183
4.9752	24.648
4.9704	25.162
4.9657	25.696
4.9609	26.214
4.9562	26.685
4.9514	27.088
4.9467	27.417
4.9420	27.686
4.9373	27.917
4.9326	28.146
4.9279	28.406
4.9232	28.725
4.9186	29.120
4.9139	29.593
4.9092	30.133
4.9046	30.720
4.9000	31.326
4.8953	31.925
4.8907	32.492
4.8861	33.011
4.8815	33.475
4.8769	33.885
4.8723	34.247
4.8678	34.570
4.8632	34.866
4.8586	35.140
4.8541	35.395
4.8495	35.632
4.8450	35.850
4.8405	36.048
4.8360	36.226
4.8315	36.386
4.8270	36.527
4.8225	36.651
4.8180	36.759
4.8135	36.854
4.8090	36.938
4.8046	37.016
4.8001	37.090
4.7957	37.165
4.7913	37.246
4.7868	37.337
4.7824	37.441
4.7780	37.561
4.7736	37.698
4.7692	37.850
4.7648	38.012
4.7605	38.180
4.7561	38.348
4.7517	38.512
4.7474	38.668
4.7431	38.815
4.7387	38.954
4.7344	39.085
4.7301	39.211
4.7258	39.331
4.7215	39.440
4.7172	39.537
4.7129	39.613
4.7086	39.664
4.7043	39.687
4.7000	39.687
4.6958	39.672
4.6915	39.657
4.6873	39.661
4.6831	39.696
4.6788	39.771
4.6746	39.884
4.6704	40.027
4.6662	40.190
4.6620	40.363
4.6578	40.541
4.6536	40.723
4.6495	40.910
4.6453	41.103
4.6411	41.301
4.6370	41.502
4.6328	41.701
4.6287	41.896
4.6246	42.084
4.6205	42.262
4.6163	42.430
4.6122	42.589
4.6081	42.741
4.6040	42.884
4.6000	43.022
4.5959	43.155
4.5918	43.282
4.5877	43.403
4.5837	43.517
4.5796	43.624
4.5756	43.723
4.5716	43.814
4.5675	43.897
4.5635	43.969
4.5595	44.030
4.5555	44.079
4.5515	44.115
4.5475	44.140
4.5435	44.155
4.5395	44.161
4.5356	44.159
4.5316	44.146
4.5276	44.122
4.5237	44.084
4.5197	44.031
4.5158	43.964
4.5119	43.887
4.5080	43.806
4.5040	43.731
4.5001	43.669
4.4962	43.627
4.4923	43.604
4.4884	43.595
4.4846	43.597
4.4807	43.605
4.4768	43.621
4.4730	43.650
4.4691	43.699
4.4652	43.774
4.4614	43.875
4.4576	43.998
4.4537	44.133
4.4499	44.272
4.4461	44.407
4.4423	44.532
4.4385	44.649
4.4347	44.760
4.4309	44.869
4.4271	44.978
4.4233	45.089
4.4196	45.201
4.4158	45.314
4.4120	45.430
4.4083	45.547
4.4045	45.668
4.4008	45.792
4.3971	45.917
4.3934	46.044
4.3896	46.169
4.3859	46.294
4.3822	46.418
4.3785	46.540
4.3748	46.658
4.3711	46.770
4.3674	46.876
4.3638	46.974
4.3601	47.064
4.3564	47.147
4.3528	47.223
4.3491	47.291
4.3455	47.351
4.3418	47.404
4.3382	47.452
4.3346	47.499
4.3310	47.546
4.3273	47.593
4.3237	47.638
4.3201	47.678
4.3165	47.711
4.3129	47.735
4.3094	47.754
4.3058	47.770
4.3022	47.785
4.2986	47.800
4.2951	47.817
4.2915	47.836
4.2880	47.861
4.2844	47.892
4.2809	47.931
4.2774	47.977
4.2738	48.027
4.2703	48.081
4.2668	48.133
4.2633	48.181
4.2598	48.223
4.2563	48.258
4.2528	48.285
4.2493	48.303
4.2458	48.313
4.2424	48.322
4.2389	48.331
4.2354	48.344
4.2320	48.362
4.2285	48.388
4.2251	48.418
4.2216	48.450
4.2182	48.481
4.2148	48.509
4.2113	48.532
4.2079	48.549
4.2045	48.564
4.2011	48.577
4.1977	48.592
4.1943	48.611
4.1909	48.634
4.1875	48.662
4.1841	48.691
4.1808	48.718
4.1774	48.744
4.1740	48.768
4.1707	48.791
4.1673	48.814
4.1640	48.839
4.1606	48.862
4.1573	48.884
4.1540	48.904
4.1506	48.922
4.1473	48.940
4.1440	48.957
4.1407	48.973
4.1374	48.988
4.1341	49.001
4.1308	49.014
4.1275	49.025
4.1242	49.037
4.1209	49.049
4.1177	49.060
4.1144	49.068
4.1111	49.073
4.1079	49.074
4.1046	49.074
4.1014	49.072
4.0981	49.069
4.0949	49.064
4.0917	49.055
4.0884	49.040
4.0852	49.017
4.0820	48.985
4.0788	48.946
4.0756	48.899
4.0724	48.846
4.0692	48.787
4.0660	48.721
4.0628	48.644
4.0596	48.552
4.0565	48.439
4.0533	48.299
4.0501	48.122
4.0470	47.902
4.0438	47.636
4.0406	47.321
4.0375	46.965
4.0344	46.576
4.0312	46.170
4.0281	45.764
4.0250	45.370
4.0218	44.998
4.0187	44.646
4.0156	44.306
4.0125	43.956
4.0094	43.573
4.0063	43.137
4.0032	42.635
4.0001	42.069
3.9970	41.457
3.9940	40.828
3.9909	40.222
3.9878	39.678
3.9847	39.228
3.9817	38.893
3.9786	38.681
3.9756	38.590
3.9725	38.607
3.9695	38.722
3.9665	38.924
3.9634	39.205
3.9604	39.564
3.9574	39.996
3.9544	40.494
3.9513	41.042
3.9483	41.619
3.9453	42.196
3.9423	42.741
3.9393	43.230
3.9363	43.646
3.9333	43.982
3.9304	44.245
3.9274	44.450
3.9244	44.615
3.9214	44.757
3.9185	44.887
3.9155	45.009
3.9126	45.124
3.9096	45.227
3.9067	45.316
3.9037	45.389
3.9008	45.448
3.8979	45.495
3.8949	45.536
3.8920	45.578
3.8891	45.621
3.8862	45.669
3.8833	45.720
3.8804	45.772
3.8775	45.824
3.8746	45.876
3.8717	45.929
3.8688	45.983
3.8659	46.037
3.8630	46.090
3.8601	46.139
3.8573	46.185
3.8544	46.228
3.8515	46.271
3.8487	46.315
3.8458	46.363
3.8430	46.418
3.8401	46.483
3.8373	46.562
3.8344	46.657
3.8316	46.770
3.8288	46.898
3.8259	47.039
3.8231	47.185
3.8203	47.329
3.8175	47.471
3.8147	47.610
3.8119	47.750
3.8091	47.895
3.8063	48.046
3.8035	48.202
3.8007	48.360
3.7979	48.512
3.7951	48.653
3.7924	48.780
3.7896	48.890
3.7868	48.980
3.7841	49.053
3.7813	49.111
3.7785	49.154
3.7758	49.185
3.7730	49.208
3.7703	49.222
3.7676	49.229
3.7648	49.229
3.7621	49.222
3.7594	49.209
3.7566	49.192
3.7539	49.174
3.7512	49.158
3.7485	49.145
3.7458	49.135
3.7431	49.126
3.7404	49.117
3.7377	49.108
3.7350	49.096
3.7323	49.082
3.7296	49.064
3.7269	49.046
3.7242	49.026
3.7216	49.005
3.7189	48.986
3.7162	48.970
3.7136	48.956
3.7109	48.943
3.7083	48.930
3.7056	48.918
3.7030	48.905
3.7003	48.890
3.6977	48.874
3.6950	48.856
3.6924	48.834
3.6898	48.811
3.6872	48.786
3.6845	48.762
3.6819	48.740
3.6793	48.719
3.6767	48.699
3.6741	48.678
3.6715	48.654
3.6689	48.629
3.6663	48.604
3.6637	48.580
3.6611	48.558
3.6585	48.537
3.6560	48.516
3.6534	48.491
3.6508	48.460
3.6482	48.422
3.6457	48.377
3.6431	48.327
3.6406	48.274
3.6380	48.221
3.6355	48.169
3.6329	48.119
3.6304	48.069
3.6278	48.020
3.6253	47.968
3.6227	47.915
3.6202	47.858
3.6177	47.799
3.6152	47.738
3.6127	47.675
3.6101	47.610
3.6076	47.543
3.6051	47.473
3.6026	47.400
3.6001	47.322
3.5976	47.240
3.5951	47.155
3.5926	47.066
3.5901	46.974
3.5876	46.880
3.5852	46.783
3.5827	46.681
3.5802	46.574
3.5777	46.460
3.5753	46.340
3.5728	46.217
3.5704	46.092
3.5679	45.969
3.5654	45.850
3.5630	45.736
3.5605	45.623
3.5581	45.511
3.5557	45.398
3.5532	45.284
3.5508	45.171
3.5484	45.059
3.5459	44.947
3.5435	44.836
3.5411	44.722
3.5387	44.603
3.5363	44.477
3.5338	44.342
3.5314	44.197
3.5290	44.041
3.5266	43.872
3.5242	43.691
3.5218	43.499
3.5195	43.301
3.5171	43.101
3.5147	42.905
3.5123	42.718
3.5099	42.542
3.5075	42.373
3.5052	42.210
3.5028	42.050
3.5004	41.890
3.4981	41.726
3.4957	41.557
3.4934	41.385
3.4910	41.210
3.4887	41.035
3.4863	40.865
3.4840	40.709
3.4816	40.580
3.4793	40.489
3.4770	40.448
3.4746	40.466
3.4723	40.542
3.4700	40.669
3.4677	40.833
3.4653	41.015
3.4630	41.198
3.4607	41.362
3.4584	41.497
3.4561	41.596
3.4538	41.657
3.4515	41.686
3.4492	41.691
3.4469	41.683
3.4446	41.668
3.4423	41.652
3.4400	41.633
3.4378	41.608
3.4355	41.574
3.4332	41.525
3.4309	41.462
3.4287	41.386
3.4264	41.302
3.4241	41.216
3.4219	41.130
3.4196	41.047
3.4174	40.967
3.4151	40.889
3.4129	40.811
3.4106	40.732
3.4084	40.649
3.4061	40.562
3.4039	40.470
3.4017	40.373
3.3994	40.272
3.3972	40.169
3.3950	40.066
3.3928	39.962
3.3906	39.855
3.3883	39.745
3.3861	39.634
3.3839	39.524
3.3817	39.417
3.3795	39.314
3.3773	39.214
3.3751	39.111
3.3729	38.999
3.3707	38.877
3.3685	38.744
3.3663	38.602
3.3641	38.451
3.3620	38.294
3.3598	38.128
3.3576	37.957
3.3554	37.791
3.3533	37.645
3.3511	37.533
3.3489	37.472
3.3468	37.467
3.3446	37.517
3.3425	37.611
3.3403	37.729
3.3382	37.851
3.3360	37.958
3.3339	38.036
3.3317	38.079
3.3296	38.089
3.3274	38.073
3.3253	38.041
3.3232	38.000
3.3210	37.954
3.3189	37.906
3.3168	37.854
3.3147	37.798
3.3126	37.742
3.3104	37.686
3.3083	37.636
3.3062	37.590
3.3041	37.548
3.3020	37.506
3.2999	37.458
3.2978	37.400
3.2957	37.334
3.2936	37.265
3.2915	37.197
3.2894	37.135
3.2874	37.081
3.2853	37.031
3.2832	36.982
3.2811	36.929
3.2790	36.871
3.2770	36.812
3.2749	36.755
3.2728	36.707
3.2708	36.669
3.2687	36.638
3.2666	36.610
3.2646	36.579
3.2625	36.541
3.2605	36.494
3.2584	36.439
3.2564	36.381
3.2543	36.324
3.2523	36.269
3.2503	36.216
3.2482	36.163
3.2462	36.107
3.2442	36.046
3.2421	35.979
3.2401	35.907
3.2381	35.829
3.2361	35.744
3.2340	35.650
3.2320	35.548
3.2300	35.439
3.2280	35.326
3.2260	35.210
3.2240	35.096
3.2220	34.982
3.2200	34.869
3.2180	34.753
3.2160	34.634
3.2140	34.511
3.2120	34.384
3.2100	34.254
3.2080	34.123
3.2060	33.995
3.2040	33.868
3.2021	33.740
3.2001	33.610
3.1981	33.474
3.1961	33.331
3.1942	33.183
3.1922	33.036
3.1902	32.893
3.1883	32.757
3.1863	32.627
3.1844	32.500
3.1824	32.370
3.1805	32.230
3.1785	32.078
3.1766	31.918
3.1746	31.755
3.1727	31.596
3.1707	31.443
3.1688	31.295
3.1669	31.143
3.1649	30.982
3.1630	30.807
3.1611	30.623
3.1591	30.436
3.1572	30.256
3.1553	30.086
3.1534	29.927
3.1515	29.772
3.1495	29.612
3.1476	29.441
3.1457	29.257
3.1438	29.063
3.1419	28.863
3.1400	28.662
3.1381	28.464
3.1362	28.271
3.1343	28.082
3.1324	27.894
3.1305	27.703
3.1286	27.507
3.1268	27.302
3.1249	27.087
3.1230	26.868
3.1211	26.648
3.1192	26.431
3.1174	26.221
3.1155	26.015
3.1136	25.810
3.1117	25.601
3.1099	25.385
3.1080	25.164
3.1061	24.939
3.1043	24.714
3.1024	24.493
3.1006	24.277
3.0987	24.065
3.0969	23.855
3.0950	23.645
3.0932	23.435
3.0913	23.225
3.0895	23.014
3.0876	22.805
3.0858	22.598
3.0840	22.395
3.0821	22.195
3.0803	21.999
3.0785	21.808
3.0766	21.617
3.0748	21.425
3.0730	21.230
3.0712	21.032
3.0694	20.835
3.0675	20.643
3.0657	20.460
3.0639	20.285
3.0621	20.117
3.0603	19.949
3.0585	19.779
3.0567	19.607
3.0549	19.435
3.0531	19.268
3.0513	19.110
3.0495	18.960
3.0477	18.816
3.0459	18.672
3.0441	18.526
3.0423	18.377
3.0406	18.225
3.0388	18.076
3.0370	17.933
3.0352	17.800
3.0334	17.677
3.0317	17.560
3.0299	17.447
3.0281	17.333
3.0264	17.216
3.0246	17.095
3.0228	16.972
3.0211	16.848
3.0193	16.728
3.0176	16.610
3.0158	16.496
3.0140	16.386
3.0123	16.282
3.0105	16.183
3.0088	16.086
3.0070	15.990
3.0053	15.893
3.0036	15.793
3.0018	15.687
3.0001	15.579
2.9984	15.471
2.9966	15.368
2.9949	15.270
2.9932	15.177
2.9914	15.087
2.9897	14.997
2.9880	14.903
2.9863	14.806
2.9845	14.704
2.9828	14.601
2.9811	14.499
2.9794	14.398
2.9777	14.300
2.9760	14.203
2.9743	14.110
2.9726	14.019
2.9709	13.929
2.9692	13.840
2.9675	13.752
2.9658	13.664
2.9641	13.575
2.9624	13.485
2.9607	13.396
2.9590	13.306
2.9573	13.217
2.9556	13.128
2.9539	13.039
2.9523	12.952
2.9506	12.870
2.9489	12.795
2.9472	12.730
2.9455	12.675
2.9439	12.629
2.9422	12.588
2.9405	12.549
2.9389	12.510
2.9372	12.470
2.9355	12.432
2.9339	12.395
2.9322	12.363
2.9306	12.338
2.9289	12.321
2.9272	12.310
2.9256	12.309
2.9239	12.318
2.9223	12.335
2.9207	12.361
2.9190	12.392
2.9174	12.429
2.9157	12.470
2.9141	12.516
2.9124	12.566
2.9108	12.624
2.9092	12.688
2.9075	12.755
2.9059	12.824
2.9043	12.894
2.9027	12.965
2.9010	13.038
2.8994	13.113
2.8978	13.193
2.8962	13.274
2.8946	13.354
2.8929	13.429
2.8913	13.496
2.8897	13.553
2.8881	13.601
2.8865	13.643
2.8849	13.683
2.8833	13.722
2.8817	13.763
2.8801	13.803
2.8785	13.843
2.8769	13.878
2.8753	13.905
2.8737	13.922
2.8721	13.926
2.8705	13.920
2.8689	13.906
2.8673	13.886
2.8658	13.864
2.8642	13.840
2.8626	13.811
2.8610	13.776
2.8594	13.734
2.8579	13.687
2.8563	13.636
2.8547	13.583
2.8531	13.528
2.8516	13.467
2.8500	13.398
2.8484	13.316
2.8469	13.224
2.8453	13.121
2.8437	13.012
2.8422	12.900
2.8406	12.787
2.8391	12.674
2.8375	12.562
2.8360	12.452
2.8344	12.345
2.8329	12.242
2.8313	12.141
2.8298	12.041
2.8282	11.939
2.8267	11.834
2.8252	11.725
2.8236	11.613
2.8221	11.499
2.8205	11.390
2.8190	11.287
2.8175	11.193
2.8159	11.108
2.8144	11.028
2.8129	10.951
2.8114	10.872
2.8098	10.790
2.8083	10.709
2.8068	10.634
2.8053	10.571
2.8038	10.523
2.8022	10.487
2.8007	10.458
2.7992	10.428
2.7977	10.389
2.7962	10.334
2.7947	10.260
2.7932	10.165
2.7917	10.045
2.7902	9.8998
2.7887	9.7310
2.7872	9.5418
2.7857	9.3365
2.7842	9.1212
2.7827	8.9033
2.7812	8.6883
2.7797	8.4813
2.7782	8.2859
2.7767	8.1060
2.7752	7.9449
2.7738	7.8069
2.7723	7.6956
2.7708	7.6158
2.7693	7.5715
2.7678	7.5653
2.7664	7.5956
2.7649	7.6581
2.7634	7.7470
2.7619	7.8583
2.7605	7.9899
2.7590	8.1458
2.7575	8.3343
2.7561	8.5637
2.7546	8.8394
2.7531	9.1624
2.7517	9.5276
2.7502	9.9273
2.7488	10.353
2.7473	10.803
2.7458	11.279
2.7444	11.793
2.7429	12.363
2.7415	13.009
2.7400	13.750
2.7386	14.599
2.7371	15.558
2.7357	16.621
2.7343	17.770
2.7328	18.986
2.7314	20.253
2.7299	21.555
2.7285	22.885
2.7271	24.254
2.7256	25.679
2.7242	27.180
2.7228	28.778
2.7213	30.472
2.7199	32.227
2.7185	33.983
2.7171	35.668
2.7156	37.218
2.7142	38.602
2.7128	39.831
2.7114	40.941
2.7100	41.967
2.7085	42.925
2.7071	43.809
2.7057	44.591
2.7043	45.242
2.7029	45.750
2.7015	46.129
2.7001	46.405
2.6987	46.616
2.6973	46.808
2.6959	47.025
2.6945	47.293
2.6931	47.617
2.6917	47.985
2.6903	48.371
2.6889	48.742
2.6875	49.069
2.6861	49.336
2.6847	49.540
2.6833	49.687
2.6819	49.790
2.6805	49.869
2.6791	49.950
2.6778	50.052
2.6764	50.170
2.6750	50.270
2.6736	50.327
2.6722	50.336
2.6709	50.308
2.6695	50.280
2.6681	50.315
2.6667	50.463
2.6654	50.722
2.6640	51.050
2.6626	51.396
2.6613	51.714
2.6599	51.954
2.6585	52.103
2.6572	52.181
2.6558	52.224
2.6545	52.262
2.6531	52.311
2.6517	52.381
2.6504	52.461
2.6490	52.532
2.6477	52.584
2.6463	52.616
2.6450	52.638
2.6436	52.665
2.6423	52.710
2.6409	52.767
2.6396	52.818
2.6382	52.839
2.6369	52.811
2.6356	52.716
2.6342	52.557
2.6329	52.377
2.6315	52.221
2.6302	52.127
2.6289	52.121
2.6275	52.198
2.6262	52.315
2.6249	52.403
2.6236	52.415
2.6222	52.356
2.6209	52.249
2.6196	52.139
2.6183	52.094
2.6169	52.143
2.6156	52.270
2.6143	52.417
2.6130	52.526
2.6117	52.558
2.6103	52.486
2.6090	52.332
2.6077	52.171
2.6064	52.082
2.6051	52.104
2.6038	52.224
2.6025	52.385
2.6012	52.501
2.5999	52.488
2.5986	52.320
2.5973	52.072
2.5960	51.862
2.5947	51.784
2.5934	51.872
2.5921	52.091
2.5908	52.354
2.5895	52.556
2.5882	52.636
2.5869	52.616
2.5856	52.563
2.5843	52.540
2.5830	52.578
2.5817	52.674
2.5805	52.794
2.5792	52.894
2.5779	52.938
2.5766	52.932
2.5753	52.908
2.5741	52.895
2.5728	52.913
2.5715	52.967
2.5702	53.041
2.5690	53.104
2.5677	53.121
2.5664	53.087
2.5651	53.023
2.5639	52.963
2.5626	52.947
2.5613	52.999
2.5601	53.113
2.5588	53.252
2.5575	53.375
2.5563	53.450
2.5550	53.470
2.5538	53.451
2.5525	53.422
2.5513	53.403
2.5500	53.400
2.5487	53.408
2.5475	53.416
2.5462	53.417
2.5450	53.415
2.5437	53.418
2.5425	53.430
2.5413	53.447
2.5400	53.463
2.5388	53.469
2.5375	53.463
2.5363	53.448
2.5350	53.433
2.5338	53.430
2.5326	53.440
2.5313	53.461
2.5301	53.485
2.5289	53.508
2.5276	53.525
2.5264	53.536
2.5252	53.544
2.5239	53.552
2.5227	53.563
2.5215	53.575
2.5202	53.588
2.5190	53.601
2.5178	53.613
2.5166	53.623
2.5154	53.631
2.5141	53.638
2.5129	53.643
2.5117	53.647
2.5105	53.651
2.5093	53.654
2.5081	53.657
2.5068	53.661
2.5056	53.667
2.5044	53.675
2.5032	53.683
2.5020	53.690
2.5008	53.695
2.4996	53.696
2.4984	53.693
2.4972	53.687
2.4960	53.679
2.4948	53.672
2.4936	53.666
2.4924	53.662
2.4912	53.662
2.4900	53.664
2.4888	53.666
2.4876	53.666
2.4864	53.663
2.4852	53.658
2.4840	53.653
2.4828	53.650
2.4816	53.650
2.4805	53.654
2.4793	53.658
2.4781	53.659
2.4769	53.655
2.4757	53.644
2.4745	53.629
2.4734	53.612
2.4722	53.598
2.4710	53.590
2.4698	53.589
2.4686	53.594
2.4675	53.601
2.4663	53.605
2.4651	53.603
2.4640	53.593
2.4628	53.580
2.4616	53.566
2.4604	53.556
2.4593	53.551
2.4581	53.551
2.4569	53.553
2.4558	53.555
2.4546	53.555
2.4535	53.552
2.4523	53.547
2.4511	53.541
2.4500	53.536
2.4488	53.532
2.4477	53.533
2.4465	53.538
2.4454	53.548
2.4442	53.563
2.4431	53.582
2.4419	53.603
2.4408	53.621
2.4396	53.636
2.4385	53.643
2.4373	53.645
2.4362	53.645
2.4350	53.650
2.4339	53.663
2.4327	53.685
2.4316	53.713
2.4305	53.743
2.4293	53.772
2.4282	53.797
2.4270	53.817
2.4259	53.836
2.4248	53.857
2.4236	53.879
2.4225	53.903
2.4214	53.928
2.4202	53.954
2.4191	53.980
2.4180	54.004
2.4169	54.025
2.4157	54.044
2.4146	54.063
2.4135	54.080
2.4124	54.097
2.4112	54.114
2.4101	54.130
2.4090	54.143
2.4079	54.154
2.4068	54.161
2.4056	54.166
2.4045	54.168
2.4034	54.170
2.4023	54.173
2.4012	54.179
2.4001	54.185
2.3990	54.191
2.3979	54.194
2.3967	54.193
2.3956	54.186
2.3945	54.176
2.3934	54.164
2.3923	54.149
2.3912	54.130
2.3901	54.109
2.3890	54.083
2.3879	54.056
2.3868	54.029
2.3857	54.000
2.3846	53.971
2.3835	53.942
2.3824	53.910
2.3813	53.874
2.3802	53.836
2.3791	53.796
2.3781	53.755
2.3770	53.710
2.3759	53.661
2.3748	53.607
2.3737	53.549
2.3726	53.487
2.3715	53.421
2.3704	53.352
2.3694	53.281
2.3683	53.208
2.3672	53.134
2.3661	53.063
2.3650	52.997
2.3640	52.935
2.3629	52.875
2.3618	52.818
2.3607	52.759
2.3597	52.697
2.3586	52.634
2.3575	52.574
2.3564	52.518
2.3554	52.470
2.3543	52.431
2.3532	52.404
2.3522	52.388
2.3511	52.384
2.3500	52.388
2.3490	52.399
2.3479	52.411
2.3468	52.424
2.3458	52.439
2.3447	52.460
2.3436	52.490
2.3426	52.530
2.3415	52.581
2.3405	52.641
2.3394	52.707
2.3384	52.777
2.3373	52.851
2.3363	52.928
2.3352	53.006
2.3342	53.082
2.3331	53.154
2.3321	53.222
2.3310	53.287
2.3300	53.350
2.3289	53.416
2.3279	53.485
2.3268	53.558
2.3258	53.634
2.3247	53.711
2.3237	53.786
2.3226	53.858
2.3216	53.928
2.3206	53.997
2.3195	54.067
2.3185	54.138
2.3175	54.212
2.3164	54.285
2.3154	54.354
2.3144	54.416
2.3133	54.473
2.3123	54.527
2.3113	54.582
2.3102	54.640
2.3092	54.700
2.3082	54.758
2.3071	54.808
2.3061	54.849
2.3051	54.882
2.3041	54.915
2.3030	54.953
2.3020	54.999
2.3010	55.049
2.3000	55.097
2.2990	55.136
2.2979	55.162
2.2969	55.176
2.2959	55.186
2.2949	55.199
2.2939	55.217
2.2929	55.242
2.2918	55.270
2.2908	55.296
2.2898	55.314
2.2888	55.324
2.2878	55.328
2.2868	55.328
2.2858	55.326
2.2848	55.324
2.2838	55.322
2.2828	55.317
2.2818	55.305
2.2808	55.286
2.2798	55.261
2.2787	55.232
2.2777	55.202
2.2767	55.175
2.2757	55.152
2.2747	55.127
2.2738	55.098
2.2728	55.062
2.2718	55.018
2.2708	54.967
2.2698	54.910
2.2688	54.853
2.2678	54.795
2.2668	54.737
2.2658	54.679
2.2648	54.620
2.2638	54.560
2.2628	54.499
2.2618	54.436
2.2609	54.373
2.2599	54.313
2.2589	54.257
2.2579	54.211
2.2569	54.178
2.2559	54.158
2.2550	54.151
2.2540	54.155
2.2530	54.165
2.2520	54.178
2.2510	54.192
2.2501	54.203
2.2491	54.211
2.2481	54.218
2.2471	54.224
2.2462	54.233
2.2452	54.246
2.2442	54.262
2.2433	54.275
2.2423	54.282
2.2413	54.276
2.2403	54.256
2.2394	54.222
2.2384	54.176
2.2374	54.119
2.2365	54.052
2.2355	53.973
2.2345	53.882
2.2336	53.778
2.2326	53.663
2.2317	53.540
2.2307	53.415
2.2297	53.294
2.2288	53.184
2.2278	53.090
2.2269	53.014
2.2259	52.959
2.2250	52.923
2.2240	52.905
2.2231	52.904
2.2221	52.922
2.2211	52.959
2.2202	53.013
2.2192	53.085
2.2183	53.172
2.2173	53.271
2.2164	53.378
2.2155	53.493
2.2145	53.614
2.2136	53.739
2.2126	53.865
2.2117	53.990
2.2107	54.112
2.2098	54.233
2.2088	54.356
2.2079	54.482
2.2070	54.610
2.2060	54.737
2.2051	54.858
2.2041	54.970
2.2032	55.069
2.2023	55.161
2.2013	55.246
2.2004	55.327
2.1995	55.404
2.1985	55.476
2.1976	55.546
2.1967	55.613
2.1957	55.681
2.1948	55.751
2.1939	55.822
2.1930	55.892
2.1920	55.955
2.1911	56.011
2.1902	56.060
2.1893	56.105
2.1883	56.150
2.1874	56.200
2.1865	56.253
2.1856	56.307
2.1846	56.357
2.1837	56.400
2.1828	56.432
2.1819	56.454
2.1810	56.467
2.1800	56.477
2.1791	56.486
2.1782	56.499
2.1773	56.515
2.1764	56.533
2.1755	56.550
2.1746	56.563
2.1736	56.573
2.1727	56.580
2.1718	56.586
2.1709	56.593
2.1700	56.598
2.1691	56.598
2.1682	56.592
2.1673	56.581
2.1664	56.569
2.1655	56.565
2.1646	56.575
2.1637	56.601
2.1628	56.639
2.1619	56.680
2.1610	56.715
2.1601	56.735
2.1592	56.737
2.1583	56.722
2.1574	56.698
2.1565	56.674
2.1556	56.656
2.1547	56.648
2.1538	56.649
2.1529	56.653
2.1520	56.651
2.1511	56.640
2.1502	56.623
2.1493	56.605
2.1484	56.593
2.1475	56.591
2.1466	56.601
2.1458	56.618
2.1449	56.637
2.1440	56.655
2.1431	56.672
2.1422	56.686
2.1413	56.696
2.1404	56.703
2.1396	56.705
2.1387	56.698
2.1378	56.684
2.1369	56.667
2.1360	56.652
2.1352	56.641
2.1343	56.635
2.1334	56.634
2.1325	56.630
2.1316	56.621
2.1308	56.606
2.1299	56.588
2.1290	56.574
2.1281	56.571
2.1273	56.584
2.1264	56.607
2.1255	56.633
2.1247	56.652
2.1238	56.657
2.1229	56.649
2.1220	56.636
2.1212	56.625
2.1203	56.621
2.1194	56.624
2.1186	56.629
2.1177	56.633
2.1168	56.634
2.1160	56.635
2.1151	56.640
2.1143	56.650
2.1134	56.664
2.1125	56.682
2.1117	56.701
2.1108	56.719
2.1100	56.731
2.1091	56.739
2.1082	56.741
2.1074	56.737
2.1065	56.730
2.1057	56.723
2.1048	56.719
2.1040	56.718
2.1031	56.717
2.1023	56.717
2.1014	56.719
2.1005	56.726
2.0997	56.740
2.0988	56.762
2.0980	56.790
2.0971	56.821
2.0963	56.851
2.0955	56.876
2.0946	56.896
2.0938	56.909
2.0929	56.914
2.0921	56.909
2.0912	56.896
2.0904	56.881
2.0895	56.871
2.0887	56.873
2.0879	56.887
2.0870	56.911
2.0862	56.943
2.0853	56.972
2.0845	56.994
2.0837	57.019
2.0828	57.021
2.0820	57.014
2.0812	57.021
2.0803	56.905
2.0795	56.889
2.0760	56.889
2.0720	57.173
2.0680	56.841
2.0640	56.747
2.0600	56.699
2.0560	57.031
2.0520	57.078
2.0480	56.936
2.0440	56.794
2.0400	56.747
2.0360	56.701
2.0320	56.374
2.0280	56.235
2.0240	56.094
2.0200	56.374
2.0160	56.141
2.0120	56.189
2.0080	56.097
2.0040	56.006
2.0000	55.774
1.9960	55.638
1.9920	55.591
1.9880	55.500
1.9840	55.593
1.9800	55.687
1.9760	55.644
1.9720	55.691
1.9680	55.554
1.9640	55.373
1.9600	55.231
1.9560	55.184
1.9520	55.231
1.9480	55.187
1.9440	55.187
1.9400	55.139
1.9360	55.041
1.9320	55.121
1.9280	54.887
1.9240	55.209
1.9200	55.302
1.9160	55.257
1.9120	55.257
1.9080	55.443
1.9040	55.677
1.9000	55.599
1.8960	55.336
1.8920	55.206
1.8880	55.174
1.8840	55.179
1.8800	55.344
1.8760	55.514
1.8720	55.778
1.8680	55.405
1.8640	55.455
1.8600	55.604
1.8560	55.525
1.8520	55.437
1.8480	55.671
1.8440	55.662
1.8400	55.836
1.8360	55.879
1.8320	55.975
1.8280	55.711
1.8240	55.629
1.8200	55.232
1.8160	55.188
1.8120	55.147
1.8080	55.194
1.8040	55.414
1.8000	55.414
1.7960	55.107
1.7920	55.194
1.7880	55.147
1.7840	54.879
1.7800	54.875
1.7760	54.789
1.7720	54.793
1.7680	54.830
1.7640	55.008
1.7600	54.750
1.7560	54.885
1.7520	54.757
1.7480	54.760
1.7440	54.800
1.7400	54.975
1.7360	55.275
1.7320	55.406
1.7280	55.313
1.7240	55.494
1.7200	55.497
1.7160	55.188
1.7120	55.321
1.7080	55.244
1.7040	55.194
1.7000	54.898
1.6960	55.027
1.6920	54.809
1.6880	54.627
1.6840	54.507
1.6800	55.018
1.6760	54.971
1.6720	54.981
1.6680	54.806
1.6640	54.402
1.6600	54.534
1.6560	54.627
1.6520	54.326
1.6480	54.274
1.6440	54.658
1.6400	54.487
1.6360	54.576
1.6320	54.885
1.6280	54.709
1.6240	54.444
1.6200	54.359
1.6160	54.190
1.6120	54.148
1.6080	54.402
1.6040	54.615
1.6000	54.479
1.5960	54.351
1.5920	54.209
1.5880	53.808
1.5840	53.850
1.5800	54.110
1.5760	54.133
1.5720	54.048
1.5680	53.879
1.5640	53.587
1.5600	53.291
1.5560	52.944
1.5520	53.107
1.5480	53.539
1.5440	53.676
1.5400	53.468
1.5360	53.753
1.5320	53.969
1.5280	53.653
1.5240	53.527
1.5200	53.272
1.5160	53.190
1.5120	53.403
1.5080	53.778
1.5040	53.852
1.5000	53.732
1.4960	53.453
1.4920	52.931
1.4880	52.856
1.4840	52.505
1.4800	52.343
1.4760	52.262
1.4720	52.222
1.4680	52.710
1.4640	53.055
1.4600	52.710
1.4560	52.938
1.4520	52.814
1.4480	52.602
1.4440	52.497
1.4400	52.531
1.4360	52.523
1.4320	52.605
1.4280	52.523
1.4240	52.221
1.4200	51.821
1.4160	51.192
1.4120	50.850
1.4080	50.758
1.4040	50.958
1.4000	50.784
1.3960	51.097
1.3920	51.028
1.3880	50.879
1.3840	50.930
1.3800	51.685
1.3760	52.073
1.3720	51.752
1.3680	51.740
1.3640	51.571
1.3600	51.876
1.3560	51.703
1.3520	51.641
1.3480	51.273
1.3440	51.283
1.3400	51.088
1.3360	51.077
1.3320	51.223
1.3280	51.123
1.3240	51.082
1.3200	51.112
1.3160	50.814
1.3120	50.507
1.3080	50.418
1.3040	50.252
1.3000	50.252
1.2960	50.163
1.2920	50.010
1.2880	49.908
1.2840	49.830
1.2800	50.100
1.2760	50.152
1.2720	50.152
1.2680	50.178
1.2640	50.173
1.2600	50.173
1.2560	49.821
1.2520	49.730
1.2480	49.418
1.2440	49.189
1.2400	49.017
1.2360	48.964
1.2320	48.911
1.2280	48.789
1.2240	49.002
1.2200	49.055
1.2160	49.040
1.2120	48.926
1.2080	48.595
1.2040	48.415
1.2000	48.325
1.1960	48.116
1.1920	48.006
1.1880	47.808
1.1840	47.772
1.1800	47.646
1.1760	47.538
1.1720	47.466
1.1680	47.287
1.1640	47.118
1.1600	47.126
1.1560	46.944
1.1520	46.915
1.1480	47.085
1.1440	47.121
1.1400	46.976
1.1360	46.967
1.1320	46.680
1.1280	46.444
1.1240	46.459
1.1200	46.377
1.1160	46.503
1.1120	46.624
1.1080	46.407
1.1040	46.266
1.1000	46.424
1.0960	46.280
1.0920	46.161
1.0880	46.084
1.0840	46.295
1.0800	45.910
1.0760	46.196
1.0720	46.155
1.0680	45.690
1.0640	45.374
1.0600	45.330
1.0560	45.418
1.0520	45.261
1.0480	45.359
1.0440	45.442
1.0400	45.613
1.0360	45.604
1.0320	45.876
1.0280	45.738
1.0240	45.897
1.0200	45.807
1.0160	45.569
1.0120	45.510
1.0080	45.466
1.0040	45.444
1.0000	45.364
0.99600	45.445
0.99200	45.101
0.98800	45.161
0.98400	45.163
0.98000	45.184
0.97600	44.994
0.97200	44.890
0.96800	45.028
0.96400	44.892
0.96000	44.848
0.95600	44.881
0.95200	44.690
0.94800	44.600
0.94400	44.600
0.94000	44.353
0.93600	44.197
0.93200	44.320
0.92800	44.033
0.92400	44.146
0.92000	44.033
0.91600	43.901
0.91200	43.958
0.90800	43.934
0.90400	43.690
0.90000	43.666
0.89600	43.544
0.89200	43.455
0.88800	43.397
0.88400	43.283
0.88000	43.274
0.87600	43.281
0.87200	43.509
0.86800	43.173
0.86400	43.180
0.86000	43.228
0.85600	43.070
0.85200	43.103
0.84800	43.152
0.84400	43.018
0.84000	43.018
0.83600	43.090
0.83200	42.830
0.82800	43.070
0.82400	43.064
0.82000	43.350
0.81600	42.975
0.81200	43.175
0.80800	43.239
0.80400	43.445
0.80000	43.617
0.79900	42.598
0.79800	42.598
0.79700	42.464
0.79600	42.732
0.79500	42.732
0.79400	42.985
0.79300	42.658
0.79200	42.403
0.79100	42.558
0.79000	42.827
0.78900	42.695
0.78800	42.621
0.78700	42.561
0.78600	42.354
0.78500	42.695
0.78400	42.693
0.78300	42.693
0.78200	42.511
0.78100	42.411
0.78000	42.595
0.77900	42.707
0.77800	42.535
0.77700	42.656
0.77600	42.548
0.77500	42.471
0.77400	42.084
0.77300	42.375
0.77200	42.625
0.77100	42.435
0.77000	42.329
0.76900	42.253
0.76800	42.528
0.76700	42.556
0.76600	42.847
0.76500	42.468
0.76400	42.789
0.76300	42.324
0.76200	41.963
0.76100	42.416
0.76000	42.408
0.75900	42.491
0.75800	42.298
0.75700	42.105
0.75600	42.057
0.75500	42.203
0.75400	42.430
0.75300	41.755
0.75200	41.984
0.75100	41.984
0.75000	41.815
0.74900	42.057
0.74800	41.960
0.74700	41.960
0.74600	41.984
0.74500	42.057
0.74400	42.208
0.74300	41.743
0.74200	41.688
0.74100	42.088
0.74000	42.090
0.73900	41.717
0.73800	41.814
0.73700	41.572
0.73600	41.652
0.73500	41.669
0.73400	41.717
0.73300	41.772
0.73200	42.135
0.73100	41.721
0.73000	41.519
0.72900	41.833
0.72800	42.040
0.72700	41.712
0.72600	41.626
0.72500	41.821
0.72400	41.870
0.72300	41.772
0.72200	41.467
0.72100	41.420
0.72000	41.508
0.71900	41.821
0.71800	41.858
0.71700	42.213
0.71600	41.770
0.71500	41.453
0.71400	41.453
0.71300	41.626
0.71200	42.049
0.71100	41.734
0.71000	41.783
0.70900	41.770
0.70800	41.746
0.70700	41.526
0.70600	41.697
0.70500	41.440
0.70400	41.746
0.70300	41.731
0.70200	41.634
0.70100	41.442
0.70000	41.623
0.69900	42.055
0.69800	41.909
0.69700	42.073
0.69600	41.921
0.69500	42.197
0.69400	41.896
0.69300	41.859
0.69200	41.746
0.69100	42.097
0.69000	42.059
0.68900	42.173
0.68800	42.097
0.68700	41.997
0.68600	41.896
0.68500	42.072
0.68400	41.796
0.68300	41.596
0.68200	41.459
0.68100	41.959
0.68000	41.972
0.67900	42.010
0.67800	41.972
0.67700	41.796
0.67600	41.896
0.67500	42.010
0.67400	41.809
0.67300	42.111
0.67200	42.059
0.67100	42.187
0.67000	42.149
0.66900	41.885
0.66800	41.947
0.66700	41.947
0.66600	42.211
0.66500	41.972
0.66400	41.559
0.66300	41.422
0.66200	41.759
0.66100	41.860
0.66000	42.187
0.65900	42.077
0.65800	42.077
0.65700	41.899
0.65600	41.910
0.65500	41.847
0.65400	41.671
0.65300	41.696
0.65200	41.696
0.65100	42.021
0.65000	41.746
0.64900	41.535
0.64800	41.435
0.64700	41.646
0.64600	42.077
0.64500	41.874
0.64400	42.178
0.64300	42.101
0.64200	42.212
0.64100	41.972
0.64000	42.443
0.63900	42.569
0.63800	41.948
0.63700	41.559
0.63600	41.447
0.63500	41.659
0.63400	41.997
0.63300	42.059
0.63200	41.521
0.63100	41.609
0.63000	41.696
0.62900	41.721
0.62800	41.484
0.62700	41.484
0.62600	41.921
0.62500	42.111
0.62400	42.173
0.62300	41.759
0.62200	41.284
0.62100	41.645
0.62000	41.747
0.61900	42.116
0.61800	42.309
0.61700	42.294
0.61600	42.077
0.61500	41.900
0.61400	41.747
0.61300	41.596
0.61200	41.799
0.61100	41.875
0.61000	41.837
0.60900	41.900
0.60800	41.861
0.60700	41.760
0.60600	41.835
0.60500	41.899
0.60400	41.798
0.60300	41.875
0.60200	41.686
0.60100	41.774
0.60000	41.800
0.59900	41.813
0.59800	41.839
0.59700	41.930
0.59600	41.944
0.59500	41.495
0.59400	41.402
0.59300	42.022
0.59200	42.051
0.59100	41.701
0.59000	41.698
0.58900	41.585
0.58800	41.637
0.58700	41.766
0.58600	42.051
0.58500	41.932
0.58400	41.633
0.58300	41.816
0.58200	41.505
0.58100	41.672
0.58000	41.585
0.57900	41.766
0.57800	41.933
0.57700	42.086
0.57600	42.086
0.57500	42.228
0.57400	42.149
0.57300	42.118
0.57200	41.875
0.57100	41.927
0.57000	41.572
0.56900	41.634
0.56800	41.837
0.56700	41.887
0.56600	42.130
0.56500	42.091
0.56400	42.014
0.56300	42.067
0.56200	42.130
0.56100	42.029
0.56000	42.085
0.55900	41.930
0.55800	41.930
0.55700	42.350
0.55600	41.983
0.55500	42.109
0.55400	42.180
0.55300	42.080
0.55200	42.090
0.55100	42.098
0.55000	41.909
0.54900	42.324
0.54800	42.107
0.54700	42.071
0.54600	42.251
0.54500	42.324
0.54400	42.179
0.54300	42.498
0.54200	42.334
0.54100	42.233
0.54000	42.434
0.53900	42.490
0.53800	42.629
0.53700	42.214
0.53600	42.214
0.53500	42.177
0.53400	42.453
0.53300	41.888
0.53200	41.538
0.53100	41.404
0.53000	41.474
0.52900	41.452
0.52800	41.866
0.52700	41.830
0.52600	41.730
0.52500	41.730
0.52400	41.802
0.52300	41.594
0.52200	41.932
0.52100	41.795
0.52000	41.809
0.51900	41.671
0.51800	41.263
0.51700	41.399
0.51600	41.364
0.51500	41.369
0.51400	41.162
0.51300	41.097
0.51200	40.888
0.51100	40.753
0.51000	40.891
0.50900	40.722
0.50800	40.996
0.50700	41.308
0.50600	41.069
0.50500	40.662
0.50400	40.933
0.50300	40.906
0.50200	40.868
0.50100	41.112
0.50000	40.943
0.49900	40.493
0.49800	40.460
0.49700	40.394
0.49600	39.956
0.49500	40.057
0.49400	39.889
0.49300	39.990
0.49200	40.161
0.49100	40.333
0.49000	40.161
0.48900	40.058
0.48800	39.888
0.48700	39.485
0.48600	39.449
0.48500	39.344
0.48400	39.347
0.48300	39.447
0.48200	39.382
0.48100	39.280
0.48000	39.066
0.47900	39.337
0.47800	39.129
0.47700	38.768
0.47600	38.898
0.47500	38.731
0.47400	38.825
0.47300	38.655
0.47200	38.591
0.47100	38.189
0.47000	38.189
0.46900	38.169
0.46800	38.056
0.46700	37.625
0.46600	37.656
0.46500	37.695
0.46400	37.476
0.46300	37.507
0.46200	37.499
0.46100	37.240
0.46000	36.884
0.45900	38.173
0.45800	38.057
0.45700	38.049
0.45600	37.907
0.45500	37.812
0.45400	37.265
0.45300	37.452
0.45200	37.470
0.45100	37.347
0.45000	37.398
0.44900	37.491
0.44800	37.190
0.44700	37.015
0.44600	36.780
0.44500	36.673
0.44400	36.780
0.44300	36.252
0.44200	35.950
0.44100	36.348
0.44000	36.029
0.43900	36.087
0.43800	36.205
0.43700	35.962
0.43600	35.653
0.43500	35.711
0.43400	35.497
0.43300	35.255
0.43200	35.388
0.43100	35.264
0.43000	35.110
0.42900	34.979
0.42800	34.790
0.42700	34.388
0.42600	34.315
0.42500	33.936
0.42400	33.885
0.42300	33.924
0.42200	33.649
0.42100	33.378
0.42000	33.569
0.41900	33.112
0.41800	33.009
0.41700	32.580
0.41600	32.470
0.41500	32.555
0.41400	32.444
0.41300	32.340
0.41200	31.923
0.41100	31.698
0.41000	31.588
0.40900	31.664
0.40800	31.524
0.40700	31.336
0.40600	31.164
0.40500	30.906
0.40400	30.656
0.40300	30.443
0.40200	30.359
0.40100	29.993
0.40000	30.000
