Name:  Pink Marble 
Type:  Rocks
Class:  Metamorphic 
Subclass:  Marble 
Particle Size:  0-75 Micrometer
Sample No.:  marble7.doc
Owner:  JHU
Wavelength Range:  All
Origin:  Sample No. 360, The Hunt and Salisbury Collection at the U.S. 
Geological Survey, Denver, Co.
Description: This sample consists of coarse-grained calcite poikiloblastically 
enclosing a finely disseminated opaque/ferric phase in the cores of the 
carbonate.  There has been a considerable amount of granulation (cataclasis) 
with some carbonate grains showing bent lamellae.  There are trace amounts of 
larger opaque phases in this rock.

Measurement:  Directional (10 Degree) Hemispherical Reflectance
First Column:  X
Second Column:  Y  
X Units:  Wavelength (micrometers)
Y Units:  Reflectance (percent)
First X Value: 14.9831
Last X Value:  0.4
Number of X Values: 2868
Additional Information:  None

14.983	35.261
14.940	35.068
14.897	35.005
14.854	35.693
14.812	36.382
14.770	36.280
14.728	35.935
14.686	36.140
14.645	36.132
14.603	35.930
14.562	35.954
14.521	35.439
14.481	34.224
14.441	32.468
14.400	30.984
14.361	29.950
14.321	27.961
14.281	25.418
14.242	22.211
14.203	17.830
14.164	13.173
14.126	8.6315
14.087	4.6383
14.049	2.1446
14.011	1.1310
13.973	1.4891
13.936	4.0486
13.899	8.7650
13.861	14.464
13.824	19.747
13.788	24.041
13.751	27.399
13.715	30.127
13.679	32.495
13.643	34.540
13.607	36.300
13.571	37.779
13.536	38.919
13.500	39.817
13.465	40.464
13.430	40.858
13.396	41.110
13.361	41.316
13.327	41.373
13.293	41.200
13.259	40.931
13.225	40.643
13.191	40.189
13.158	39.663
13.124	39.089
13.091	38.356
13.058	37.473
13.026	36.605
12.993	35.823
12.960	35.188
12.928	34.849
12.896	34.759
12.864	34.717
12.832	34.687
12.800	34.664
12.769	34.744
12.737	34.928
12.706	35.317
12.675	35.858
12.644	36.416
12.614	36.814
12.583	37.058
12.552	37.261
12.522	37.490
12.492	37.786
12.462	38.206
12.432	38.572
12.402	38.866
12.373	39.013
12.343	39.028
12.314	39.038
12.285	39.217
12.256	39.523
12.227	39.983
12.198	40.393
12.169	40.671
12.141	40.748
12.113	40.757
12.084	40.679
12.056	40.606
12.028	40.342
12.000	39.949
11.973	39.406
11.945	38.751
11.918	37.738
11.890	36.241
11.863	33.331
11.836	27.128
11.809	17.299
11.782	13.962
11.755	21.149
11.729	26.317
11.702	26.549
11.676	24.991
11.650	22.730
11.624	20.083
11.598	17.282
11.572	14.249
11.546	11.095
11.520	7.9670
11.495	5.5081
11.469	4.2864
11.444	3.9866
11.419	3.9927
11.394	4.1817
11.369	4.4607
11.344	4.7403
11.319	5.3921
11.294	7.9921
11.270	13.650
11.245	19.743
11.221	23.538
11.197	26.091
11.173	28.240
11.149	30.068
11.125	31.508
11.101	32.596
11.077	33.330
11.054	33.899
11.030	34.389
11.007	34.848
10.983	35.291
10.960	35.751
10.937	36.053
10.914	36.199
10.891	36.188
10.868	36.011
10.846	35.622
10.823	35.131
10.800	34.492
10.778	33.752
10.755	33.016
10.733	32.334
10.711	31.754
10.689	31.462
10.667	31.400
10.645	31.497
10.623	31.622
10.602	31.620
10.580	31.500
10.558	31.388
10.537	31.356
10.516	31.534
10.494	31.882
10.473	32.294
10.452	32.641
10.431	32.918
10.410	33.025
10.389	32.920
10.368	32.674
10.348	32.440
10.327	32.305
10.306	32.093
10.286	31.650
10.266	31.026
10.245	30.179
10.225	29.354
10.205	28.925
10.185	28.835
10.165	28.768
10.145	28.568
10.125	28.188
10.106	27.644
10.086	27.025
10.066	26.525
10.047	26.128
10.027	25.850
10.008	25.645
9.9887	25.423
9.9695	25.185
9.9504	24.988
9.9313	24.751
9.9123	24.461
9.8934	24.183
9.8746	24.012
9.8558	23.962
9.8371	24.055
9.8185	24.217
9.7999	24.350
9.7814	24.471
9.7630	24.555
9.7447	24.660
9.7264	24.944
9.7082	25.414
9.6900	26.003
9.6719	26.595
9.6539	27.055
9.6360	27.360
9.6181	27.544
9.6003	27.554
9.5825	27.588
9.5649	27.731
9.5472	27.935
9.5297	28.152
9.5122	28.253
9.4948	28.246
9.4774	28.223
9.4601	28.156
9.4429	28.059
9.4257	27.953
9.4086	27.766
9.3916	27.392
9.3746	27.030
9.3577	27.000
9.3408	27.203
9.3240	27.537
9.3073	28.020
9.2906	28.491
9.2740	28.755
9.2574	28.431
9.2409	27.465
9.2245	27.125
9.2081	27.739
9.1918	28.649
9.1755	29.524
9.1593	29.863
9.1431	29.962
9.1270	30.112
9.1110	30.336
9.0950	30.572
9.0791	30.897
9.0632	31.229
9.0474	31.525
9.0316	31.803
9.0159	32.077
9.0003	32.280
8.9847	32.449
8.9691	32.598
8.9536	32.718
8.9382	32.783
8.9228	32.800
8.9075	32.706
8.8922	32.607
8.8770	32.545
8.8618	32.519
8.8467	32.450
8.8316	32.347
8.8166	32.134
8.8016	31.820
8.7867	31.428
8.7718	30.885
8.7570	30.183
8.7422	29.391
8.7275	28.484
8.7129	27.556
8.6982	26.642
8.6837	25.758
8.6692	24.852
8.6547	23.847
8.6403	22.622
8.6259	21.297
8.6116	20.149
8.5973	19.406
8.5830	19.072
8.5688	19.038
8.5547	19.174
8.5406	19.253
8.5266	19.117
8.5126	18.845
8.4986	18.512
8.4847	18.311
8.4708	18.322
8.4570	18.525
8.4432	18.854
8.4295	19.132
8.4158	19.334
8.4022	19.640
8.3886	20.104
8.3750	20.662
8.3615	21.145
8.3481	21.518
8.3347	21.833
8.3213	22.084
8.3079	22.276
8.2946	22.464
8.2814	22.663
8.2682	22.812
8.2550	22.900
8.2419	23.034
8.2288	23.134
8.2158	23.161
8.2028	23.152
8.1898	23.064
8.1769	22.826
8.1640	22.550
8.1512	22.323
8.1384	22.121
8.1256	21.918
8.1129	21.702
8.1002	21.412
8.0876	21.033
8.0750	20.664
8.0624	20.458
8.0499	20.475
8.0374	20.669
8.0250	20.899
8.0126	21.038
8.0002	21.092
7.9879	21.076
7.9756	20.964
7.9634	20.717
7.9512	20.392
7.9390	20.004
7.9268	19.573
7.9147	19.211
7.9027	18.934
7.8906	18.788
7.8786	18.787
7.8667	18.843
7.8548	18.838
7.8429	18.684
7.8310	18.403
7.8192	18.022
7.8075	17.623
7.7957	17.381
7.7840	17.293
7.7723	17.213
7.7607	17.069
7.7491	16.921
7.7375	16.706
7.7260	16.412
7.7145	16.036
7.7031	15.582
7.6916	15.099
7.6802	14.593
7.6689	14.048
7.6575	13.533
7.6462	13.037
7.6350	12.556
7.6238	12.137
7.6126	11.806
7.6014	11.522
7.5903	11.266
7.5792	11.047
7.5681	10.904
7.5571	10.794
7.5461	10.691
7.5351	10.600
7.5242	10.472
7.5133	10.320
7.5024	10.166
7.4916	10.001
7.4807	9.7959
7.4700	9.5593
7.4592	9.3047
7.4485	9.0497
7.4378	8.7998
7.4272	8.5391
7.4165	8.2933
7.4059	8.0664
7.3954	7.8500
7.3848	7.6174
7.3743	7.3470
7.3639	7.0187
7.3534	6.6706
7.3430	6.3381
7.3326	6.0042
7.3223	5.6836
7.3119	5.4046
7.3016	5.1417
7.2914	4.8884
7.2811	4.6980
7.2709	4.5715
7.2607	4.4318
7.2506	4.3240
7.2404	4.2265
7.2303	4.1414
7.2203	4.0574
7.2102	3.9726
7.2002	3.8876
7.1902	3.8250
7.1803	3.8445
7.1703	3.8852
7.1604	3.9368
7.1506	3.9596
7.1407	3.9866
7.1309	4.0931
7.1211	4.2845
7.1113	4.5222
7.1016	4.7463
7.0919	4.9063
7.0822	4.9840
7.0725	5.0425
7.0629	5.0702
7.0533	5.0570
7.0437	5.0290
7.0341	4.9921
7.0246	4.9764
7.0151	4.9746
7.0056	4.9608
6.9962	4.9584
6.9867	4.9300
6.9773	4.9059
6.9679	4.9106
6.9586	4.8945
6.9493	4.8618
6.9400	4.8661
6.9307	4.8722
6.9214	4.9066
6.9122	4.9511
6.9030	5.0001
6.8938	5.0636
6.8847	5.1185
6.8755	5.1730
6.8664	5.1853
6.8573	5.1908
6.8483	5.2317
6.8393	5.2583
6.8302	5.3089
6.8213	5.3800
6.8123	5.4200
6.8034	5.4318
6.7944	5.4790
6.7855	5.5486
6.7767	5.5765
6.7678	5.5912
6.7590	5.6253
6.7502	5.6959
6.7414	5.7596
6.7327	5.8482
6.7239	5.9578
6.7152	6.0232
6.7065	6.1087
6.6979	6.2169
6.6892	6.2993
6.6806	6.4288
6.6720	6.5695
6.6634	6.6635
6.6549	6.7715
6.6464	6.8890
6.6378	7.0311
6.6294	7.2011
6.6209	7.3631
6.6124	7.5876
6.6040	7.8661
6.5956	8.1209
6.5872	8.3811
6.5789	8.6343
6.5705	8.8579
6.5622	9.0682
6.5539	9.2704
6.5456	9.4627
6.5374	9.6344
6.5292	9.7668
6.5209	9.9119
6.5128	10.083
6.5046	10.244
6.4964	10.414
6.4883	10.617
6.4802	10.879
6.4721	11.153
6.4640	11.428
6.4560	11.685
6.4480	11.873
6.4399	11.904
6.4320	11.672
6.4240	11.222
6.4160	10.702
6.4081	10.214
6.4002	9.7765
6.3923	9.3358
6.3844	8.9467
6.3766	8.5377
6.3687	8.1162
6.3609	7.7048
6.3531	7.2290
6.3454	6.6550
6.3376	6.0042
6.3299	5.4105
6.3221	5.0158
6.3144	4.7088
6.3068	4.4102
6.2991	4.2106
6.2914	4.1897
6.2838	4.2726
6.2762	4.3764
6.2686	4.4048
6.2611	4.3584
6.2535	4.2679
6.2460	4.1590
6.2385	4.0614
6.2310	4.0117
6.2235	3.9501
6.2160	3.8906
6.2086	3.8059
6.2011	3.7441
6.1937	3.7076
6.1863	3.6732
6.1790	3.6541
6.1716	3.6725
6.1643	3.6929
6.1570	3.7071
6.1496	3.7403
6.1424	3.7777
6.1351	3.8509
6.1278	3.9520
6.1206	4.0429
6.1134	4.1149
6.1062	4.1812
6.0990	4.2778
6.0918	4.3901
6.0847	4.5061
6.0776	4.6136
6.0704	4.7141
6.0633	4.8685
6.0563	5.0541
6.0492	5.2618
6.0421	5.4702
6.0351	5.7089
6.0281	5.9668
6.0211	6.2200
6.0141	6.4594
6.0071	6.7244
6.0002	6.9704
5.9932	7.1897
5.9863	7.3773
5.9794	7.5809
5.9725	7.7652
5.9657	7.9440
5.9588	8.1403
5.9520	8.3558
5.9451	8.5746
5.9383	8.8136
5.9315	9.0838
5.9247	9.3575
5.9180	9.6531
5.9112	9.9169
5.9045	10.116
5.8978	10.294
5.8911	10.462
5.8844	10.623
5.8777	10.747
5.8711	10.846
5.8644	10.927
5.8578	10.999
5.8512	11.001
5.8446	10.992
5.8380	10.978
5.8314	10.923
5.8249	10.864
5.8184	10.840
5.8118	10.835
5.8053	10.811
5.7988	10.779
5.7923	10.741
5.7859	10.688
5.7794	10.613
5.7730	10.527
5.7666	10.474
5.7602	10.473
5.7538	10.568
5.7474	10.756
5.7410	10.988
5.7347	11.263
5.7283	11.611
5.7220	11.938
5.7157	12.213
5.7094	12.515
5.7031	12.863
5.6969	13.219
5.6906	13.533
5.6844	13.868
5.6782	14.416
5.6719	15.033
5.6657	15.572
5.6596	16.175
5.6534	16.808
5.6472	17.219
5.6411	17.326
5.6349	17.140
5.6288	16.672
5.6227	15.882
5.6166	14.668
5.6106	12.968
5.6045	10.912
5.5984	8.5997
5.5924	6.1293
5.5864	3.9266
5.5804	2.5515
5.5744	2.0380
5.5684	1.9144
5.5624	1.8600
5.5564	2.0963
5.5505	3.1061
5.5445	5.2573
5.5386	8.3409
5.5327	11.696
5.5268	14.762
5.5209	17.412
5.5151	19.651
5.5092	21.543
5.5033	23.243
5.4975	24.793
5.4917	26.201
5.4859	27.526
5.4801	28.792
5.4743	30.007
5.4685	31.166
5.4628	32.321
5.4570	33.481
5.4513	34.589
5.4455	35.708
5.4398	36.827
5.4341	37.910
5.4284	38.945
5.4228	39.952
5.4171	40.973
5.4114	41.947
5.4058	42.841
5.4002	43.702
5.3945	44.567
5.3889	45.424
5.3833	46.230
5.3778	47.012
5.3722	47.801
5.3666	48.512
5.3611	49.167
5.3555	49.833
5.3500	50.489
5.3445	51.150
5.3390	51.804
5.3335	52.460
5.3280	53.117
5.3225	53.787
5.3171	54.409
5.3116	54.992
5.3062	55.595
5.3008	56.145
5.2954	56.644
5.2900	57.092
5.2846	57.535
5.2792	57.938
5.2738	58.339
5.2684	58.724
5.2631	59.100
5.2578	59.502
5.2524	59.926
5.2471	60.309
5.2418	60.640
5.2365	60.964
5.2312	61.279
5.2260	61.577
5.2207	61.890
5.2154	62.166
5.2102	62.451
5.2050	62.763
5.1998	63.057
5.1945	63.325
5.1893	63.593
5.1842	63.854
5.1790	64.058
5.1738	64.211
5.1686	64.346
5.1635	64.590
5.1584	64.842
5.1532	65.024
5.1481	65.192
5.1430	65.345
5.1379	65.495
5.1328	65.530
5.1277	65.429
5.1227	65.137
5.1176	64.329
5.1126	62.408
5.1075	59.208
5.1025	55.921
5.0975	55.287
5.0925	58.575
5.0875	62.539
5.0825	65.089
5.0775	66.474
5.0726	67.211
5.0676	67.598
5.0627	67.814
5.0577	67.954
5.0528	68.039
5.0479	68.068
5.0430	68.076
5.0380	68.024
5.0332	67.983
5.0283	67.928
5.0234	67.809
5.0185	67.696
5.0137	67.645
5.0088	67.615
5.0040	67.605
4.9992	67.582
4.9944	67.546
4.9896	67.511
4.9848	67.455
4.9800	67.381
4.9752	67.318
4.9704	67.275
4.9657	67.240
4.9609	67.238
4.9562	67.224
4.9514	67.218
4.9467	67.211
4.9420	67.200
4.9373	67.215
4.9326	67.231
4.9279	67.239
4.9232	67.256
4.9186	67.305
4.9139	67.378
4.9092	67.435
4.9046	67.483
4.9000	67.529
4.8953	67.588
4.8907	67.665
4.8861	67.715
4.8815	67.732
4.8769	67.757
4.8723	67.834
4.8678	67.880
4.8632	67.902
4.8586	67.967
4.8541	68.024
4.8495	68.081
4.8450	68.137
4.8405	68.150
4.8360	68.182
4.8315	68.199
4.8270	68.220
4.8225	68.238
4.8180	68.233
4.8135	68.239
4.8090	68.193
4.8046	68.143
4.8001	68.145
4.7957	68.169
4.7913	68.165
4.7868	68.091
4.7824	67.980
4.7780	67.820
4.7736	67.599
4.7692	67.300
4.7648	66.897
4.7605	66.409
4.7561	65.929
4.7517	65.418
4.7474	64.843
4.7431	64.164
4.7387	63.382
4.7344	62.485
4.7301	61.431
4.7258	60.065
4.7215	58.271
4.7172	56.166
4.7129	53.931
4.7086	51.703
4.7043	49.593
4.7000	47.743
4.6958	46.226
4.6915	45.002
4.6873	44.013
4.6831	43.298
4.6788	42.826
4.6746	42.568
4.6704	42.487
4.6662	42.587
4.6620	42.911
4.6578	43.521
4.6536	44.480
4.6495	45.775
4.6453	47.316
4.6411	48.992
4.6370	50.712
4.6328	52.308
4.6287	53.619
4.6246	54.729
4.6205	55.804
4.6163	56.791
4.6122	57.556
4.6081	58.051
4.6040	58.346
4.6000	58.611
4.5959	58.924
4.5918	59.191
4.5877	59.400
4.5837	59.554
4.5796	59.643
4.5756	59.715
4.5716	59.795
4.5675	59.854
4.5635	59.906
4.5595	59.976
4.5555	60.037
4.5515	60.069
4.5475	60.091
4.5435	60.109
4.5395	60.129
4.5356	60.138
4.5316	60.165
4.5276	60.206
4.5237	60.244
4.5197	60.292
4.5158	60.367
4.5119	60.451
4.5080	60.595
4.5040	60.780
4.5001	61.009
4.4962	61.306
4.4923	61.663
4.4884	62.081
4.4846	62.595
4.4807	63.127
4.4768	63.642
4.4730	64.140
4.4691	64.637
4.4652	65.099
4.4614	65.499
4.4576	65.803
4.4537	66.134
4.4499	66.491
4.4461	66.881
4.4423	67.352
4.4385	67.812
4.4347	68.206
4.4309	68.561
4.4271	68.850
4.4233	69.129
4.4196	69.384
4.4158	69.623
4.4120	69.814
4.4083	69.979
4.4045	70.133
4.4008	70.255
4.3971	70.371
4.3934	70.512
4.3896	70.669
4.3859	70.798
4.3822	70.863
4.3785	70.879
4.3748	70.845
4.3711	70.726
4.3674	70.486
4.3638	70.118
4.3601	69.695
4.3564	69.243
4.3528	68.784
4.3491	68.478
4.3455	68.331
4.3418	68.226
4.3382	68.112
4.3346	68.002
4.3310	67.974
4.3273	68.031
4.3237	68.042
4.3201	67.987
4.3165	67.951
4.3129	67.900
4.3094	67.959
4.3058	68.149
4.3022	68.364
4.2986	68.572
4.2951	68.713
4.2915	68.755
4.2880	68.770
4.2844	68.767
4.2809	68.739
4.2774	68.690
4.2738	68.574
4.2703	68.382
4.2668	68.220
4.2633	68.111
4.2598	68.036
4.2563	67.938
4.2528	67.837
4.2493	67.779
4.2458	67.689
4.2424	67.566
4.2389	67.419
4.2354	67.285
4.2320	67.114
4.2285	66.939
4.2251	66.807
4.2216	66.685
4.2182	66.567
4.2148	66.434
4.2113	66.317
4.2079	66.217
4.2045	66.038
4.2011	65.808
4.1977	65.598
4.1943	65.361
4.1909	65.099
4.1875	64.857
4.1841	64.599
4.1808	64.314
4.1774	64.053
4.1740	63.773
4.1707	63.452
4.1673	63.148
4.1640	62.837
4.1606	62.514
4.1573	62.156
4.1540	61.744
4.1506	61.303
4.1473	60.833
4.1440	60.343
4.1407	59.824
4.1374	59.299
4.1341	58.725
4.1308	58.119
4.1275	57.550
4.1242	56.959
4.1209	56.344
4.1177	55.705
4.1144	55.072
4.1111	54.476
4.1079	53.851
4.1046	53.236
4.1014	52.621
4.0981	51.970
4.0949	51.338
4.0917	50.667
4.0884	49.929
4.0852	49.151
4.0820	48.335
4.0788	47.473
4.0756	46.554
4.0724	45.588
4.0692	44.594
4.0660	43.618
4.0628	42.601
4.0596	41.500
4.0565	40.284
4.0533	38.858
4.0501	37.140
4.0470	35.132
4.0438	32.896
4.0406	30.566
4.0375	28.306
4.0344	26.279
4.0312	24.511
4.0281	22.883
4.0250	21.347
4.0218	19.886
4.0187	18.504
4.0156	17.066
4.0125	15.458
4.0094	13.707
4.0063	12.011
4.0032	10.522
4.0001	9.2117
3.9970	8.1015
3.9940	7.1959
3.9909	6.4892
3.9878	5.9422
3.9847	5.5633
3.9817	5.3807
3.9786	5.3347
3.9756	5.3603
3.9725	5.4522
3.9695	5.6156
3.9665	5.8453
3.9634	6.1432
3.9604	6.5394
3.9574	7.0905
3.9544	7.7979
3.9513	8.6966
3.9483	9.7568
3.9453	10.916
3.9423	12.283
3.9393	13.702
3.9363	14.707
3.9333	15.123
3.9304	15.293
3.9274	15.536
3.9244	15.892
3.9214	16.273
3.9185	16.603
3.9155	16.878
3.9126	17.089
3.9096	17.252
3.9067	17.408
3.9037	17.547
3.9008	17.699
3.8979	17.848
3.8949	17.970
3.8920	18.100
3.8891	18.213
3.8862	18.309
3.8833	18.446
3.8804	18.589
3.8775	18.649
3.8746	18.690
3.8717	18.760
3.8688	18.837
3.8659	18.932
3.8630	19.033
3.8601	19.166
3.8573	19.341
3.8544	19.533
3.8515	19.720
3.8487	19.941
3.8458	20.232
3.8430	20.603
3.8401	21.101
3.8373	21.806
3.8344	22.747
3.8316	23.871
3.8288	25.111
3.8259	26.391
3.8231	27.685
3.8203	29.009
3.8175	30.394
3.8147	31.845
3.8119	33.411
3.8091	35.148
3.8063	37.060
3.8035	39.175
3.8007	41.548
3.7979	44.112
3.7951	46.781
3.7924	49.404
3.7896	51.757
3.7868	53.704
3.7841	55.246
3.7813	56.502
3.7785	57.526
3.7758	58.419
3.7730	59.213
3.7703	59.922
3.7676	60.564
3.7648	61.105
3.7621	61.598
3.7594	62.026
3.7566	62.324
3.7539	62.565
3.7512	62.836
3.7485	63.157
3.7458	63.465
3.7431	63.826
3.7404	64.259
3.7377	64.682
3.7350	65.100
3.7323	65.459
3.7296	65.807
3.7269	66.095
3.7242	66.327
3.7216	66.520
3.7189	66.709
3.7162	66.896
3.7136	67.049
3.7109	67.165
3.7083	67.298
3.7056	67.429
3.7030	67.516
3.7003	67.601
3.6977	67.653
3.6950	67.689
3.6924	67.773
3.6898	67.812
3.6872	67.821
3.6845	67.845
3.6819	67.844
3.6793	67.859
3.6767	67.837
3.6741	67.761
3.6715	67.696
3.6689	67.636
3.6663	67.543
3.6637	67.445
3.6611	67.333
3.6585	67.225
3.6560	67.136
3.6534	67.018
3.6508	66.867
3.6482	66.734
3.6457	66.593
3.6431	66.402
3.6406	66.228
3.6380	66.043
3.6355	65.893
3.6329	65.785
3.6304	65.618
3.6278	65.403
3.6253	65.154
3.6227	64.921
3.6202	64.656
3.6177	64.404
3.6152	64.166
3.6127	63.890
3.6101	63.479
3.6076	63.064
3.6051	62.684
3.6026	62.235
3.6001	61.736
3.5976	61.142
3.5951	60.525
3.5926	59.815
3.5901	58.989
3.5876	58.053
3.5852	56.984
3.5827	55.800
3.5802	54.539
3.5777	53.224
3.5753	52.048
3.5728	51.313
3.5704	51.028
3.5679	51.037
3.5654	51.155
3.5630	51.174
3.5605	51.048
3.5581	50.707
3.5557	50.199
3.5532	49.581
3.5508	48.830
3.5484	47.900
3.5459	46.805
3.5435	45.572
3.5411	44.205
3.5387	42.654
3.5363	40.908
3.5338	38.961
3.5314	36.760
3.5290	34.362
3.5266	31.849
3.5242	29.223
3.5218	26.675
3.5195	24.453
3.5171	22.648
3.5147	21.242
3.5123	20.176
3.5099	19.293
3.5075	18.477
3.5052	17.793
3.5028	17.218
3.5004	16.633
3.4981	16.005
3.4957	15.376
3.4934	14.763
3.4910	14.172
3.4887	13.606
3.4863	13.111
3.4840	12.691
3.4816	12.303
3.4793	12.038
3.4770	12.055
3.4746	12.400
3.4723	13.143
3.4700	14.341
3.4677	15.958
3.4653	17.656
3.4630	19.081
3.4607	20.145
3.4584	20.918
3.4561	21.452
3.4538	21.820
3.4515	22.111
3.4492	22.310
3.4469	22.450
3.4446	22.572
3.4423	22.706
3.4400	22.800
3.4378	22.861
3.4355	22.925
3.4332	22.969
3.4309	22.988
3.4287	23.024
3.4264	23.034
3.4241	22.999
3.4219	22.997
3.4196	22.993
3.4174	22.969
3.4151	22.940
3.4129	22.862
3.4106	22.782
3.4084	22.658
3.4061	22.542
3.4039	22.412
3.4017	22.301
3.3994	22.189
3.3972	22.033
3.3950	21.901
3.3928	21.792
3.3906	21.622
3.3883	21.478
3.3861	21.346
3.3839	21.157
3.3817	20.979
3.3795	20.822
3.3773	20.690
3.3751	20.618
3.3729	20.600
3.3707	20.492
3.3685	20.278
3.3663	19.986
3.3641	19.593
3.3620	19.094
3.3598	18.450
3.3576	17.718
3.3554	17.098
3.3533	16.714
3.3511	16.651
3.3489	16.971
3.3468	17.975
3.3446	19.954
3.3425	22.900
3.3403	26.501
3.3382	30.304
3.3360	33.787
3.3339	36.708
3.3317	39.146
3.3296	41.215
3.3274	42.953
3.3253	44.385
3.3232	45.638
3.3210	46.728
3.3189	47.658
3.3168	48.541
3.3147	49.364
3.3126	50.075
3.3104	50.689
3.3083	51.282
3.3062	51.824
3.3041	52.325
3.3020	52.882
3.2999	53.447
3.2978	53.969
3.2957	54.474
3.2936	54.924
3.2915	55.285
3.2894	55.619
3.2874	56.009
3.2853	56.343
3.2832	56.615
3.2811	56.999
3.2790	57.393
3.2770	57.670
3.2749	57.889
3.2728	58.128
3.2708	58.389
3.2687	58.604
3.2666	58.854
3.2646	59.082
3.2625	59.305
3.2605	59.524
3.2584	59.638
3.2564	59.734
3.2543	59.834
3.2523	60.006
3.2503	60.179
3.2482	60.252
3.2462	60.350
3.2442	60.442
3.2421	60.513
3.2401	60.611
3.2381	60.706
3.2361	60.836
3.2340	60.959
3.2320	61.044
3.2300	61.143
3.2280	61.204
3.2260	61.234
3.2240	61.306
3.2220	61.363
3.2200	61.435
3.2180	61.521
3.2160	61.575
3.2140	61.613
3.2120	61.629
3.2100	61.640
3.2080	61.678
3.2060	61.669
3.2040	61.646
3.2021	61.686
3.2001	61.682
3.1981	61.631
3.1961	61.573
3.1942	61.606
3.1922	61.588
3.1902	61.456
3.1883	61.368
3.1863	61.350
3.1844	61.351
3.1824	61.210
3.1805	61.016
3.1785	60.930
3.1766	60.810
3.1746	60.576
3.1727	60.355
3.1707	60.102
3.1688	59.765
3.1669	59.396
3.1649	59.024
3.1630	58.626
3.1611	58.156
3.1591	57.690
3.1572	57.318
3.1553	57.031
3.1534	56.790
3.1515	56.675
3.1495	56.633
3.1476	56.593
3.1457	56.622
3.1438	56.736
3.1419	56.862
3.1400	56.868
3.1381	56.865
3.1362	56.931
3.1343	56.966
3.1324	56.969
3.1305	56.995
3.1286	56.967
3.1268	56.887
3.1249	56.749
3.1230	56.520
3.1211	56.199
3.1192	55.798
3.1174	55.444
3.1155	55.122
3.1136	54.818
3.1117	54.595
3.1099	54.422
3.1080	54.359
3.1061	54.386
3.1043	54.485
3.1024	54.617
3.1006	54.727
3.0987	54.869
3.0969	55.058
3.0950	55.202
3.0932	55.351
3.0913	55.533
3.0895	55.702
3.0876	55.882
3.0858	56.008
3.0840	56.135
3.0821	56.289
3.0803	56.391
3.0785	56.487
3.0766	56.529
3.0748	56.554
3.0730	56.507
3.0712	56.490
3.0694	56.500
3.0675	56.506
3.0657	56.531
3.0639	56.571
3.0621	56.607
3.0603	56.558
3.0585	56.586
3.0567	56.648
3.0549	56.702
3.0531	56.635
3.0513	56.626
3.0495	56.688
3.0477	56.690
3.0459	56.644
3.0441	56.630
3.0423	56.652
3.0406	56.625
3.0388	56.586
3.0370	56.624
3.0352	56.595
3.0334	56.474
3.0317	56.468
3.0299	56.541
3.0281	56.519
3.0264	56.451
3.0246	56.402
3.0228	56.343
3.0211	56.289
3.0193	56.240
3.0176	56.192
3.0158	56.153
3.0140	56.070
3.0123	56.001
3.0105	55.976
3.0088	55.882
3.0070	55.802
3.0053	55.764
3.0036	55.713
3.0018	55.639
3.0001	55.609
2.9984	55.581
2.9966	55.476
2.9949	55.410
2.9932	55.321
2.9914	55.258
2.9897	55.247
2.9880	55.151
2.9863	55.084
2.9845	55.041
2.9828	55.000
2.9811	54.977
2.9794	54.882
2.9777	54.751
2.9760	54.675
2.9743	54.585
2.9726	54.556
2.9709	54.542
2.9692	54.457
2.9675	54.445
2.9658	54.330
2.9641	54.238
2.9624	54.154
2.9607	54.083
2.9590	54.111
2.9573	54.116
2.9556	54.015
2.9539	53.951
2.9523	53.965
2.9506	53.966
2.9489	53.916
2.9472	53.880
2.9455	53.839
2.9439	53.772
2.9422	53.728
2.9405	53.824
2.9389	53.920
2.9372	53.832
2.9355	53.770
2.9339	53.779
2.9322	53.778
2.9306	53.758
2.9289	53.757
2.9272	53.847
2.9256	53.855
2.9239	53.840
2.9223	53.829
2.9207	53.859
2.9190	53.891
2.9174	53.994
2.9157	53.998
2.9141	53.954
2.9124	54.034
2.9108	54.171
2.9092	54.256
2.9075	54.234
2.9059	54.261
2.9043	54.302
2.9027	54.374
2.9010	54.468
2.8994	54.502
2.8978	54.565
2.8962	54.675
2.8946	54.748
2.8929	54.752
2.8913	54.837
2.8897	54.953
2.8881	55.017
2.8865	55.077
2.8849	55.153
2.8833	55.235
2.8817	55.339
2.8801	55.421
2.8785	55.503
2.8769	55.538
2.8753	55.658
2.8737	55.744
2.8721	55.796
2.8705	55.837
2.8689	55.963
2.8673	56.096
2.8658	56.193
2.8642	56.313
2.8626	56.347
2.8610	56.426
2.8594	56.479
2.8579	56.508
2.8563	56.637
2.8547	56.782
2.8531	56.897
2.8516	56.950
2.8500	56.990
2.8484	57.030
2.8469	57.130
2.8453	57.206
2.8437	57.263
2.8422	57.399
2.8406	57.450
2.8391	57.492
2.8375	57.535
2.8360	57.571
2.8344	57.612
2.8329	57.682
2.8313	57.717
2.8298	57.735
2.8282	57.681
2.8267	57.683
2.8252	57.733
2.8236	57.684
2.8221	57.669
2.8205	57.742
2.8190	57.732
2.8175	57.690
2.8159	57.662
2.8144	57.585
2.8129	57.497
2.8114	57.430
2.8098	57.359
2.8083	57.301
2.8068	57.191
2.8053	57.076
2.8038	56.935
2.8022	56.734
2.8007	56.528
2.7992	56.324
2.7977	56.086
2.7962	55.712
2.7947	55.241
2.7932	54.733
2.7917	54.361
2.7902	54.080
2.7887	53.901
2.7872	53.907
2.7857	54.132
2.7842	54.416
2.7827	54.838
2.7812	55.346
2.7797	55.776
2.7782	56.229
2.7767	56.678
2.7752	57.082
2.7738	57.479
2.7723	57.899
2.7708	58.317
2.7693	58.752
2.7678	59.141
2.7664	59.521
2.7649	59.932
2.7634	60.282
2.7619	60.576
2.7605	60.940
2.7590	61.299
2.7575	61.620
2.7561	61.802
2.7546	62.074
2.7531	62.492
2.7517	62.932
2.7502	63.383
2.7488	63.828
2.7473	64.263
2.7458	64.595
2.7444	64.902
2.7429	65.382
2.7415	65.859
2.7400	66.280
2.7386	66.845
2.7371	67.395
2.7357	67.855
2.7343	68.312
2.7328	68.749
2.7314	69.278
2.7299	69.842
2.7285	70.424
2.7271	71.013
2.7256	71.510
2.7242	71.964
2.7228	72.485
2.7213	72.974
2.7199	73.638
2.7185	74.443
2.7171	75.147
2.7156	75.660
2.7142	76.159
2.7128	76.647
2.7114	77.065
2.7100	77.661
2.7085	78.270
2.7071	78.786
2.7057	79.326
2.7043	79.869
2.7029	80.261
2.7015	80.663
2.7001	81.159
2.6987	81.582
2.6973	81.969
2.6959	82.381
2.6945	82.744
2.6931	83.019
2.6917	83.418
2.6903	83.741
2.6889	84.062
2.6875	84.379
2.6861	84.632
2.6847	84.795
2.6833	84.940
2.6819	85.160
2.6805	85.314
2.6791	85.453
2.6778	85.615
2.6764	85.739
2.6750	85.885
2.6736	86.037
2.6722	86.154
2.6709	86.165
2.6695	86.254
2.6681	86.358
2.6667	86.381
2.6654	86.504
2.6640	86.691
2.6626	86.877
2.6613	86.970
2.6599	86.999
2.6585	87.114
2.6572	87.168
2.6558	87.122
2.6545	87.174
2.6531	87.271
2.6517	87.321
2.6504	87.393
2.6490	87.409
2.6477	87.346
2.6463	87.421
2.6450	87.532
2.6436	87.569
2.6423	87.528
2.6409	87.591
2.6396	87.650
2.6382	87.636
2.6369	87.652
2.6356	87.622
2.6342	87.528
2.6329	87.519
2.6315	87.544
2.6302	87.536
2.6289	87.553
2.6275	87.588
2.6262	87.534
2.6249	87.531
2.6236	87.601
2.6222	87.564
2.6209	87.429
2.6196	87.376
2.6183	87.452
2.6169	87.430
2.6156	87.347
2.6143	87.338
2.6130	87.354
2.6117	87.378
2.6103	87.266
2.6090	87.198
2.6077	87.142
2.6064	86.941
2.6051	86.820
2.6038	86.835
2.6025	86.845
2.6012	86.789
2.5999	86.628
2.5986	86.494
2.5973	86.374
2.5960	86.117
2.5947	85.731
2.5934	85.667
2.5921	85.694
2.5908	85.541
2.5895	85.258
2.5882	84.869
2.5869	84.641
2.5856	84.600
2.5843	84.369
2.5830	84.142
2.5817	84.054
2.5805	83.896
2.5792	83.818
2.5779	83.710
2.5766	83.580
2.5753	83.477
2.5741	83.244
2.5728	82.905
2.5715	82.721
2.5702	82.422
2.5690	82.098
2.5677	81.758
2.5664	81.288
2.5651	80.782
2.5639	80.302
2.5626	79.731
2.5613	79.141
2.5601	78.459
2.5588	77.638
2.5575	76.883
2.5563	76.010
2.5550	75.018
2.5538	74.056
2.5525	73.132
2.5513	72.198
2.5500	71.198
2.5487	70.277
2.5475	69.330
2.5462	68.395
2.5450	67.597
2.5437	66.923
2.5425	66.252
2.5413	65.695
2.5400	65.254
2.5388	64.950
2.5375	64.779
2.5363	64.670
2.5350	64.736
2.5338	64.906
2.5326	65.138
2.5313	65.464
2.5301	65.870
2.5289	66.366
2.5276	66.872
2.5264	67.412
2.5252	67.920
2.5239	68.425
2.5227	68.904
2.5215	69.303
2.5202	69.666
2.5190	70.034
2.5178	70.430
2.5166	70.730
2.5154	70.899
2.5141	71.163
2.5129	71.370
2.5117	71.516
2.5105	71.692
2.5093	71.868
2.5081	71.929
2.5068	72.056
2.5056	72.202
2.5044	72.246
2.5032	72.273
2.5020	72.357
2.5008	72.464
2.4996	72.520
2.4984	72.629
2.4972	72.742
2.4960	72.784
2.4948	72.853
2.4936	72.988
2.4924	73.064
2.4912	73.236
2.4900	73.362
2.4888	73.490
2.4876	73.672
2.4864	73.906
2.4852	74.091
2.4840	74.290
2.4828	74.504
2.4816	74.726
2.4805	74.945
2.4793	75.277
2.4781	75.580
2.4769	75.852
2.4757	76.253
2.4745	76.584
2.4734	76.950
2.4722	77.393
2.4710	77.770
2.4698	78.103
2.4686	78.495
2.4675	78.939
2.4663	79.211
2.4651	79.531
2.4640	80.005
2.4628	80.286
2.4616	80.532
2.4604	80.710
2.4593	80.974
2.4581	81.325
2.4569	81.669
2.4558	81.974
2.4546	82.186
2.4535	82.339
2.4523	82.530
2.4511	82.841
2.4500	83.075
2.4488	83.206
2.4477	83.365
2.4465	83.582
2.4454	83.712
2.4442	83.838
2.4431	84.087
2.4419	84.330
2.4408	84.466
2.4396	84.697
2.4385	84.846
2.4373	84.974
2.4362	85.143
2.4350	85.258
2.4339	85.368
2.4327	85.499
2.4316	85.596
2.4305	85.731
2.4293	85.885
2.4282	86.094
2.4270	86.214
2.4259	86.390
2.4248	86.586
2.4236	86.669
2.4225	86.799
2.4214	86.937
2.4202	87.041
2.4191	87.140
2.4180	87.244
2.4169	87.287
2.4157	87.377
2.4146	87.503
2.4135	87.568
2.4124	87.641
2.4112	87.694
2.4101	87.656
2.4090	87.527
2.4079	87.552
2.4068	87.692
2.4056	87.668
2.4045	87.616
2.4034	87.603
2.4023	87.566
2.4012	87.564
2.4001	87.513
2.3990	87.548
2.3979	87.697
2.3967	87.717
2.3956	87.765
2.3945	87.819
2.3934	87.831
2.3923	87.908
2.3912	87.982
2.3901	87.993
2.3890	87.994
2.3879	87.910
2.3868	87.764
2.3857	87.765
2.3846	87.833
2.3835	87.791
2.3824	87.624
2.3813	87.444
2.3802	87.352
2.3791	87.186
2.3781	87.123
2.3770	87.088
2.3759	86.913
2.3748	86.693
2.3737	86.518
2.3726	86.299
2.3715	85.980
2.3704	85.669
2.3694	85.437
2.3683	85.094
2.3672	84.737
2.3661	84.341
2.3650	83.953
2.3640	83.599
2.3629	83.035
2.3618	82.470
2.3607	81.924
2.3597	81.270
2.3586	80.681
2.3575	80.145
2.3564	79.624
2.3554	79.159
2.3543	78.584
2.3532	77.958
2.3522	77.484
2.3511	77.132
2.3500	76.697
2.3490	76.249
2.3479	75.936
2.3468	75.610
2.3458	75.210
2.3447	74.998
2.3436	74.876
2.3426	74.787
2.3415	74.720
2.3405	74.588
2.3394	74.644
2.3384	74.716
2.3373	74.724
2.3363	74.773
2.3352	74.926
2.3342	75.160
2.3331	75.349
2.3321	75.509
2.3310	75.736
2.3300	76.006
2.3289	76.344
2.3279	76.649
2.3268	76.812
2.3258	77.101
2.3247	77.388
2.3237	77.563
2.3226	77.739
2.3216	78.009
2.3206	78.191
2.3195	78.276
2.3185	78.498
2.3175	78.801
2.3164	78.965
2.3154	79.080
2.3144	79.194
2.3133	79.263
2.3123	79.402
2.3113	79.493
2.3102	79.531
2.3092	79.548
2.3082	79.669
2.3071	79.758
2.3061	79.764
2.3051	79.873
2.3041	79.912
2.3030	80.021
2.3020	80.196
2.3010	80.198
2.3000	80.257
2.2990	80.336
2.2979	80.419
2.2969	80.510
2.2959	80.554
2.2949	80.669
2.2939	80.886
2.2929	81.181
2.2918	81.304
2.2908	81.315
2.2898	81.346
2.2888	81.408
2.2878	81.700
2.2868	81.971
2.2858	82.113
2.2848	82.361
2.2838	82.420
2.2828	82.540
2.2818	82.798
2.2808	82.990
2.2798	83.235
2.2787	83.358
2.2777	83.543
2.2767	83.998
2.2757	84.247
2.2747	84.249
2.2738	84.424
2.2728	84.707
2.2718	84.940
2.2708	85.114
2.2698	85.239
2.2688	85.294
2.2678	85.419
2.2668	85.560
2.2658	85.650
2.2648	85.775
2.2638	85.782
2.2628	85.897
2.2618	86.165
2.2609	86.237
2.2599	86.369
2.2589	86.460
2.2579	86.557
2.2569	86.707
2.2559	86.823
2.2550	86.888
2.2540	87.005
2.2530	87.188
2.2520	87.227
2.2510	87.237
2.2501	87.346
2.2491	87.461
2.2481	87.491
2.2471	87.724
2.2462	87.851
2.2452	87.891
2.2442	87.926
2.2433	88.038
2.2423	88.221
2.2413	88.213
2.2403	88.339
2.2394	88.323
2.2384	88.317
2.2374	88.469
2.2365	88.638
2.2355	88.756
2.2345	88.842
2.2336	88.869
2.2326	88.994
2.2317	89.037
2.2307	89.077
2.2297	89.084
2.2288	89.153
2.2278	89.196
2.2269	89.252
2.2259	89.235
2.2250	89.187
2.2240	89.199
2.2231	89.288
2.2221	89.550
2.2211	89.577
2.2202	89.575
2.2192	89.647
2.2183	89.650
2.2173	89.598
2.2164	89.657
2.2155	89.835
2.2145	89.818
2.2136	89.725
2.2126	89.801
2.2117	89.848
2.2107	89.812
2.2098	89.875
2.2088	90.062
2.2079	90.227
2.2070	90.164
2.2060	90.180
2.2051	90.225
2.2041	90.244
2.2032	90.202
2.2023	90.216
2.2013	90.132
2.2004	90.129
2.1995	90.252
2.1985	90.312
2.1976	90.396
2.1967	90.483
2.1957	90.340
2.1948	90.438
2.1939	90.566
2.1930	90.575
2.1920	90.564
2.1911	90.511
2.1902	90.422
2.1893	90.524
2.1883	90.478
2.1874	90.441
2.1865	90.509
2.1856	90.492
2.1846	90.411
2.1837	90.530
2.1828	90.568
2.1819	90.429
2.1810	90.420
2.1800	90.346
2.1791	90.206
2.1782	90.312
2.1773	90.386
2.1764	90.313
2.1755	90.297
2.1746	90.344
2.1736	90.371
2.1727	90.261
2.1718	90.157
2.1709	90.094
2.1700	90.171
2.1691	90.061
2.1682	89.822
2.1673	89.778
2.1664	89.869
2.1655	89.827
2.1646	89.761
2.1637	89.761
2.1628	89.816
2.1619	89.820
2.1610	89.748
2.1601	89.880
2.1592	89.843
2.1583	89.668
2.1574	89.657
2.1565	89.628
2.1556	89.551
2.1547	89.564
2.1538	89.695
2.1529	89.772
2.1520	89.716
2.1511	89.596
2.1502	89.579
2.1493	89.784
2.1484	89.799
2.1475	89.822
2.1466	90.117
2.1458	90.221
2.1449	89.988
2.1440	89.964
2.1431	90.239
2.1422	90.374
2.1413	90.310
2.1404	90.388
2.1396	90.550
2.1387	90.680
2.1378	90.680
2.1369	90.490
2.1360	90.595
2.1352	90.701
2.1343	90.740
2.1334	90.855
2.1325	90.802
2.1316	90.836
2.1308	90.929
2.1299	90.989
2.1290	90.970
2.1281	90.927
2.1273	91.029
2.1264	90.991
2.1255	90.867
2.1247	90.940
2.1238	90.957
2.1229	90.961
2.1220	91.083
2.1212	91.015
2.1203	90.865
2.1194	90.896
2.1186	90.951
2.1177	90.984
2.1168	91.049
2.1160	91.060
2.1151	91.057
2.1143	91.011
2.1134	91.045
2.1125	91.220
2.1117	91.327
2.1108	91.159
2.1100	90.998
2.1091	91.094
2.1082	91.168
2.1074	91.137
2.1065	91.188
2.1057	91.346
2.1048	91.363
2.1040	91.240
2.1031	91.223
2.1023	91.434
2.1014	91.466
2.1005	91.382
2.0997	91.492
2.0988	91.506
2.0980	91.386
2.0971	91.471
2.0963	91.461
2.0955	91.400
2.0946	91.342
2.0938	91.464
2.0929	91.254
2.0921	91.045
2.0912	91.153
2.0904	91.450
2.0895	91.707
2.0887	91.720
2.0879	91.443
2.0870	91.170
2.0862	91.457
2.0853	91.810
2.0845	91.610
2.0837	91.341
2.0828	91.424
2.0820	91.603
2.0812	91.453
2.0803	91.314
2.0795	91.237
2.0760	91.237
2.0720	91.237
2.0680	91.160
2.0640	91.350
2.0600	91.367
2.0560	91.444
2.0520	91.273
2.0480	90.759
2.0440	90.682
2.0400	90.889
2.0360	90.472
2.0320	90.095
2.0280	90.057
2.0240	89.852
2.0200	89.627
2.0160	89.459
2.0120	88.956
2.0080	88.437
2.0040	88.290
2.0000	87.939
1.9960	87.536
1.9920	87.423
1.9880	87.002
1.9840	87.094
1.9800	86.951
1.9760	86.738
1.9720	86.207
1.9680	86.136
1.9640	86.179
1.9600	86.391
1.9560	86.646
1.9520	86.667
1.9480	86.780
1.9440	86.596
1.9400	86.391
1.9360	86.213
1.9320	86.119
1.9280	86.017
1.9240	85.951
1.9200	86.044
1.9160	86.159
1.9120	86.626
1.9080	86.719
1.9040	86.768
1.9000	87.035
1.8960	87.149
1.8920	87.342
1.8880	87.230
1.8840	86.950
1.8800	87.362
1.8760	87.708
1.8720	87.649
1.8680	87.423
1.8640	87.023
1.8600	87.117
1.8560	87.272
1.8520	87.674
1.8480	87.935
1.8440	88.415
1.8400	88.679
1.8360	88.805
1.8320	88.974
1.8280	88.655
1.8240	88.446
1.8200	88.131
1.8160	88.150
1.8120	88.208
1.8080	88.138
1.8040	88.438
1.8000	88.528
1.7960	87.640
1.7920	88.138
1.7880	88.208
1.7840	88.297
1.7800	88.438
1.7760	87.939
1.7720	87.799
1.7680	87.809
1.7640	87.720
1.7600	87.551
1.7560	87.481
1.7520	87.451
1.7480	87.135
1.7440	86.986
1.7400	87.035
1.7360	87.751
1.7320	87.962
1.7280	88.104
1.7240	88.104
1.7200	88.233
1.7160	88.509
1.7120	88.760
1.7080	88.358
1.7040	87.869
1.7000	87.619
1.6960	87.917
1.6920	87.798
1.6880	87.848
1.6840	87.274
1.6800	88.087
1.6760	88.157
1.6720	87.987
1.6680	87.580
1.6640	87.649
1.6600	87.898
1.6560	86.866
1.6520	86.434
1.6480	86.817
1.6440	87.800
1.6400	88.057
1.6360	87.789
1.6320	87.640
1.6280	87.321
1.6240	87.361
1.6200	87.401
1.6160	87.214
1.6120	87.234
1.6080	87.024
1.6040	87.281
1.6000	87.351
1.5960	87.142
1.5920	87.710
1.5880	87.909
1.5840	88.249
1.5800	88.622
1.5760	87.958
1.5720	87.638
1.5680	86.913
1.5640	86.433
1.5600	86.093
1.5560	85.516
1.5520	85.785
1.5480	86.056
1.5440	85.899
1.5400	85.473
1.5360	86.349
1.5320	86.913
1.5280	87.071
1.5240	86.954
1.5200	86.946
1.5160	86.453
1.5120	86.123
1.5080	86.650
1.5040	86.705
1.5000	86.676
1.4960	86.908
1.4920	85.650
1.4880	85.558
1.4840	85.512
1.4800	85.420
1.4760	85.375
1.4720	85.307
1.4680	86.121
1.4640	86.395
1.4600	85.672
1.4560	85.693
1.4520	85.311
1.4480	85.019
1.4440	85.020
1.4400	85.097
1.4360	85.233
1.4320	85.459
1.4280	85.413
1.4240	85.479
1.4200	85.681
1.4160	85.591
1.4120	85.481
1.4080	85.499
1.4040	85.296
1.4000	84.940
1.3960	84.917
1.3920	85.008
1.3880	85.053
1.3840	85.075
1.3800	85.716
1.3760	86.155
1.3720	85.897
1.3680	86.049
1.3640	86.078
1.3600	86.180
1.3560	85.768
1.3520	85.826
1.3480	85.837
1.3440	85.969
1.3400	85.368
1.3360	85.768
1.3320	85.726
1.3280	85.772
1.3240	85.849
1.3200	85.818
1.3160	85.492
1.3120	85.246
1.3080	85.246
1.3040	85.023
1.3000	85.023
1.2960	85.023
1.2920	84.955
1.2880	84.910
1.2840	84.796
1.2800	84.907
1.2760	85.314
1.2720	85.314
1.2680	85.246
1.2640	85.116
1.2600	86.121
1.2560	86.256
1.2520	86.256
1.2480	86.096
1.2440	85.413
1.2400	85.240
1.2360	85.399
1.2320	85.467
1.2280	85.558
1.2240	85.104
1.2200	84.855
1.2160	84.536
1.2120	84.153
1.2080	83.526
1.2040	83.345
1.2000	83.345
1.1960	83.198
1.1920	83.091
1.1880	82.864
1.1840	82.889
1.1800	82.824
1.1760	82.809
1.1720	82.858
1.1680	82.858
1.1640	82.600
1.1600	82.695
1.1560	83.379
1.1520	84.554
1.1480	84.789
1.1440	84.584
1.1400	84.561
1.1360	84.550
1.1320	83.898
1.1280	83.512
1.1240	83.619
1.1200	84.262
1.1160	84.420
1.1120	84.458
1.1080	84.755
1.1040	84.577
1.1000	84.006
1.0960	84.597
1.0920	83.924
1.0880	84.033
1.0840	84.982
1.0800	84.244
1.0760	84.353
1.0720	83.554
1.0680	83.022
1.0640	82.827
1.0600	83.087
1.0560	82.837
1.0520	82.440
1.0480	82.780
1.0440	83.406
1.0400	83.644
1.0360	84.791
1.0320	84.610
1.0280	84.162
1.0240	83.933
1.0200	83.751
1.0160	83.817
1.0120	83.537
1.0080	84.252
1.0040	84.114
1.0000	82.971
0.99600	83.414
0.99200	84.425
0.98800	84.377
0.98400	83.847
0.98000	84.132
0.97600	83.594
0.97200	83.554
0.96800	83.569
0.96400	83.562
0.96000	83.479
0.95600	83.816
0.95200	83.078
0.94800	83.618
0.94400	83.438
0.94000	83.217
0.93600	83.087
0.93200	83.422
0.92800	83.300
0.92400	83.445
0.92000	83.031
0.91600	83.225
0.91200	83.160
0.90800	83.380
0.90400	82.893
0.90000	83.022
0.89600	82.868
0.89200	82.600
0.88800	82.843
0.88400	82.704
0.88000	82.695
0.87600	82.799
0.87200	82.985
0.86800	82.404
0.86400	82.508
0.86000	82.712
0.85600	82.563
0.85200	82.628
0.84800	82.470
0.84400	82.370
0.84000	82.370
0.83600	82.698
0.83200	82.174
0.82800	82.199
0.82400	82.367
0.82000	82.850
0.81600	82.271
0.81200	82.039
0.80800	82.438
0.80400	82.758
0.80000	82.833
0.79900	82.833
0.79800	82.833
0.79700	82.957
0.79600	83.099
0.79500	83.196
0.79400	83.707
0.79300	83.249
0.79200	82.833
0.79100	82.760
0.79000	82.902
0.78900	83.028
0.78800	82.887
0.78700	83.152
0.78600	82.746
0.78500	83.028
0.78400	83.317
0.78300	83.512
0.78200	82.869
0.78100	82.769
0.78000	83.123
0.77900	83.531
0.77800	83.291
0.77700	83.149
0.77600	82.843
0.77500	82.892
0.77400	82.892
0.77300	82.505
0.77200	82.529
0.77100	82.435
0.77000	82.133
0.76900	82.376
0.76800	82.819
0.76700	83.341
0.76600	82.952
0.76500	82.599
0.76400	83.341
0.76300	83.658
0.76200	83.034
0.76100	82.972
0.76000	82.669
0.75900	82.362
0.75800	82.362
0.75700	82.459
0.75600	82.740
0.75500	82.925
0.75400	82.991
0.75300	82.432
0.75200	83.083
0.75100	82.599
0.75000	82.362
0.74900	82.740
0.74800	82.934
0.74700	82.934
0.74600	82.406
0.74500	82.449
0.74400	82.663
0.74300	82.127
0.74200	82.302
0.74100	83.471
0.74000	82.691
0.73900	81.758
0.73800	81.855
0.73700	82.061
0.73600	82.232
0.73500	82.255
0.73400	82.342
0.73300	82.655
0.73200	82.794
0.73100	82.176
0.73000	82.066
0.72900	82.584
0.72800	83.089
0.72700	82.726
0.72600	82.646
0.72500	82.256
0.72400	81.877
0.72300	81.877
0.72200	81.374
0.72100	81.850
0.72000	82.206
0.71900	82.825
0.71800	82.503
0.71700	82.234
0.71600	82.146
0.71500	81.820
0.71400	82.112
0.71300	82.256
0.71200	82.127
0.71100	82.368
0.71000	82.752
0.70900	82.537
0.70800	82.288
0.70700	81.765
0.70600	81.808
0.70500	81.487
0.70400	81.797
0.70300	81.681
0.70200	81.681
0.70100	81.783
0.70000	82.234
0.69900	83.078
0.69800	81.552
0.69700	82.082
0.69600	81.893
0.69500	82.338
0.69400	82.238
0.69300	82.065
0.69200	81.849
0.69100	82.338
0.69000	82.165
0.68900	82.183
0.68800	82.238
0.68700	82.038
0.68600	82.138
0.68500	81.982
0.68400	81.837
0.68300	82.138
0.68200	81.765
0.68100	82.065
0.68000	82.183
0.67900	82.356
0.67800	82.082
0.67700	81.437
0.67600	81.537
0.67500	82.155
0.67400	82.155
0.67300	82.457
0.67200	82.065
0.67100	82.402
0.67000	82.027
0.66900	81.899
0.66800	81.725
0.66700	81.825
0.66600	81.954
0.66500	81.581
0.66400	81.265
0.66300	81.394
0.66200	81.942
0.66100	82.144
0.66000	81.899
0.65900	81.961
0.65800	81.961
0.65700	81.713
0.65600	81.352
0.65500	81.625
0.65400	81.681
0.65300	81.637
0.65200	81.437
0.65100	80.994
0.65000	80.752
0.64900	80.541
0.64800	80.838
0.64700	81.725
0.64600	82.467
0.64500	82.466
0.64400	82.265
0.64300	82.017
0.64200	81.352
0.64100	80.979
0.64000	81.383
0.63900	81.845
0.63800	81.223
0.63700	80.665
0.63600	80.752
0.63500	81.065
0.63400	81.037
0.63300	81.065
0.63200	81.394
0.63100	81.553
0.63000	80.636
0.62900	80.494
0.62800	80.424
0.62700	80.424
0.62600	80.594
0.62500	80.850
0.62400	80.879
0.62300	80.965
0.62200	80.923
0.62100	80.651
0.62000	80.620
0.61900	81.225
0.61800	81.589
0.61700	81.573
0.61600	81.456
0.61500	81.210
0.61400	81.022
0.61300	80.636
0.61200	81.008
0.61100	80.748
0.61000	80.575
0.60900	80.403
0.60800	80.331
0.60700	80.230
0.60600	80.169
0.60500	79.998
0.60400	79.796
0.60300	79.737
0.60200	79.748
0.60100	79.797
0.60000	79.716
0.59900	79.726
0.59800	80.301
0.59700	80.356
0.59600	80.058
0.59500	79.411
0.59400	79.932
0.59300	80.307
0.59200	80.061
0.59100	79.575
0.59000	79.778
0.58900	79.255
0.58800	79.440
0.58700	79.503
0.58600	80.061
0.58500	80.216
0.58400	78.761
0.58300	79.421
0.58200	79.006
0.58100	78.935
0.58000	79.049
0.57900	79.296
0.57800	78.915
0.57700	78.630
0.57600	78.630
0.57500	78.598
0.57400	78.456
0.57300	78.338
0.57200	78.524
0.57100	78.905
0.57000	78.524
0.56900	78.150
0.56800	78.151
0.56700	78.022
0.56600	78.093
0.56500	78.023
0.56400	77.885
0.56300	78.061
0.56200	77.687
0.56100	77.585
0.56000	77.867
0.55900	77.528
0.55800	77.528
0.55700	77.592
0.55600	77.266
0.55500	77.137
0.55400	77.069
0.55300	77.166
0.55200	76.966
0.55100	76.962
0.55000	76.560
0.54900	76.749
0.54800	76.261
0.54700	75.998
0.54600	76.419
0.54500	76.048
0.54400	75.692
0.54300	76.478
0.54200	76.744
0.54100	76.242
0.54000	75.941
0.53900	76.193
0.53800	76.158
0.53700	75.962
0.53600	76.163
0.53500	75.796
0.53400	75.622
0.53300	74.983
0.53200	74.543
0.53100	74.481
0.53000	74.407
0.52900	74.421
0.52800	74.396
0.52700	74.735
0.52600	74.634
0.52500	74.534
0.52400	74.559
0.52300	74.672
0.52200	75.237
0.52100	75.073
0.52000	75.052
0.51900	74.584
0.51800	74.295
0.51700	74.056
0.51600	73.692
0.51500	74.685
0.51400	74.295
0.51300	74.357
0.51200	73.883
0.51100	73.422
0.51000	73.568
0.50900	73.144
0.50800	73.351
0.50700	73.825
0.50600	73.458
0.50500	73.978
0.50400	74.002
0.50300	73.910
0.50200	73.560
0.50100	74.116
0.50000	73.975
0.49900	72.949
0.49800	73.273
0.49700	73.536
0.49600	72.988
0.49500	73.172
0.49400	72.747
0.49300	72.729
0.49200	72.529
0.49100	73.041
0.49000	73.543
0.48900	73.136
0.48800	72.790
0.48700	72.021
0.48600	72.040
0.48500	72.219
0.48400	72.932
0.48300	73.015
0.48200	72.404
0.48100	71.898
0.48000	71.931
0.47900	72.769
0.47800	72.852
0.47700	72.280
0.47600	72.116
0.47500	71.587
0.47400	71.950
0.47300	72.133
0.47200	71.808
0.47100	71.831
0.47000	71.729
0.46900	71.211
0.46800	71.771
0.46700	71.328
0.46600	71.489
0.46500	71.168
0.46400	71.423
0.46300	70.974
0.46200	71.662
0.46100	71.158
0.46000	70.458
0.45900	72.919
0.45800	72.879
0.45700	72.858
0.45600	72.569
0.45500	71.769
0.45400	71.603
0.45300	71.367
0.45200	71.501
0.45100	70.955
0.45000	71.252
0.44900	71.329
0.44800	71.147
0.44700	71.103
0.44600	71.459
0.44500	71.248
0.44400	71.252
0.44300	70.620
0.44200	70.748
0.44100	71.013
0.44000	70.589
0.43900	70.396
0.43800	70.423
0.43700	70.151
0.43600	70.155
0.43500	70.378
0.43400	70.373
0.43300	69.996
0.43200	69.741
0.43100	70.231
0.43000	69.929
0.42900	69.994
0.42800	69.818
0.42700	68.994
0.42600	69.072
0.42500	68.424
0.42400	69.062
0.42300	69.362
0.42200	68.938
0.42100	68.836
0.42000	68.928
0.41900	69.057
0.41800	68.721
0.41700	68.166
0.41600	68.266
0.41500	68.635
0.41400	68.546
0.41300	67.999
0.41200	68.163
0.41100	67.778
0.41000	67.247
0.40900	67.523
0.40800	68.007
0.40700	67.640
0.40600	67.427
0.40500	67.316
0.40400	67.270
0.40300	66.951
0.40200	66.368
0.40100	66.525
0.40000	66.532
