Name: Chlorite Schist 
Type:  Rocks
Class:  Metamorphic 
Subclass: Schist 
Particle Size:  0-75 Micrometer
Sample No.:   schist7.doc
Owner:  JHU
Wavelength Range:  All
Origin:  Sample No. 395, The Hunt and Salisbury Collection at the U.S. 
Geological Survey, Denver, Co.
Description: This is a coarse-grained greenish schistose rock containing red 
garnet porphyroblasts.  Microscopically there are granulated grains of actinolite 
and tremolite with somewhat lesser amounts of chlorite.  This latter mineral is 
apparently secondary to the amphiboles and their granulation.  It often occurs as 
an alteration around the garnet crystals in addition to its association with the 
amphiboles.  
Measurement:  Directional (10 Degree) Hemispherical Reflectance
First Column:  X
Second Column:  Y  
X Units:  Wavelength (micrometers)
Y Units:  Reflectance (percent)
First X Value: 14.0112	
Last X Value:  0.4
Number of X Values: 2844
Additional Information:  schist7a.txt

14.983	1.4157
14.940	1.3463
14.897	1.3271
14.854	1.3465
14.812	1.3880
14.770	1.4394
14.728	1.4955
14.686	1.5571
14.645	1.6257
14.603	1.7013
14.562	1.7792
14.521	1.8517
14.481	1.9111
14.441	1.9509
14.400	1.9684
14.361	1.9646
14.321	1.9457
14.281	1.9194
14.242	1.8955
14.203	1.8822
14.164	1.8843
14.126	1.9038
14.087	1.9379
14.049	1.9814
14.011	2.0281
13.973	2.0717
13.936	2.1074
13.899	2.1335
13.861	2.1508
13.824	2.1626
13.788	2.1744
13.751	2.1913
13.715	2.2178
13.679	2.2564
13.643	2.3073
13.607	2.3691
13.571	2.4387
13.536	2.5131
13.500	2.5896
13.465	2.6658
13.430	2.7402
13.396	2.8115
13.361	2.8790
13.327	2.9417
13.293	2.9988
13.259	3.0502
13.225	3.0954
13.191	3.1352
13.158	3.1703
13.124	3.2025
13.091	3.2335
13.058	3.2645
13.026	3.2955
12.993	3.3263
12.960	3.3547
12.928	3.3789
12.896	3.3969
12.864	3.4087
12.832	3.4154
12.800	3.4187
12.769	3.4215
12.737	3.4267
12.706	3.4352
12.675	3.4476
12.644	3.4618
12.614	3.4760
12.583	3.4873
12.552	3.4940
12.522	3.4959
12.492	3.4935
12.462	3.4892
12.432	3.4847
12.402	3.4817
12.373	3.4810
12.343	3.4828
12.314	3.4864
12.285	3.4916
12.256	3.4975
12.227	3.5037
12.198	3.5098
12.169	3.5158
12.141	3.5219
12.113	3.5281
12.084	3.5352
12.056	3.5435
12.028	3.5537
12.000	3.5657
11.973	3.5797
11.945	3.5951
11.918	3.6107
11.890	3.6256
11.863	3.6389
11.836	3.6505
11.809	3.6598
11.782	3.6673
11.755	3.6737
11.729	3.6792
11.702	3.6841
11.676	3.6886
11.650	3.6915
11.624	3.6924
11.598	3.6912
11.572	3.6879
11.546	3.6832
11.520	3.6789
11.495	3.6768
11.469	3.6782
11.444	3.6834
11.419	3.6924
11.394	3.7040
11.369	3.7173
11.344	3.7306
11.319	3.7426
11.294	3.7531
11.270	3.7609
11.245	3.7651
11.221	3.7647
11.197	3.7587
11.173	3.7474
11.149	3.7313
11.125	3.7121
11.101	3.6927
11.077	3.6751
11.054	3.6621
11.030	3.6550
11.007	3.6541
10.983	3.6593
10.960	3.6692
10.937	3.6834
10.914	3.7014
10.891	3.7235
10.868	3.7507
10.846	3.7841
10.823	3.8248
10.800	3.8738
10.778	3.9304
10.755	3.9937
10.733	4.0612
10.711	4.1310
10.689	4.2011
10.667	4.2703
10.645	4.3378
10.623	4.4041
10.602	4.4685
10.580	4.5305
10.558	4.5888
10.537	4.6414
10.516	4.6854
10.494	4.7195
10.473	4.7422
10.452	4.7534
10.431	4.7534
10.410	4.7432
10.389	4.7242
10.368	4.6972
10.348	4.6643
10.327	4.6271
10.306	4.5888
10.286	4.5530
10.266	4.5229
10.245	4.5014
10.225	4.4898
10.205	4.4879
10.185	4.4938
10.165	4.5045
10.145	4.5170
10.125	4.5286
10.106	4.5379
10.086	4.5443
10.066	4.5485
10.047	4.5509
10.027	4.5509
10.008	4.5476
9.9887	4.5400
9.9695	4.5270
9.9504	4.5085
9.9313	4.4865
9.9123	4.4635
9.8934	4.4431
9.8746	4.4287
9.8558	4.4225
9.8371	4.4259
9.8185	4.4379
9.7999	4.4569
9.7814	4.4801
9.7630	4.5045
9.7447	4.5279
9.7264	4.5480
9.7082	4.5642
9.6900	4.5762
9.6719	4.5855
9.6539	4.5928
9.6360	4.6004
9.6181	4.6108
9.6003	4.6257
9.5825	4.6477
9.5649	4.6781
9.5472	4.7167
9.5297	4.7619
9.5122	4.8102
9.4948	4.8566
9.4774	4.8952
9.4601	4.9203
9.4429	4.9262
9.4257	4.9097
9.4086	4.8689
9.3916	4.8043
9.3746	4.7195
9.3577	4.6200
9.3408	4.5135
9.3240	4.4083
9.3073	4.3134
9.2906	4.2355
9.2740	4.1793
9.2574	4.1469
9.2409	4.1367
9.2245	4.1452
9.2081	4.1672
9.1918	4.1973
9.1755	4.2307
9.1593	4.2641
9.1431	4.2954
9.1270	4.3240
9.1110	4.3503
9.0950	4.3749
9.0791	4.3984
9.0632	4.4211
9.0474	4.4429
9.0316	4.4630
9.0159	4.4798
9.0003	4.4910
8.9847	4.4938
8.9691	4.4858
8.9536	4.4642
8.9382	4.4282
8.9228	4.3773
8.9075	4.3124
8.8922	4.2359
8.8770	4.1511
8.8618	4.0616
8.8467	3.9714
8.8316	3.8833
8.8166	3.7997
8.8016	3.7199
8.7867	3.6422
8.7718	3.5634
8.7570	3.4805
8.7422	3.3926
8.7275	3.3024
8.7129	3.2152
8.6982	3.1380
8.6837	3.0769
8.6692	3.0338
8.6547	3.0054
8.6403	2.9836
8.6259	2.9578
8.6116	2.9180
8.5973	2.8584
8.5830	2.7790
8.5688	2.6850
8.5547	2.5848
8.5406	2.4863
8.5266	2.3961
8.5126	2.3161
8.4986	2.2460
8.4847	2.1827
8.4708	2.1240
8.4570	2.0681
8.4432	2.0153
8.4295	1.9672
8.4158	1.9260
8.4022	1.8936
8.3886	1.8720
8.3750	1.8616
8.3615	1.8623
8.3481	1.8734
8.3347	1.8936
8.3213	1.9215
8.3079	1.9563
8.2946	1.9973
8.2814	2.0447
8.2682	2.0984
8.2550	2.1583
8.2419	2.2242
8.2288	2.2950
8.2158	2.3705
8.2028	2.4496
8.1898	2.5320
8.1769	2.6178
8.1640	2.7068
8.1512	2.7992
8.1384	2.8948
8.1256	2.9929
8.1129	3.0931
8.1002	3.1956
8.0876	3.3005
8.0750	3.4083
8.0624	3.5196
8.0499	3.6344
8.0374	3.7523
8.0250	3.8729
8.0126	3.9956
8.0002	4.1196
7.9879	4.2456
7.9756	4.3735
7.9634	4.5031
7.9512	4.6340
7.9390	4.7654
7.9268	4.8969
7.9147	5.0276
7.9027	5.1586
7.8906	5.2900
7.8786	5.4231
7.8667	5.5578
7.8548	5.6940
7.8429	5.8309
7.8310	5.9680
7.8192	6.1051
7.8075	6.2425
7.7957	6.3812
7.7840	6.5212
7.7723	6.6623
7.7607	6.8032
7.7491	6.9425
7.7375	7.0784
7.7260	7.2103
7.7145	7.3387
7.7031	7.4644
7.6916	7.5895
7.6802	7.7145
7.6689	7.8400
7.6575	7.9658
7.6462	8.0906
7.6350	8.2135
7.6238	8.3345
7.6126	8.4541
7.6014	8.5730
7.5903	8.6926
7.5792	8.8138
7.5681	8.9377
7.5571	9.0634
7.5461	9.1903
7.5351	9.3175
7.5242	9.4433
7.5133	9.5666
7.5024	9.6874
7.4916	9.8054
7.4807	9.9209
7.4700	10.035
7.4592	10.149
7.4485	10.262
7.4378	10.376
7.4272	10.489
7.4165	10.604
7.4059	10.719
7.3954	10.835
7.3848	10.954
7.3743	11.076
7.3639	11.200
7.3534	11.325
7.3430	11.450
7.3326	11.572
7.3222	11.691
7.3119	11.806
7.3016	11.917
7.2914	12.025
7.2811	12.131
7.2709	12.237
7.2607	12.343
7.2506	12.448
7.2404	12.552
7.2303	12.653
7.2203	12.752
7.2102	12.846
7.2002	12.936
7.1902	13.024
7.1803	13.109
7.1703	13.195
7.1604	13.282
7.1506	13.372
7.1407	13.466
7.1309	13.562
7.1211	13.660
7.1113	13.756
7.1016	13.850
7.0919	13.940
7.0822	14.026
7.0725	14.112
7.0629	14.199
7.0533	14.291
7.0437	14.389
7.0341	14.493
7.0246	14.599
7.0151	14.706
7.0056	14.809
6.9962	14.908
6.9867	15.004
6.9773	15.101
6.9679	15.200
6.9586	15.306
6.9493	15.418
6.9400	15.533
6.9307	15.646
6.9214	15.755
6.9122	15.855
6.9030	15.946
6.8938	16.030
6.8847	16.112
6.8755	16.197
6.8664	16.288
6.8573	16.385
6.8483	16.490
6.8393	16.596
6.8302	16.700
6.8213	16.799
6.8123	16.891
6.8034	16.978
6.7944	17.064
6.7855	17.151
6.7767	17.241
6.7678	17.331
6.7590	17.418
6.7502	17.498
6.7414	17.568
6.7327	17.628
6.7239	17.679
6.7152	17.723
6.7065	17.761
6.6979	17.794
6.6892	17.818
6.6806	17.831
6.6720	17.828
6.6634	17.811
6.6549	17.782
6.6464	17.745
6.6378	17.706
6.6294	17.667
6.6209	17.629
6.6124	17.587
6.6040	17.538
6.5956	17.480
6.5872	17.414
6.5789	17.346
6.5705	17.280
6.5622	17.218
6.5539	17.158
6.5456	17.095
6.5374	17.021
6.5292	16.931
6.5209	16.824
6.5128	16.708
6.5046	16.592
6.4964	16.487
6.4883	16.401
6.4802	16.334
6.4721	16.279
6.4640	16.225
6.4560	16.160
6.4480	16.078
6.4399	15.978
6.4320	15.868
6.4240	15.760
6.4160	15.665
6.4081	15.588
6.4002	15.530
6.3923	15.484
6.3844	15.444
6.3766	15.402
6.3687	15.357
6.3609	15.313
6.3531	15.275
6.3454	15.249
6.3376	15.239
6.3299	15.245
6.3221	15.264
6.3144	15.290
6.3068	15.318
6.2991	15.346
6.2914	15.371
6.2838	15.394
6.2762	15.417
6.2686	15.439
6.2611	15.463
6.2535	15.487
6.2460	15.509
6.2385	15.531
6.2310	15.548
6.2235	15.559
6.2160	15.564
6.2086	15.563
6.2011	15.557
6.1937	15.549
6.1863	15.540
6.1790	15.534
6.1716	15.531
6.1643	15.530
6.1570	15.527
6.1496	15.520
6.1424	15.509
6.1351	15.494
6.1278	15.479
6.1206	15.469
6.1134	15.466
6.1062	15.472
6.0990	15.483
6.0918	15.494
6.0847	15.500
6.0776	15.502
6.0704	15.500
6.0633	15.505
6.0563	15.522
6.0492	15.558
6.0421	15.614
6.0351	15.683
6.0281	15.756
6.0211	15.822
6.0141	15.874
6.0071	15.909
6.0002	15.927
5.9932	15.934
5.9863	15.935
5.9794	15.933
5.9725	15.931
5.9657	15.931
5.9588	15.934
5.9520	15.944
5.9451	15.962
5.9383	15.990
5.9315	16.024
5.9247	16.060
5.9180	16.092
5.9112	16.117
5.9045	16.137
5.8978	16.157
5.8911	16.186
5.8844	16.232
5.8777	16.297
5.8711	16.379
5.8644	16.468
5.8578	16.553
5.8512	16.627
5.8446	16.685
5.8380	16.730
5.8314	16.768
5.8249	16.809
5.8184	16.855
5.8118	16.909
5.8053	16.967
5.7988	17.024
5.7923	17.074
5.7859	17.119
5.7794	17.160
5.7730	17.204
5.7666	17.257
5.7602	17.322
5.7538	17.398
5.7474	17.483
5.7410	17.570
5.7347	17.656
5.7283	17.739
5.7220	17.820
5.7157	17.900
5.7094	17.981
5.7031	18.065
5.6969	18.149
5.6906	18.230
5.6844	18.305
5.6782	18.372
5.6719	18.430
5.6657	18.483
5.6596	18.536
5.6534	18.593
5.6472	18.660
5.6411	18.739
5.6349	18.829
5.6288	18.928
5.6227	19.031
5.6166	19.133
5.6106	19.231
5.6045	19.325
5.5984	19.416
5.5924	19.508
5.5864	19.605
5.5804	19.710
5.5744	19.825
5.5684	19.949
5.5624	20.081
5.5564	20.220
5.5505	20.362
5.5445	20.507
5.5386	20.653
5.5327	20.799
5.5268	20.945
5.5209	21.087
5.5151	21.227
5.5092	21.362
5.5033	21.493
5.4975	21.619
5.4917	21.743
5.4859	21.866
5.4801	21.990
5.4743	22.117
5.4685	22.247
5.4628	22.375
5.4570	22.500
5.4513	22.614
5.4455	22.714
5.4398	22.799
5.4341	22.869
5.4284	22.927
5.4228	22.975
5.4171	23.017
5.4114	23.052
5.4058	23.082
5.4002	23.105
5.3945	23.118
5.3889	23.120
5.3833	23.111
5.3778	23.090
5.3722	23.059
5.3666	23.021
5.3611	22.980
5.3555	22.940
5.3500	22.905
5.3445	22.879
5.3390	22.863
5.3335	22.856
5.3280	22.855
5.3225	22.857
5.3171	22.860
5.3116	22.861
5.3062	22.861
5.3008	22.860
5.2954	22.859
5.2900	22.859
5.2846	22.861
5.2792	22.866
5.2738	22.872
5.2684	22.879
5.2631	22.887
5.2578	22.897
5.2524	22.909
5.2471	22.923
5.2418	22.941
5.2365	22.962
5.2312	22.988
5.2260	23.019
5.2207	23.057
5.2154	23.103
5.2102	23.159
5.2050	23.225
5.1998	23.302
5.1945	23.388
5.1893	23.481
5.1842	23.579
5.1790	23.681
5.1738	23.787
5.1686	23.895
5.1635	24.007
5.1584	24.123
5.1532	24.243
5.1481	24.367
5.1430	24.492
5.1379	24.617
5.1328	24.739
5.1277	24.856
5.1227	24.966
5.1176	25.068
5.1126	25.161
5.1075	25.247
5.1025	25.325
5.0975	25.396
5.0925	25.462
5.0875	25.522
5.0825	25.579
5.0775	25.633
5.0726	25.686
5.0676	25.737
5.0627	25.787
5.0577	25.836
5.0528	25.881
5.0479	25.922
5.0430	25.959
5.0380	25.992
5.0332	26.023
5.0283	26.054
5.0234	26.086
5.0185	26.120
5.0137	26.156
5.0088	26.192
5.0040	26.225
4.9992	26.252
4.9944	26.272
4.9896	26.282
4.9848	26.282
4.9800	26.272
4.9752	26.254
4.9704	26.231
4.9657	26.205
4.9609	26.182
4.9562	26.165
4.9514	26.158
4.9467	26.166
4.9420	26.191
4.9373	26.234
4.9326	26.297
4.9279	26.379
4.9232	26.480
4.9186	26.597
4.9139	26.728
4.9092	26.868
4.9046	27.014
4.9000	27.164
4.8953	27.312
4.8907	27.459
4.8861	27.603
4.8815	27.744
4.8769	27.887
4.8723	28.034
4.8678	28.191
4.8632	28.362
4.8586	28.552
4.8541	28.762
4.8495	28.990
4.8450	29.234
4.8405	29.487
4.8360	29.743
4.8315	29.997
4.8270	30.244
4.8225	30.481
4.8180	30.708
4.8135	30.926
4.8090	31.136
4.8046	31.341
4.8001	31.544
4.7957	31.748
4.7913	31.956
4.7868	32.172
4.7824	32.399
4.7780	32.641
4.7736	32.899
4.7692	33.175
4.7648	33.467
4.7605	33.776
4.7561	34.097
4.7517	34.425
4.7474	34.757
4.7431	35.089
4.7387	35.417
4.7344	35.737
4.7301	36.048
4.7258	36.349
4.7215	36.637
4.7172	36.913
4.7129	37.178
4.7086	37.430
4.7043	37.673
4.7000	37.906
4.6958	38.130
4.6915	38.348
4.6873	38.560
4.6831	38.766
4.6788	38.965
4.6746	39.159
4.6704	39.346
4.6662	39.525
4.6620	39.695
4.6578	39.858
4.6536	40.013
4.6495	40.161
4.6453	40.306
4.6411	40.449
4.6370	40.593
4.6328	40.740
4.6287	40.895
4.6246	41.059
4.6205	41.236
4.6163	41.429
4.6122	41.639
4.6081	41.868
4.6040	42.116
4.6000	42.382
4.5959	42.664
4.5918	42.960
4.5877	43.266
4.5837	43.579
4.5796	43.896
4.5756	44.212
4.5716	44.524
4.5675	44.831
4.5635	45.132
4.5595	45.427
4.5555	45.718
4.5515	46.003
4.5475	46.284
4.5435	46.560
4.5395	46.830
4.5356	47.093
4.5316	47.349
4.5276	47.599
4.5237	47.842
4.5197	48.082
4.5158	48.319
4.5119	48.552
4.5080	48.783
4.5040	49.008
4.5001	49.227
4.4962	49.440
4.4923	49.645
4.4884	49.844
4.4846	50.037
4.4807	50.226
4.4768	50.411
4.4730	50.594
4.4691	50.775
4.4652	50.954
4.4614	51.129
4.4576	51.300
4.4537	51.467
4.4499	51.627
4.4461	51.781
4.4423	51.929
4.4385	52.071
4.4347	52.206
4.4309	52.336
4.4271	52.461
4.4233	52.581
4.4196	52.696
4.4158	52.807
4.4120	52.913
4.4083	53.016
4.4045	53.115
4.4008	53.211
4.3971	53.305
4.3934	53.397
4.3896	53.486
4.3859	53.575
4.3822	53.661
4.3785	53.745
4.3748	53.827
4.3711	53.908
4.3674	53.987
4.3638	54.065
4.3601	54.141
4.3564	54.218
4.3528	54.293
4.3491	54.368
4.3455	54.441
4.3418	54.512
4.3382	54.581
4.3346	54.648
4.3310	54.713
4.3273	54.777
4.3237	54.839
4.3201	54.900
4.3165	54.960
4.3129	55.019
4.3094	55.076
4.3058	55.133
4.3022	55.189
4.2986	55.244
4.2951	55.298
4.2915	55.350
4.2880	55.402
4.2844	55.454
4.2809	55.507
4.2774	55.562
4.2738	55.617
4.2703	55.674
4.2668	55.731
4.2633	55.786
4.2598	55.839
4.2563	55.890
4.2528	55.939
4.2493	55.987
4.2458	56.034
4.2424	56.083
4.2389	56.133
4.2354	56.185
4.2320	56.238
4.2285	56.290
4.2251	56.342
4.2216	56.393
4.2182	56.441
4.2148	56.489
4.2113	56.537
4.2079	56.586
4.2045	56.636
4.2011	56.688
4.1977	56.739
4.1943	56.790
4.1909	56.838
4.1875	56.884
4.1841	56.928
4.1808	56.970
4.1774	57.012
4.1740	57.054
4.1707	57.098
4.1673	57.143
4.1640	57.189
4.1606	57.236
4.1573	57.282
4.1540	57.328
4.1506	57.372
4.1473	57.415
4.1440	57.456
4.1407	57.494
4.1374	57.530
4.1341	57.564
4.1308	57.598
4.1275	57.631
4.1242	57.664
4.1209	57.698
4.1177	57.732
4.1144	57.765
4.1111	57.797
4.1079	57.829
4.1046	57.860
4.1014	57.891
4.0981	57.922
4.0949	57.953
4.0917	57.982
4.0884	58.009
4.0852	58.033
4.0820	58.052
4.0788	58.069
4.0756	58.083
4.0724	58.096
4.0692	58.109
4.0660	58.122
4.0628	58.135
4.0596	58.149
4.0565	58.161
4.0533	58.174
4.0501	58.185
4.0470	58.194
4.0438	58.200
4.0406	58.201
4.0375	58.198
4.0344	58.190
4.0312	58.177
4.0281	58.160
4.0250	58.143
4.0218	58.127
4.0187	58.115
4.0156	58.108
4.0125	58.107
4.0094	58.111
4.0063	58.121
4.0032	58.135
4.0001	58.151
3.9970	58.169
3.9940	58.188
3.9909	58.207
3.9878	58.225
3.9847	58.243
3.9817	58.259
3.9786	58.273
3.9756	58.288
3.9725	58.304
3.9695	58.320
3.9665	58.338
3.9634	58.357
3.9604	58.374
3.9574	58.389
3.9544	58.402
3.9513	58.411
3.9483	58.418
3.9453	58.423
3.9423	58.427
3.9393	58.430
3.9363	58.431
3.9333	58.429
3.9304	58.425
3.9274	58.418
3.9244	58.410
3.9214	58.401
3.9185	58.394
3.9155	58.388
3.9126	58.384
3.9096	58.379
3.9067	58.374
3.9037	58.368
3.9008	58.361
3.8979	58.351
3.8949	58.339
3.8920	58.324
3.8891	58.306
3.8862	58.286
3.8833	58.265
3.8804	58.243
3.8775	58.222
3.8746	58.202
3.8717	58.183
3.8688	58.163
3.8659	58.140
3.8630	58.115
3.8601	58.085
3.8573	58.053
3.8544	58.019
3.8515	57.984
3.8487	57.950
3.8458	57.919
3.8430	57.891
3.8401	57.865
3.8373	57.841
3.8344	57.817
3.8316	57.793
3.8288	57.769
3.8259	57.743
3.8231	57.717
3.8203	57.689
3.8175	57.659
3.8147	57.626
3.8119	57.591
3.8091	57.554
3.8063	57.516
3.8035	57.478
3.8007	57.441
3.7979	57.406
3.7951	57.372
3.7924	57.340
3.7896	57.307
3.7868	57.273
3.7841	57.236
3.7813	57.196
3.7785	57.153
3.7758	57.107
3.7730	57.059
3.7703	57.012
3.7676	56.965
3.7648	56.920
3.7621	56.876
3.7594	56.833
3.7566	56.791
3.7539	56.746
3.7512	56.700
3.7485	56.650
3.7458	56.597
3.7431	56.541
3.7404	56.481
3.7377	56.421
3.7350	56.360
3.7323	56.300
3.7296	56.242
3.7269	56.186
3.7242	56.133
3.7216	56.082
3.7189	56.032
3.7162	55.983
3.7136	55.934
3.7109	55.885
3.7083	55.834
3.7056	55.782
3.7030	55.728
3.7003	55.673
3.6977	55.618
3.6950	55.563
3.6924	55.510
3.6898	55.460
3.6872	55.413
3.6845	55.368
3.6819	55.324
3.6793	55.279
3.6767	55.231
3.6741	55.180
3.6715	55.123
3.6689	55.062
3.6663	54.996
3.6637	54.927
3.6611	54.857
3.6585	54.786
3.6560	54.717
3.6534	54.648
3.6508	54.581
3.6482	54.512
3.6457	54.442
3.6431	54.369
3.6406	54.293
3.6380	54.213
3.6355	54.130
3.6329	54.046
3.6304	53.960
3.6278	53.875
3.6253	53.790
3.6227	53.708
3.6202	53.628
3.6177	53.551
3.6152	53.475
3.6127	53.400
3.6101	53.325
3.6076	53.247
3.6051	53.167
3.6026	53.083
3.6001	52.995
3.5976	52.903
3.5951	52.805
3.5926	52.702
3.5901	52.593
3.5876	52.480
3.5852	52.363
3.5827	52.243
3.5802	52.121
3.5777	51.999
3.5753	51.877
3.5728	51.756
3.5704	51.638
3.5679	51.524
3.5654	51.416
3.5630	51.316
3.5605	51.223
3.5581	51.137
3.5557	51.056
3.5532	50.975
3.5508	50.892
3.5484	50.805
3.5459	50.712
3.5435	50.614
3.5411	50.513
3.5387	50.409
3.5363	50.302
3.5338	50.191
3.5314	50.075
3.5290	49.955
3.5266	49.831
3.5242	49.707
3.5218	49.584
3.5195	49.465
3.5171	49.348
3.5147	49.231
3.5123	49.111
3.5099	48.988
3.5075	48.862
3.5052	48.736
3.5028	48.616
3.5004	48.507
3.4981	48.414
3.4957	48.337
3.4934	48.276
3.4910	48.225
3.4887	48.180
3.4863	48.136
3.4840	48.088
3.4816	48.033
3.4793	47.971
3.4770	47.901
3.4746	47.822
3.4723	47.737
3.4700	47.645
3.4677	47.549
3.4653	47.450
3.4630	47.349
3.4607	47.247
3.4584	47.145
3.4561	47.041
3.4538	46.935
3.4515	46.826
3.4492	46.715
3.4469	46.606
3.4446	46.499
3.4423	46.398
3.4400	46.305
3.4378	46.217
3.4355	46.133
3.4332	46.047
3.4309	45.956
3.4287	45.856
3.4264	45.745
3.4241	45.625
3.4219	45.498
3.4196	45.369
3.4174	45.243
3.4151	45.124
3.4129	45.015
3.4106	44.919
3.4084	44.835
3.4061	44.759
3.4039	44.686
3.4017	44.611
3.3994	44.529
3.3972	44.435
3.3950	44.327
3.3928	44.207
3.3906	44.079
3.3883	43.946
3.3861	43.812
3.3839	43.682
3.3817	43.556
3.3795	43.434
3.3773	43.315
3.3751	43.198
3.3729	43.081
3.3707	42.964
3.3685	42.849
3.3663	42.736
3.3641	42.626
3.3620	42.520
3.3598	42.418
3.3576	42.317
3.3554	42.215
3.3533	42.110
3.3511	42.000
3.3489	41.885
3.3468	41.765
3.3446	41.641
3.3425	41.517
3.3403	41.392
3.3382	41.266
3.3360	41.139
3.3339	41.008
3.3317	40.873
3.3296	40.732
3.3274	40.586
3.3253	40.438
3.3232	40.287
3.3210	40.136
3.3189	39.984
3.3168	39.832
3.3147	39.679
3.3126	39.523
3.3104	39.364
3.3083	39.202
3.3062	39.037
3.3041	38.869
3.3020	38.699
3.2999	38.527
3.2978	38.357
3.2957	38.188
3.2936	38.023
3.2915	37.861
3.2894	37.701
3.2874	37.543
3.2853	37.386
3.2832	37.228
3.2811	37.069
3.2790	36.911
3.2770	36.756
3.2749	36.602
3.2728	36.450
3.2708	36.299
3.2687	36.147
3.2666	35.993
3.2646	35.837
3.2625	35.678
3.2605	35.518
3.2584	35.357
3.2564	35.197
3.2543	35.037
3.2523	34.877
3.2503	34.715
3.2482	34.551
3.2462	34.386
3.2442	34.218
3.2421	34.048
3.2401	33.874
3.2381	33.697
3.2361	33.513
3.2340	33.323
3.2320	33.125
3.2300	32.921
3.2280	32.713
3.2260	32.503
3.2240	32.295
3.2220	32.088
3.2200	31.883
3.2180	31.678
3.2160	31.471
3.2140	31.262
3.2120	31.049
3.2100	30.835
3.2080	30.622
3.2060	30.413
3.2040	30.210
3.2021	30.011
3.2001	29.815
3.1981	29.620
3.1961	29.423
3.1942	29.221
3.1922	29.013
3.1902	28.801
3.1883	28.585
3.1863	28.369
3.1844	28.155
3.1824	27.945
3.1805	27.740
3.1785	27.542
3.1766	27.349
3.1746	27.160
3.1727	26.972
3.1707	26.783
3.1688	26.591
3.1669	26.395
3.1649	26.192
3.1630	25.985
3.1611	25.773
3.1591	25.558
3.1572	25.340
3.1553	25.123
3.1534	24.907
3.1515	24.697
3.1495	24.490
3.1476	24.287
3.1457	24.084
3.1438	23.879
3.1419	23.669
3.1400	23.455
3.1381	23.238
3.1362	23.021
3.1343	22.808
3.1324	22.601
3.1305	22.398
3.1286	22.200
3.1268	22.003
3.1249	21.805
3.1230	21.604
3.1211	21.400
3.1192	21.194
3.1174	20.987
3.1155	20.782
3.1136	20.580
3.1117	20.381
3.1099	20.183
3.1080	19.988
3.1061	19.794
3.1043	19.602
3.1024	19.413
3.1006	19.228
3.0987	19.047
3.0969	18.869
3.0950	18.694
3.0932	18.522
3.0913	18.349
3.0895	18.178
3.0876	18.009
3.0858	17.842
3.0840	17.678
3.0821	17.519
3.0803	17.363
3.0785	17.210
3.0766	17.058
3.0748	16.909
3.0730	16.763
3.0712	16.621
3.0694	16.484
3.0675	16.351
3.0657	16.220
3.0639	16.090
3.0621	15.960
3.0603	15.828
3.0585	15.695
3.0567	15.564
3.0549	15.438
3.0531	15.317
3.0513	15.202
3.0495	15.091
3.0477	14.981
3.0459	14.870
3.0441	14.754
3.0423	14.633
3.0406	14.505
3.0388	14.373
3.0370	14.238
3.0352	14.103
3.0334	13.969
3.0317	13.837
3.0299	13.709
3.0281	13.582
3.0264	13.456
3.0246	13.328
3.0228	13.196
3.0211	13.059
3.0193	12.915
3.0176	12.765
3.0158	12.613
3.0140	12.462
3.0123	12.314
3.0105	12.173
3.0088	12.037
3.0070	11.907
3.0053	11.780
3.0036	11.656
3.0018	11.534
3.0001	11.415
2.9984	11.304
2.9966	11.200
2.9949	11.106
2.9932	11.020
2.9914	10.941
2.9897	10.866
2.9880	10.794
2.9863	10.725
2.9845	10.659
2.9828	10.597
2.9811	10.540
2.9794	10.486
2.9777	10.433
2.9760	10.382
2.9743	10.329
2.9726	10.275
2.9709	10.223
2.9692	10.172
2.9675	10.126
2.9658	10.085
2.9641	10.050
2.9624	10.022
2.9607	9.9986
2.9590	9.9811
2.9573	9.9695
2.9556	9.9638
2.9539	9.9640
2.9523	9.9695
2.9506	9.9780
2.9489	9.9877
2.9472	9.9960
2.9455	10.001
2.9439	10.005
2.9422	10.007
2.9405	10.011
2.9389	10.019
2.9372	10.032
2.9355	10.048
2.9339	10.066
2.9322	10.082
2.9306	10.095
2.9289	10.104
2.9272	10.111
2.9256	10.118
2.9239	10.130
2.9223	10.152
2.9207	10.184
2.9190	10.227
2.9174	10.278
2.9157	10.334
2.9141	10.391
2.9124	10.445
2.9108	10.496
2.9092	10.546
2.9075	10.597
2.9059	10.653
2.9043	10.715
2.9027	10.784
2.9010	10.856
2.8994	10.930
2.8978	11.001
2.8962	11.065
2.8946	11.122
2.8929	11.171
2.8913	11.212
2.8897	11.247
2.8881	11.277
2.8865	11.303
2.8849	11.327
2.8833	11.347
2.8817	11.364
2.8801	11.377
2.8785	11.388
2.8769	11.396
2.8753	11.401
2.8737	11.406
2.8721	11.411
2.8705	11.416
2.8689	11.422
2.8673	11.428
2.8658	11.435
2.8642	11.443
2.8626	11.454
2.8610	11.467
2.8594	11.482
2.8579	11.499
2.8563	11.515
2.8547	11.526
2.8531	11.528
2.8516	11.519
2.8500	11.498
2.8484	11.469
2.8469	11.433
2.8453	11.396
2.8437	11.359
2.8422	11.324
2.8406	11.287
2.8391	11.246
2.8375	11.200
2.8360	11.146
2.8344	11.088
2.8329	11.027
2.8313	10.967
2.8298	10.910
2.8282	10.856
2.8267	10.807
2.8252	10.760
2.8236	10.714
2.8221	10.670
2.8205	10.626
2.8190	10.583
2.8175	10.541
2.8159	10.501
2.8144	10.463
2.8129	10.429
2.8114	10.401
2.8098	10.381
2.8083	10.370
2.8068	10.372
2.8053	10.387
2.8038	10.417
2.8022	10.463
2.8007	10.526
2.7992	10.607
2.7977	10.707
2.7962	10.827
2.7947	10.967
2.7932	11.127
2.7917	11.309
2.7902	11.513
2.7887	11.742
2.7872	11.995
2.7857	12.272
2.7842	12.571
2.7827	12.890
2.7812	13.227
2.7797	13.580
2.7782	13.944
2.7767	14.314
2.7752	14.682
2.7738	15.036
2.7723	15.364
2.7708	15.660
2.7693	15.922
2.7678	16.154
2.7664	16.365
2.7649	16.563
2.7634	16.747
2.7619	16.911
2.7605	17.043
2.7590	17.136
2.7575	17.194
2.7561	17.233
2.7546	17.282
2.7531	17.364
2.7517	17.492
2.7502	17.660
2.7488	17.847
2.7473	18.029
2.7458	18.192
2.7444	18.339
2.7429	18.495
2.7415	18.690
2.7400	18.949
2.7386	19.281
2.7371	19.672
2.7357	20.094
2.7343	20.519
2.7328	20.929
2.7314	21.324
2.7299	21.721
2.7285	22.147
2.7271	22.632
2.7256	23.199
2.7242	23.859
2.7228	24.618
2.7213	25.473
2.7199	26.424
2.7185	27.480
2.7171	28.655
2.7156	29.972
2.7142	31.453
2.7128	33.109
2.7114	34.924
2.7100	36.852
2.7085	38.815
2.7071	40.721
2.7057	42.474
2.7043	44.008
2.7029	45.292
2.7015	46.341
2.7001	47.202
2.6987	47.944
2.6973	48.633
2.6959	49.321
2.6945	50.034
2.6931	50.771
2.6917	51.517
2.6903	52.244
2.6889	52.925
2.6875	53.540
2.6861	54.077
2.6847	54.538
2.6833	54.931
2.6819	55.271
2.6805	55.572
2.6791	55.845
2.6778	56.095
2.6764	56.321
2.6750	56.519
2.6736	56.685
2.6722	56.824
2.6709	56.946
2.6695	57.069
2.6681	57.214
2.6667	57.391
2.6654	57.603
2.6640	57.838
2.6626	58.077
2.6613	58.298
2.6599	58.485
2.6585	58.632
2.6572	58.741
2.6558	58.822
2.6545	58.887
2.6531	58.946
2.6517	59.003
2.6504	59.059
2.6490	59.113
2.6477	59.167
2.6463	59.222
2.6450	59.281
2.6436	59.346
2.6423	59.417
2.6409	59.488
2.6396	59.549
2.6382	59.589
2.6369	59.599
2.6356	59.580
2.6342	59.539
2.6329	59.490
2.6315	59.452
2.6302	59.439
2.6289	59.456
2.6275	59.498
2.6262	59.549
2.6249	59.592
2.6236	59.613
2.6222	59.609
2.6209	59.587
2.6196	59.565
2.6183	59.559
2.6169	59.577
2.6156	59.616
2.6143	59.659
2.6130	59.690
2.6117	59.693
2.6103	59.667
2.6090	59.624
2.6077	59.584
2.6064	59.565
2.6051	59.577
2.6038	59.614
2.6025	59.653
2.6012	59.673
2.5999	59.655
2.5986	59.602
2.5973	59.532
2.5960	59.471
2.5947	59.446
2.5934	59.468
2.5921	59.531
2.5908	59.614
2.5895	59.693
2.5882	59.752
2.5869	59.788
2.5856	59.811
2.5843	59.834
2.5830	59.868
2.5817	59.916
2.5805	59.970
2.5792	60.019
2.5779	60.055
2.5766	60.079
2.5753	60.096
2.5741	60.117
2.5728	60.150
2.5715	60.194
2.5702	60.244
2.5690	60.289
2.5677	60.322
2.5664	60.341
2.5651	60.353
2.5639	60.370
2.5626	60.404
2.5613	60.459
2.5601	60.534
2.5588	60.617
2.5575	60.693
2.5563	60.751
2.5550	60.784
2.5538	60.795
2.5525	60.792
2.5513	60.786
2.5500	60.784
2.5487	60.792
2.5475	60.811
2.5462	60.837
2.5450	60.867
2.5437	60.898
2.5425	60.926
2.5413	60.952
2.5400	60.975
2.5388	60.994
2.5375	61.010
2.5363	61.026
2.5350	61.041
2.5338	61.057
2.5326	61.073
2.5313	61.090
2.5301	61.105
2.5289	61.117
2.5276	61.124
2.5264	61.127
2.5252	61.129
2.5239	61.133
2.5227	61.142
2.5215	61.157
2.5202	61.178
2.5190	61.203
2.5178	61.226
2.5166	61.246
2.5154	61.260
2.5141	61.269
2.5129	61.273
2.5117	61.276
2.5105	61.281
2.5093	61.287
2.5081	61.297
2.5068	61.306
2.5056	61.315
2.5044	61.322
2.5032	61.326
2.5020	61.328
2.5008	61.330
2.4996	61.333
2.4984	61.339
2.4972	61.348
2.4960	61.358
2.4948	61.368
2.4936	61.378
2.4924	61.388
2.4912	61.399
2.4900	61.415
2.4888	61.437
2.4876	61.466
2.4864	61.501
2.4852	61.541
2.4840	61.583
2.4828	61.626
2.4816	61.672
2.4805	61.722
2.4793	61.778
2.4781	61.840
2.4769	61.908
2.4757	61.978
2.4745	62.046
2.4734	62.110
2.4722	62.169
2.4710	62.224
2.4698	62.279
2.4686	62.337
2.4675	62.399
2.4663	62.467
2.4651	62.541
2.4640	62.618
2.4628	62.697
2.4616	62.776
2.4604	62.854
2.4593	62.931
2.4581	63.006
2.4569	63.079
2.4558	63.150
2.4546	63.219
2.4535	63.286
2.4523	63.351
2.4511	63.415
2.4500	63.478
2.4488	63.542
2.4477	63.604
2.4465	63.664
2.4454	63.720
2.4442	63.770
2.4431	63.814
2.4419	63.854
2.4408	63.892
2.4396	63.931
2.4385	63.970
2.4373	64.010
2.4362	64.048
2.4350	64.079
2.4339	64.101
2.4327	64.113
2.4316	64.117
2.4305	64.115
2.4293	64.112
2.4282	64.107
2.4270	64.101
2.4259	64.090
2.4248	64.072
2.4236	64.045
2.4225	64.009
2.4214	63.967
2.4202	63.919
2.4191	63.868
2.4180	63.813
2.4169	63.750
2.4157	63.678
2.4146	63.595
2.4135	63.503
2.4124	63.403
2.4112	63.300
2.4101	63.196
2.4090	63.094
2.4079	62.993
2.4068	62.893
2.4056	62.791
2.4045	62.687
2.4034	62.584
2.4023	62.483
2.4012	62.386
2.4001	62.296
2.3990	62.211
2.3979	62.132
2.3967	62.058
2.3956	61.988
2.3945	61.923
2.3934	61.866
2.3923	61.817
2.3912	61.777
2.3901	61.742
2.3890	61.709
2.3879	61.672
2.3868	61.625
2.3857	61.565
2.3846	61.490
2.3835	61.400
2.3824	61.296
2.3813	61.180
2.3802	61.052
2.3791	60.912
2.3781	60.760
2.3770	60.592
2.3759	60.405
2.3748	60.198
2.3737	59.969
2.3726	59.716
2.3715	59.442
2.3704	59.146
2.3694	58.833
2.3683	58.505
2.3672	58.166
2.3661	57.819
2.3650	57.469
2.3640	57.118
2.3629	56.768
2.3618	56.422
2.3607	56.082
2.3597	55.750
2.3586	55.429
2.3575	55.126
2.3564	54.843
2.3554	54.586
2.3543	54.357
2.3532	54.158
2.3522	53.988
2.3511	53.846
2.3500	53.729
2.3490	53.634
2.3479	53.559
2.3468	53.503
2.3458	53.465
2.3447	53.445
2.3436	53.444
2.3426	53.461
2.3415	53.496
2.3405	53.550
2.3394	53.624
2.3384	53.716
2.3373	53.825
2.3363	53.949
2.3352	54.085
2.3342	54.229
2.3331	54.376
2.3321	54.525
2.3310	54.674
2.3300	54.824
2.3289	54.975
2.3279	55.127
2.3268	55.280
2.3258	55.436
2.3247	55.592
2.3237	55.749
2.3226	55.910
2.3216	56.073
2.3206	56.239
2.3195	56.408
2.3185	56.577
2.3175	56.744
2.3164	56.908
2.3154	57.070
2.3144	57.233
2.3133	57.398
2.3123	57.567
2.3113	57.738
2.3102	57.908
2.3092	58.074
2.3082	58.233
2.3071	58.386
2.3061	58.537
2.3051	58.690
2.3041	58.850
2.3030	59.020
2.3020	59.198
2.3010	59.381
2.3000	59.568
2.2990	59.755
2.2979	59.944
2.2969	60.136
2.2959	60.332
2.2949	60.531
2.2939	60.731
2.2929	60.926
2.2918	61.113
2.2908	61.285
2.2898	61.438
2.2888	61.573
2.2878	61.688
2.2868	61.786
2.2858	61.869
2.2848	61.941
2.2838	62.002
2.2828	62.055
2.2818	62.100
2.2808	62.137
2.2798	62.163
2.2787	62.176
2.2777	62.175
2.2767	62.158
2.2757	62.124
2.2747	62.073
2.2738	62.007
2.2728	61.930
2.2718	61.844
2.2708	61.750
2.2698	61.649
2.2688	61.540
2.2678	61.423
2.2668	61.297
2.2658	61.166
2.2648	61.031
2.2638	60.897
2.2628	60.770
2.2618	60.651
2.2609	60.542
2.2599	60.442
2.2589	60.351
2.2579	60.270
2.2569	60.203
2.2559	60.154
2.2550	60.129
2.2540	60.132
2.2530	60.168
2.2520	60.237
2.2510	60.340
2.2501	60.475
2.2491	60.644
2.2481	60.845
2.2471	61.077
2.2462	61.337
2.2452	61.622
2.2442	61.923
2.2433	62.233
2.2423	62.542
2.2413	62.840
2.2403	63.120
2.2394	63.375
2.2384	63.603
2.2374	63.803
2.2365	63.979
2.2355	64.134
2.2345	64.270
2.2336	64.392
2.2326	64.500
2.2317	64.596
2.2307	64.683
2.2297	64.765
2.2288	64.846
2.2278	64.934
2.2269	65.033
2.2259	65.150
2.2250	65.286
2.2240	65.437
2.2231	65.598
2.2221	65.760
2.2211	65.917
2.2202	66.065
2.2192	66.204
2.2183	66.338
2.2173	66.470
2.2164	66.606
2.2155	66.745
2.2145	66.886
2.2136	67.024
2.2126	67.156
2.2117	67.279
2.2107	67.394
2.2098	67.500
2.2088	67.600
2.2079	67.695
2.2070	67.786
2.2060	67.873
2.2051	67.957
2.2041	68.035
2.2032	68.108
2.2023	68.175
2.2013	68.234
2.2004	68.287
2.1995	68.336
2.1985	68.382
2.1976	68.430
2.1967	68.480
2.1957	68.535
2.1948	68.593
2.1939	68.652
2.1930	68.712
2.1920	68.772
2.1911	68.832
2.1902	68.895
2.1893	68.959
2.1883	69.024
2.1874	69.090
2.1865	69.151
2.1856	69.206
2.1846	69.251
2.1837	69.288
2.1828	69.317
2.1819	69.344
2.1810	69.370
2.1800	69.400
2.1791	69.433
2.1782	69.471
2.1773	69.509
2.1764	69.545
2.1755	69.575
2.1746	69.598
2.1736	69.613
2.1727	69.622
2.1718	69.629
2.1709	69.636
2.1700	69.647
2.1691	69.664
2.1682	69.683
2.1673	69.701
2.1664	69.715
2.1655	69.719
2.1646	69.715
2.1637	69.704
2.1628	69.693
2.1619	69.687
2.1610	69.690
2.1601	69.699
2.1592	69.713
2.1583	69.727
2.1574	69.737
2.1565	69.741
2.1556	69.741
2.1547	69.740
2.1538	69.743
2.1529	69.750
2.1520	69.762
2.1511	69.775
2.1502	69.784
2.1493	69.788
2.1484	69.785
2.1475	69.777
2.1466	69.767
2.1458	69.761
2.1449	69.760
2.1440	69.764
2.1431	69.769
2.1422	69.769
2.1413	69.758
2.1404	69.735
2.1396	69.701
2.1387	69.661
2.1378	69.622
2.1369	69.591
2.1360	69.569
2.1352	69.556
2.1343	69.548
2.1334	69.539
2.1325	69.527
2.1316	69.510
2.1308	69.489
2.1299	69.469
2.1290	69.453
2.1281	69.445
2.1273	69.447
2.1264	69.456
2.1255	69.469
2.1247	69.480
2.1238	69.484
2.1229	69.478
2.1220	69.465
2.1212	69.446
2.1203	69.427
2.1194	69.414
2.1186	69.409
2.1177	69.412
2.1168	69.423
2.1160	69.440
2.1151	69.461
2.1143	69.485
2.1134	69.508
2.1125	69.527
2.1117	69.541
2.1108	69.546
2.1100	69.544
2.1091	69.538
2.1082	69.534
2.1074	69.536
2.1065	69.546
2.1057	69.563
2.1048	69.582
2.1040	69.598
2.1031	69.607
2.1023	69.609
2.1014	69.606
2.1005	69.602
2.0997	69.600
2.0988	69.600
2.0980	69.603
2.0971	69.607
2.0963	69.609
2.0955	69.611
2.0946	69.616
2.0938	69.626
2.0929	69.642
2.0921	69.666
2.0912	69.692
2.0904	69.717
2.0895	69.735
2.0887	69.742
2.0879	69.737
2.0870	69.722
2.0862	69.695
2.0853	69.668
2.0845	69.631
2.0837	69.593
2.0828	69.589
2.0820	69.540
2.0812	69.585
2.0803	69.679
2.0795	69.569
2.0760	69.569
2.0720	69.474
2.0680	69.512
2.0640	69.701
2.0600	69.360
2.0560	69.228
2.0520	69.171
2.0480	69.001
2.0440	69.038
2.0400	68.888
2.0360	68.437
2.0320	67.972
2.0280	67.714
2.0240	67.395
2.0200	67.223
2.0160	67.075
2.0120	66.633
2.0080	66.247
2.0040	66.047
2.0000	66.087
1.9960	65.928
1.9920	65.796
1.9880	65.690
1.9840	65.690
1.9800	65.401
1.9760	65.244
1.9720	65.192
1.9680	65.141
1.9640	64.946
1.9600	65.008
1.9560	65.060
1.9520	64.824
1.9480	64.589
1.9440	64.589
1.9400	64.456
1.9360	64.570
1.9320	64.399
1.9280	64.292
1.9240	64.354
1.9200	64.261
1.9160	64.209
1.9120	64.209
1.9080	64.302
1.9040	64.399
1.9000	64.364
1.8960	64.040
1.8920	63.880
1.8880	63.829
1.8840	63.630
1.8800	63.830
1.8760	64.059
1.8720	64.118
1.8680	63.942
1.8640	63.789
1.8600	63.794
1.8560	63.648
1.8520	63.549
1.8480	63.425
1.8440	63.550
1.8400	63.870
1.8360	63.930
1.8320	63.820
1.8280	63.401
1.8240	63.006
1.8200	62.754
1.8160	62.526
1.8120	62.382
1.8080	62.513
1.8040	62.568
1.8000	62.388
1.7960	61.881
1.7920	61.886
1.7880	61.934
1.7840	62.023
1.7800	62.119
1.7760	61.576
1.7720	61.391
1.7680	61.335
1.7640	61.245
1.7600	61.076
1.7560	61.029
1.7520	60.622
1.7480	60.085
1.7440	60.223
1.7400	60.047
1.7360	60.194
1.7320	60.243
1.7280	60.246
1.7240	60.066
1.7200	59.973
1.7160	59.652
1.7120	59.788
1.7080	59.436
1.7040	59.201
1.7000	58.896
1.6960	58.852
1.6920	58.718
1.6880	58.450
1.6840	58.229
1.6800	58.217
1.6760	58.261
1.6720	58.181
1.6680	57.646
1.6640	57.333
1.6600	57.198
1.6560	56.843
1.6520	56.539
1.6480	56.668
1.6440	56.787
1.6400	56.436
1.6360	56.615
1.6320	56.744
1.6280	56.658
1.6240	56.214
1.6200	56.039
1.6160	55.692
1.6120	55.472
1.6080	55.188
1.6040	55.129
1.6000	54.991
1.5960	54.687
1.5920	54.542
1.5880	54.411
1.5840	54.362
1.5800	54.528
1.5760	54.103
1.5720	53.482
1.5680	53.053
1.5640	52.775
1.5600	52.402
1.5560	52.147
1.5520	52.125
1.5480	52.280
1.5440	51.885
1.5400	51.604
1.5360	51.951
1.5320	52.068
1.5280	51.839
1.5240	51.544
1.5200	51.301
1.5160	51.225
1.5120	51.161
1.5080	51.417
1.5040	51.289
1.5000	51.133
1.4960	50.754
1.4920	49.936
1.4880	49.698
1.4840	49.535
1.4800	49.120
1.4760	48.870
1.4720	48.745
1.4680	48.911
1.4640	48.877
1.4600	48.731
1.4560	48.605
1.4520	48.497
1.4480	48.211
1.4440	48.175
1.4400	48.093
1.4360	47.895
1.4320	47.876
1.4280	47.804
1.4240	47.428
1.4200	47.214
1.4160	46.765
1.4120	46.397
1.4080	46.176
1.4040	45.802
1.4000	44.990
1.3960	44.659
1.3920	44.345
1.3880	44.149
1.3840	44.026
1.3800	44.510
1.3760	44.859
1.3720	44.848
1.3680	44.618
1.3640	44.396
1.3600	44.244
1.3560	44.269
1.3520	44.054
1.3480	43.602
1.3440	43.450
1.3400	43.029
1.3360	42.736
1.3320	42.742
1.3280	42.714
1.3240	42.397
1.3200	42.328
1.3160	41.950
1.3120	41.741
1.3080	41.384
1.3040	41.058
1.3000	40.791
1.2960	40.612
1.2920	40.431
1.2880	40.220
1.2840	40.004
1.2800	40.024
1.2760	39.833
1.2720	39.469
1.2680	39.463
1.2640	39.254
1.2600	38.980
1.2560	38.560
1.2520	38.469
1.2480	38.259
1.2440	37.825
1.2400	37.652
1.2360	37.588
1.2320	37.433
1.2280	37.357
1.2240	37.070
1.2200	36.681
1.2160	36.551
1.2120	36.384
1.2080	36.102
1.2040	36.012
1.2000	35.921
1.1960	35.725
1.1920	35.381
1.1880	35.195
1.1840	34.991
1.1800	34.878
1.1760	34.628
1.1720	34.402
1.1680	34.313
1.1640	33.965
1.1600	33.935
1.1560	33.780
1.1520	33.609
1.1480	33.715
1.1440	33.466
1.1400	33.761
1.1360	33.429
1.1320	33.180
1.1280	33.022
1.1240	32.907
1.1200	32.734
1.1160	32.666
1.1120	32.889
1.1080	32.867
1.1040	32.688
1.1000	32.613
1.0960	32.663
1.0920	32.531
1.0880	32.415
1.0840	32.546
1.0800	32.307
1.0760	32.372
1.0720	32.113
1.0680	31.935
1.0640	31.875
1.0600	31.960
1.0560	31.702
1.0520	31.393
1.0480	31.783
1.0440	32.097
1.0400	32.113
1.0360	32.039
1.0320	32.039
1.0280	31.863
1.0240	31.906
1.0200	31.634
1.0160	31.655
1.0120	31.779
1.0080	31.592
1.0040	31.634
1.0000	31.439
0.99600	31.250
0.99200	31.054
0.98800	31.047
0.98400	31.189
0.98000	31.243
0.97600	31.070
0.97200	30.939
0.96800	31.000
0.96400	30.810
0.96000	30.729
0.95600	30.659
0.95200	30.419
0.94800	30.509
0.94400	30.238
0.94000	30.199
0.93600	30.070
0.93200	30.179
0.92800	30.062
0.92400	30.072
0.92000	29.973
0.91600	29.944
0.91200	29.924
0.90800	29.963
0.90400	29.746
0.90000	29.874
0.89600	29.765
0.89200	29.586
0.88800	29.516
0.88400	29.554
0.88000	29.545
0.87600	29.513
0.87200	29.467
0.86800	29.338
0.86400	29.305
0.86000	29.508
0.85600	29.310
0.85200	29.239
0.84800	29.443
0.84400	29.114
0.84000	29.114
0.83600	29.210
0.83200	28.966
0.82800	29.038
0.82400	28.981
0.82000	29.095
0.81600	28.663
0.81200	28.750
0.80800	28.787
0.80400	28.930
0.80000	28.875
0.79900	28.875
0.79800	28.875
0.79700	28.951
0.79600	28.896
0.79500	28.896
0.79400	28.969
0.79300	28.854
0.79200	28.875
0.79100	28.948
0.79000	28.894
0.78900	28.875
0.78800	28.735
0.78700	28.756
0.78600	28.499
0.78500	28.777
0.78400	28.969
0.78300	28.678
0.78200	28.285
0.78100	28.572
0.78000	28.872
0.77900	29.034
0.77800	28.894
0.77700	28.559
0.77600	28.402
0.77500	28.551
0.77400	28.551
0.77300	28.455
0.77200	28.431
0.77100	28.337
0.77000	28.182
0.76900	28.330
0.76800	28.431
0.76700	28.459
0.76600	28.459
0.76500	28.451
0.76400	28.563
0.76300	28.438
0.76200	28.399
0.76100	28.627
0.76000	28.376
0.75900	28.313
0.75800	28.313
0.75700	28.313
0.75600	28.299
0.75500	28.091
0.75400	28.301
0.75300	28.044
0.75200	27.871
0.75100	27.968
0.75000	27.927
0.74900	28.106
0.74800	28.106
0.74700	28.299
0.74600	27.968
0.74500	27.912
0.74400	28.273
0.74300	27.886
0.74200	28.252
0.74100	28.580
0.74000	28.288
0.73900	27.994
0.73800	27.994
0.73700	28.009
0.73600	28.037
0.73500	27.815
0.73400	27.994
0.73300	28.065
0.73200	28.202
0.73100	28.173
0.73000	28.113
0.72900	28.044
0.72800	28.204
0.72700	28.086
0.72600	28.149
0.72500	28.149
0.72400	28.065
0.72300	28.065
0.72200	28.194
0.72100	28.183
0.72000	27.999
0.71900	28.318
0.71800	28.339
0.71700	28.414
0.71600	28.133
0.71500	28.299
0.71400	28.202
0.71300	28.246
0.71200	28.458
0.71100	28.405
0.71000	28.491
0.70900	28.427
0.70800	28.568
0.70700	28.537
0.70600	28.482
0.70500	28.307
0.70400	28.371
0.70300	28.501
0.70200	28.501
0.70100	28.309
0.70000	28.414
0.69900	28.509
0.69800	28.573
0.69700	28.752
0.69600	28.763
0.69500	28.707
0.69400	28.507
0.69300	28.585
0.69200	28.519
0.69100	28.807
0.69000	28.885
0.68900	29.053
0.68800	29.008
0.68700	28.908
0.68600	28.908
0.68500	28.952
0.68400	29.008
0.68300	29.008
0.68200	28.985
0.68100	28.985
0.68000	29.254
0.67900	29.276
0.67800	29.153
0.67700	29.008
0.67600	29.308
0.67500	29.276
0.67400	29.477
0.67300	29.578
0.67200	29.385
0.67100	29.523
0.67000	29.601
0.66900	29.725
0.66800	29.600
0.66700	29.701
0.66600	29.678
0.66500	29.554
0.66400	29.585
0.66300	29.662
0.66200	29.670
0.66100	29.670
0.66000	29.725
0.65900	30.045
0.65800	30.146
0.65700	29.997
0.65600	29.980
0.65500	30.204
0.65400	30.156
0.65300	30.109
0.65200	30.009
0.65100	30.162
0.65000	30.115
0.64900	29.846
0.64800	29.945
0.64700	30.203
0.64600	30.551
0.64500	30.449
0.64400	30.854
0.64300	31.007
0.64200	30.883
0.64100	30.658
0.64000	30.829
0.63900	31.084
0.63800	30.908
0.63700	30.685
0.63600	30.513
0.63500	30.685
0.63400	30.810
0.63300	30.785
0.63200	30.761
0.63100	30.983
0.63000	31.010
0.62900	30.961
0.62800	31.036
0.62700	31.136
0.62600	31.261
0.62500	31.586
0.62400	31.762
0.62300	31.386
0.62200	31.436
0.62100	31.809
0.62000	31.611
0.61900	31.688
0.61800	31.817
0.61700	31.841
0.61600	31.966
0.61500	32.016
0.61400	31.913
0.61300	31.911
0.61200	32.016
0.61100	32.067
0.61000	32.143
0.60900	32.218
0.60800	32.192
0.60700	32.090
0.60600	31.938
0.60500	32.015
0.60400	32.015
0.60300	32.169
0.60200	32.348
0.60100	32.376
0.60000	32.432
0.59900	32.615
0.59800	32.459
0.59700	32.489
0.59600	32.673
0.59500	32.640
0.59400	32.615
0.59300	32.831
0.59200	32.987
0.59100	33.167
0.59000	32.853
0.58900	32.878
0.58800	32.987
0.58700	33.139
0.58600	32.987
0.58500	33.017
0.58400	32.972
0.58300	33.235
0.58200	33.129
0.58100	32.999
0.58000	33.187
0.57900	33.656
0.57800	33.421
0.57700	33.619
0.57600	33.619
0.57500	33.750
0.57400	33.796
0.57300	33.831
0.57200	33.786
0.57100	33.796
0.57000	33.685
0.56900	33.657
0.56800	33.860
0.56700	33.868
0.56600	34.100
0.56500	34.072
0.56400	34.016
0.56300	34.128
0.56200	34.100
0.56100	34.100
0.56000	34.523
0.55900	34.326
0.55800	34.326
0.55700	34.667
0.55600	34.517
0.55500	34.466
0.55400	34.517
0.55300	34.516
0.55200	34.496
0.55100	34.475
0.55000	34.355
0.54900	34.810
0.54800	34.652
0.54700	34.626
0.54600	34.757
0.54500	34.710
0.54400	34.804
0.54300	35.064
0.54200	34.991
0.54100	34.789
0.54000	34.890
0.53900	35.078
0.53800	35.106
0.53700	34.923
0.53600	34.721
0.53500	34.896
0.53400	34.748
0.53300	34.484
0.53200	34.302
0.53100	34.475
0.53000	34.328
0.52900	34.158
0.52800	34.614
0.52700	34.588
0.52600	34.487
0.52500	34.387
0.52400	34.439
0.52300	34.361
0.52200	34.589
0.52100	34.462
0.52000	34.315
0.51900	34.188
0.51800	34.111
0.51700	34.137
0.51600	34.212
0.51500	34.290
0.51400	34.010
0.51300	33.935
0.51200	33.784
0.51100	33.559
0.51000	33.558
0.50900	33.408
0.50800	33.935
0.50700	34.089
0.50600	33.759
0.50500	33.481
0.50400	33.430
0.50300	33.251
0.50200	33.254
0.50100	33.254
0.50000	33.074
0.49900	32.829
0.49800	32.574
0.49700	32.497
0.49600	32.402
0.49500	32.373
0.49400	32.023
0.49300	32.295
0.49200	32.415
0.49100	32.535
0.49000	32.516
0.48900	32.312
0.48800	32.030
0.48700	31.790
0.48600	31.633
0.48500	31.598
0.48400	31.702
0.48300	31.466
0.48200	31.352
0.48100	31.251
0.48000	31.350
0.47900	31.293
0.47800	31.156
0.47700	30.910
0.47600	30.591
0.47500	30.751
0.47400	30.781
0.47300	30.428
0.47200	30.385
0.47100	30.219
0.47000	30.016
0.46900	29.768
0.46800	29.893
0.46700	29.505
0.46600	29.728
0.46500	29.586
0.46400	29.608
0.46300	29.425
0.46200	29.384
0.46100	29.180
0.46000	28.775
0.45900	28.775
0.45800	28.798
0.45700	28.654
0.45600	28.592
0.45500	28.325
0.45400	28.200
0.45300	28.123
0.45200	28.097
0.45100	28.018
0.45000	28.117
0.44900	28.074
0.44800	27.806
0.44700	27.825
0.44600	27.732
0.44500	27.418
0.44400	27.525
0.44300	27.204
0.44200	27.066
0.44100	27.163
0.44000	26.740
0.43900	26.776
0.43800	26.640
0.43700	26.513
0.43600	26.413
0.43500	26.449
0.43400	26.340
0.43300	26.213
0.43200	26.021
0.43100	25.968
0.43000	26.002
0.42900	25.837
0.42800	25.787
0.42700	25.356
0.42600	25.438
0.42500	25.082
0.42400	25.113
0.42300	25.099
0.42200	25.014
0.42100	24.616
0.42000	24.731
0.41900	24.435
0.41800	24.480
0.41700	23.987
0.41600	23.982
0.41500	23.973
0.41400	24.031
0.41300	23.652
0.41200	23.288
0.41100	23.116
0.41000	23.111
0.40900	23.050
0.40800	23.089
0.40700	22.785
0.40600	22.698
0.40500	22.567
0.40400	22.286
0.40300	22.180
0.40200	22.085
0.40100	22.114
0.40000	22.121
