Name:  ALHA 77005
Type:  Stony Meteorites
Class:  Achondrite
Subclass:  Shergottite
Particle Size:  0-75 micrometers
Sample No.:  ALHA 77005
Owner:  JHU
Wavelength range:  IR
Origin:  Meteorite found in Antarctica in 1977.  Smithsonian sample (USNM 
sample No. ALHA 77005.38).
Description:  None.





Measurement:  Bidirectional reflectance
First Column:  X
Second Column:  Y
X Units:  Wavelength (micrometers)
Y Units:  Reflectance (percent)
First X Value:  25.044
Last X Value:  2.0795
Number of X Values:  2286
Additional information:  None
25.044    1.8789
24.924    1.7913
24.805    1.8686
24.686    1.7251
24.569    1.7969
24.454    1.8662
24.339    1.8528
24.225    1.9238
24.112    1.9224
24.001    1.6899
23.890    1.5283
23.781    1.5188
23.672    1.5005
23.564    1.4868
23.458    1.5100
23.352    1.3804
23.247    1.4053
23.144    1.3686
23.041    1.2187
22.939    1.1270
22.838    1.1318
22.738    1.1206
22.638    1.0757
22.540    1.0198
22.442    0.9932
22.345    0.9966
22.250    0.9885
22.154    1.0078
22.060    1.0864
21.967    1.0193
21.874    1.0264
21.782    1.0659
21.691    1.0864
21.601    1.0623
21.511    1.1338
21.422    1.1926
21.334    1.1941
21.247    1.1587
21.160    1.1062
21.074    1.0847
20.988    1.1584
20.904    1.2324
20.820    1.2839
20.737    1.3298
20.654    1.3435
20.572    1.4143
20.491    1.5044
20.410    1.5232
20.330    1.5444
20.251    1.6208
20.172    1.6470
20.094    1.5730
20.016    1.5696
19.939    1.6340
19.863    1.6255
19.787    1.6218
19.712    1.6528
19.637    1.6738
19.563    1.6667
19.489    1.6501
19.416    1.6719
19.344    1.7371
19.272    1.7483
19.201    1.7346
19.130    1.7163
19.059    1.7317
18.990    1.7351
18.920    1.6584
18.851    1.6262
18.783    1.6406
18.715    1.6682
18.648    1.6919
18.581    1.6577
18.515    1.6248
18.449    1.6326
18.384    1.5749
18.319    1.4565
18.254    1.4348
18.190    1.4658
18.126    1.4512
18.063    1.4158
18.001    1.3733
17.938    1.3201
17.876    1.2676
17.815    1.2620
17.754    1.2344
17.693    1.1838
17.633    1.1853
17.573    1.1606
17.514    1.1436
17.455    1.1345
17.396    1.0862
17.338    1.0481
17.280    1.0349
17.223    1.0288
17.166    1.0220
17.109    1.0195
17.053    1.0300
16.997    1.0056
16.942    0.9932
16.886    1.0164
16.832    1.0408
16.777    1.0498
16.723    1.0496
16.669    1.0220
16.616    1.0264
16.563    1.0498
16.510    1.0662
16.458    1.0669
16.406    1.0520
16.354    1.0642
16.302    1.0935
16.251    1.0920
16.200    1.0652
16.150    1.0461
16.100    1.0388
16.050    1.0530
16.000    1.0217
15.951    0.9905
15.902    0.9746
15.854    0.9587
15.805    0.9556
15.757    0.9280
15.710    0.8955
15.662    0.8662
15.615    0.8423
15.568    0.8062
15.521    0.7749
15.475    0.7812
15.429    0.8135
15.383    0.8296
15.338    0.8000
15.292    0.7766
15.248    0.8235
15.203    0.8760
15.158    0.8445
15.114    0.8325
15.070    0.8652
15.027    0.8687
14.983    0.8892
14.940    0.9145
14.897    0.9307
14.854    0.9656
14.812    0.9814
14.770    0.9902
14.728    1.0078
14.686    1.0522
14.645    1.0815
14.603    1.1006
14.562    1.1401
14.521    1.1921
14.481    1.2390
14.441    1.2790
14.400    1.3113
14.361    1.3350
14.321    1.3818
14.281    1.4099
14.242    1.4204
14.203    1.4490
14.164    1.4724
14.126    1.4866
14.087    1.4988
14.049    1.4871
14.011    1.5085
13.973    1.5359
13.936    1.5361
13.899    1.5239
13.861    1.5022
13.824    1.5181
13.788    1.5498
13.751    1.5574
13.715    1.5373
13.679    1.5344
13.643    1.5591
13.607    1.5749
13.571    1.5681
13.536    1.5986
13.500    1.6709
13.465    1.7195
13.430    1.7415
13.396    1.7624
13.361    1.7849
13.327    1.8484
13.293    1.8862
13.259    1.8874
13.225    1.8938
13.191    1.9287
13.158    1.9753
13.124    1.9858
13.091    1.9783
13.058    1.9885
13.026    1.9949
12.993    2.0054
12.960    2.0190
12.928    2.0098
12.896    1.9985
12.864    1.9946
12.832    1.9622
12.800    1.9412
12.769    1.9443
12.737    1.9407
12.706    1.9048
12.675    1.8782
12.644    1.8772
12.614    1.8520
12.583    1.8284
12.552    1.8191
12.522    1.8115
12.492    1.7849
12.462    1.7563
12.432    1.7424
12.402    1.7122
12.373    1.6799
12.343    1.6667
12.314    1.6462
12.285    1.6006
12.256    1.5583
12.227    1.5110
12.198    1.4600
12.169    1.4397
12.141    1.4297
12.113    1.3987
12.084    1.3638
12.056    1.3477
12.028    1.3220
12.000    1.3074
11.973    1.2917
11.945    1.2478
11.918    1.2148
11.890    1.1863
11.863    1.1924
11.836    1.2314
11.809    1.2637
11.782    1.2820
11.755    1.3064
11.729    1.3213
11.702    1.3386
11.676    1.3638
11.650    1.4060
11.624    1.4468
11.598    1.5056
11.572    1.5557
11.546    1.5759
11.520    1.6177
11.495    1.7026
11.469    1.7788
11.444    1.8186
11.419    1.8364
11.394    1.8638
11.369    1.9028
11.344    1.9167
11.319    1.9394
11.294    1.9668
11.270    1.9690
11.245    1.9712
11.221    1.9619
11.197    1.9673
11.173    1.9709
11.149    1.9558
11.125    1.9517
11.101    1.9573
11.077    1.9866
11.054    2.0054
11.030    2.0032
11.007    2.0032
10.983    2.0203
10.960    2.0320
10.937    2.0510
10.914    2.0698
10.891    2.0872
10.868    2.1213
10.846    2.1387
10.823    2.1370
10.800    2.1433
10.778    2.1584
10.755    2.1704
10.733    2.1665
10.711    2.1475
10.689    2.1389
10.667    2.1326
10.645    2.0957
10.623    2.0454
10.602    2.0102
10.580    1.9648
10.558    1.8799
10.537    1.7988
10.516    1.7405
10.494    1.6882
10.473    1.6472
10.452    1.6350
10.431    1.6248
10.410    1.5989
10.389    1.5889
10.368    1.5984
10.348    1.6023
10.327    1.6099
10.306    1.6287
10.286    1.6348
10.266    1.6304
10.245    1.6230
10.225    1.6045
10.205    1.5786
10.185    1.5603
10.165    1.5349
10.145    1.5012
10.125    1.4775
10.106    1.4685
10.086    1.4665
10.066    1.4582
10.047    1.4485
10.027    1.4536
10.008    1.4504
 9.989    1.4448
 9.970    1.4429
 9.950    1.4438
 9.931    1.4495
 9.912    1.4482
 9.893    1.4456
 9.875    1.4463
 9.856    1.4509
 9.837    1.4507
 9.819    1.4531
 9.800    1.4612
 9.781    1.4731
 9.763    1.4746
 9.745    1.4910
 9.726    1.5154
 9.708    1.5054
 9.690    1.5061
 9.672    1.5339
 9.654    1.5508
 9.636    1.5574
 9.618    1.5774
 9.600    1.5947
 9.582    1.5945
 9.565    1.6038
 9.547    1.6191
 9.530    1.6277
 9.512    1.6265
 9.495    1.6372
 9.477    1.6433
 9.460    1.6499
 9.443    1.6436
 9.426    1.6186
 9.409    1.5862
 9.392    1.5632
 9.375    1.5237
 9.358    1.4951
 9.341    1.4705
 9.324    1.4365
 9.307    1.4048
 9.291    1.3767
 9.274    1.3491
 9.257    1.3281
 9.241    1.3069
 9.225    1.2920
 9.208    1.2739
 9.192    1.2725
 9.175    1.2725
 9.159    1.2705
 9.143    1.2744
 9.127    1.2747
 9.111    1.2749
 9.095    1.2734
 9.079    1.2795
 9.063    1.2988
 9.047    1.2991
 9.032    1.2925
 9.016    1.3037
 9.000    1.3091
 8.985    1.2930
 8.969    1.2883
 8.954    1.2983
 8.938    1.3000
 8.923    1.2947
 8.908    1.2969
 8.892    1.2922
 8.877    1.2712
 8.862    1.2615
 8.847    1.2395
 8.832    1.2070
 8.817    1.1943
 8.802    1.1887
 8.787    1.1816
 8.772    1.1692
 8.757    1.1670
 8.742    1.1602
 8.727    1.1572
 8.713    1.1645
 8.698    1.1580
 8.684    1.1387
 8.669    1.1357
 8.655    1.1338
 8.640    1.1240
 8.626    1.1321
 8.612    1.1470
 8.597    1.1562
 8.583    1.1633
 8.569    1.1746
 8.555    1.1931
 8.541    1.2148
 8.527    1.2334
 8.513    1.2451
 8.499    1.2659
 8.485    1.2917
 8.471    1.3240
 8.457    1.3530
 8.443    1.3774
 8.430    1.4021
 8.416    1.4292
 8.402    1.4573
 8.389    1.4976
 8.375    1.5383
 8.361    1.5723
 8.348    1.6103
 8.335    1.6619
 8.321    1.7039
 8.308    1.7419
 8.295    1.7891
 8.281    1.8337
 8.268    1.8740
 8.255    1.9248
 8.242    1.9844
 8.229    2.0393
 8.216    2.0996
 8.203    2.1643
 8.190    2.2239
 8.177    2.2832
 8.164    2.3540
 8.151    2.4238
 8.138    2.4807
 8.126    2.5442
 8.113    2.6201
 8.100    2.6914
 8.088    2.7563
 8.075    2.8325
 8.062    2.9089
 8.050    2.9717
 8.037    3.0442
 8.025    3.1160
 8.013    3.1799
 8.000    3.2493
 7.988    3.3235
 7.976    3.3821
 7.963    3.4458
 7.951    3.5244
 7.939    3.5828
 7.927    3.6267
 7.915    3.6814
 7.903    3.7451
 7.891    3.7925
 7.879    3.8362
 7.867    3.8923
 7.855    3.9453
 7.843    3.9936
 7.831    4.0434
 7.819    4.0950
 7.808    4.1409
 7.796    4.1919
 7.784    4.2395
 7.772    4.2800
 7.761    4.3201
 7.749    4.3596
 7.737    4.3974
 7.726    4.4282
 7.715    4.4680
 7.703    4.5019
 7.692    4.5261
 7.680    4.5481
 7.669    4.5798
 7.657    4.6035
 7.646    4.6284
 7.635    4.6597
 7.624    4.6894
 7.613    4.7207
 7.601    4.7488
 7.590    4.7771
 7.579    4.8076
 7.568    4.8535
 7.557    4.9016
 7.546    4.9380
 7.535    4.9817
 7.524    5.0246
 7.513    5.0640
 7.502    5.1057
 7.492    5.1496
 7.481    5.1899
 7.470    5.2241
 7.459    5.2720
 7.449    5.3244
 7.438    5.3616
 7.427    5.4016
 7.417    5.4473
 7.406    5.4917
 7.395    5.5281
 7.385    5.5703
 7.374    5.6094
 7.364    5.6379
 7.353    5.6645
 7.343    5.7046
 7.333    5.7287
 7.322    5.7488
 7.312    5.7810
 7.302    5.8027
 7.291    5.8225
 7.281    5.8506
 7.271    5.8789
 7.261    5.9023
 7.251    5.9314
 7.240    5.9660
 7.230    5.9868
 7.220    6.0112
 7.210    6.0449
 7.200    6.0718
 7.190    6.0942
 7.180    6.1123
 7.170    6.1343
 7.160    6.1562
 7.151    6.1733
 7.141    6.1951
 7.131    6.2107
 7.121    6.2292
 7.111    6.2571
 7.102    6.2768
 7.092    6.2973
 7.082    6.3288
 7.072    6.3633
 7.063    6.3911
 7.053    6.4150
 7.044    6.4448
 7.034    6.4831
 7.025    6.5202
 7.015    6.5576
 7.006    6.5867
 6.996    6.6050
 6.987    6.6343
 6.977    6.6594
 6.968    6.6680
 6.959    6.6875
 6.949    6.7246
 6.940    6.7458
 6.931    6.7622
 6.921    6.7729
 6.912    6.7776
 6.903    6.7868
 6.894    6.8135
 6.885    6.8291
 6.875    6.8318
 6.866    6.8388
 6.857    6.8630
 6.848    6.8994
 6.839    6.9214
 6.830    6.9375
 6.821    6.9548
 6.812    6.9729
 6.803    6.9961
 6.794    7.0173
 6.785    7.0366
 6.777    7.0615
 6.768    7.0857
 6.759    7.0981
 6.750    7.1096
 6.741    7.1167
 6.733    7.1179
 6.724    7.1225
 6.715    7.1316
 6.707    7.1294
 6.698    7.1140
 6.689    7.1028
 6.681    7.0918
 6.672    7.0881
 6.663    7.0906
 6.655    7.0901
 6.646    7.0598
 6.638    7.0268
 6.629    7.0361
 6.621    7.0500
 6.612    7.0415
 6.604    7.0425
 6.596    7.0469
 6.587    7.0488
 6.579    7.0398
 6.571    7.0371
 6.562    7.0461
 6.554    7.0508
 6.546    7.0617
 6.537    7.0703
 6.529    7.0666
 6.521    7.0674
 6.513    7.0764
 6.505    7.0654
 6.496    7.0383
 6.488    7.0417
 6.480    7.0576
 6.472    7.0617
 6.464    7.0632
 6.456    7.0586
 6.448    7.0525
 6.440    7.0483
 6.432    7.0378
 6.424    7.0173
 6.416    6.9875
 6.408    6.9880
 6.400    6.9975
 6.392    6.9917
 6.384    6.9870
 6.377    6.9680
 6.369    6.9370
 6.361    6.9245
 6.353    6.9116
 6.345    6.8867
 6.338    6.8764
 6.330    6.8735
 6.322    6.8572
 6.314    6.8447
 6.307    6.8430
 6.299    6.8437
 6.291    6.8305
 6.284    6.8222
 6.276    6.8196
 6.269    6.8052
 6.261    6.7973
 6.253    6.8025
 6.246    6.7942
 6.239    6.7893
 6.231    6.7971
 6.223    6.8015
 6.216    6.7978
 6.209    6.7976
 6.201    6.7998
 6.194    6.7949
 6.186    6.7859
 6.179    6.7937
 6.172    6.8010
 6.164    6.8022
 6.157    6.8061
 6.150    6.8110
 6.142    6.8071
 6.135    6.7978
 6.128    6.7837
 6.121    6.7505
 6.113    6.7095
 6.106    6.6863
 6.099    6.6511
 6.092    6.6052
 6.085    6.5544
 6.078    6.4890
 6.070    6.4289
 6.063    6.3718
 6.056    6.3049
 6.049    6.2336
 6.042    6.2158
 6.035    6.2163
 6.028    6.2038
 6.021    6.1897
 6.014    6.1892
 6.007    6.2099
 6.000    6.2261
 5.993    6.2466
 5.986    6.2800
 5.979    6.3164
 5.973    6.3503
 5.966    6.3786
 5.959    6.4143
 5.952    6.4494
 5.945    6.4724
 5.938    6.4795
 5.931    6.5061
 5.925    6.5498
 5.918    6.5830
 5.911    6.6028
 5.904    6.6130
 5.898    6.6279
 5.891    6.6594
 5.884    6.6772
 5.878    6.6965
 5.871    6.7334
 5.864    6.7580
 5.858    6.7844
 5.851    6.8064
 5.845    6.8242
 5.838    6.8398
 5.831    6.8591
 5.825    6.8672
 5.818    6.8850
 5.812    6.9199
 5.805    6.9409
 5.799    6.9541
 5.792    6.9612
 5.786    6.9665
 5.779    6.9629
 5.773    6.9426
 5.767    6.9270
 5.760    6.9197
 5.754    6.9011
 5.747    6.8667
 5.741    6.8386
 5.735    6.8044
 5.728    6.7649
 5.722    6.7258
 5.716    6.6750
 5.709    6.6343
 5.703    6.6020
 5.697    6.5605
 5.691    6.5151
 5.684    6.4817
 5.678    6.4531
 5.672    6.4328
 5.666    6.4216
 5.660    6.4140
 5.653    6.4209
 5.647    6.4294
 5.641    6.4402
 5.635    6.4746
 5.629    6.5168
 5.623    6.5642
 5.617    6.6057
 5.611    6.6540
 5.604    6.7048
 5.598    6.7671
 5.592    6.8240
 5.586    6.8711
 5.580    6.9123
 5.574    6.9514
 5.568    6.9924
 5.562    7.0368
 5.556    7.0671
 5.551    7.0837
 5.545    7.1042
 5.539    7.1235
 5.533    7.1318
 5.527    7.1399
 5.521    7.1538
 5.515    7.1616
 5.509    7.1672
 5.503    7.1792
 5.497    7.1867
 5.492    7.1863
 5.486    7.1909
 5.480    7.2019
 5.474    7.2114
 5.468    7.2256
 5.463    7.2497
 5.457    7.2734
 5.451    7.2910
 5.446    7.3088
 5.440    7.3357
 5.434    7.3579
 5.428    7.3838
 5.423    7.4070
 5.417    7.4263
 5.411    7.4526
 5.406    7.4785
 5.400    7.5002
 5.394    7.5156
 5.389    7.5305
 5.383    7.5444
 5.378    7.5588
 5.372    7.5747
 5.367    7.5884
 5.361    7.5979
 5.356    7.5986
 5.350    7.6091
 5.345    7.6211
 5.339    7.6199
 5.333    7.6189
 5.328    7.6264
 5.322    7.6269
 5.317    7.6284
 5.312    7.6269
 5.306    7.6208
 5.301    7.6201
 5.295    7.6194
 5.290    7.6094
 5.285    7.6130
 5.279    7.6186
 5.274    7.6203
 5.268    7.6238
 5.263    7.6313
 5.258    7.6384
 5.252    7.6438
 5.247    7.6523
 5.242    7.6670
 5.237    7.6836
 5.231    7.6990
 5.226    7.7153
 5.221    7.7226
 5.215    7.7287
 5.210    7.7395
 5.205    7.7512
 5.200    7.7651
 5.194    7.7822
 5.189    7.7954
 5.184    7.8027
 5.179    7.8244
 5.174    7.8413
 5.169    7.8432
 5.164    7.8620
 5.158    7.8913
 5.153    7.9101
 5.148    7.9270
 5.143    7.9504
 5.138    7.9756
 5.133    7.9912
 5.128    8.0112
 5.123    8.0359
 5.118    8.0556
 5.113    8.0732
 5.107    8.0947
 5.103    8.1142
 5.098    8.1264
 5.093    8.1426
 5.088    8.1606
 5.082    8.1767
 5.077    8.1926
 5.073    8.2099
 5.068    8.2283
 5.063    8.2419
 5.058    8.2583
 5.053    8.2729
 5.048    8.2832
 5.043    8.2961
 5.038    8.3120
 5.033    8.3262
 5.028    8.3384
 5.023    8.3496
 5.019    8.3620
 5.014    8.3801
 5.009    8.3935
 5.004    8.4043
 4.999    8.4182
 4.994    8.4355
 4.990    8.4543
 4.985    8.4812
 4.980    8.5027
 4.975    8.5298
 4.970    8.5642
 4.966    8.5959
 4.961    8.6357
 4.956    8.6804
 4.951    8.7219
 4.947    8.7588
 4.942    8.7993
 4.937    8.8349
 4.933    8.8791
 4.928    8.9294
 4.923    8.9729
 4.919    9.0107
 4.914    9.0510
 4.909    9.0898
 4.905    9.1220
 4.900    9.1667
 4.895    9.2087
 4.891    9.2392
 4.886    9.2654
 4.882    9.2978
 4.877    9.3301
 4.872    9.3545
 4.868    9.3803
 4.863    9.4084
 4.859    9.4304
 4.854    9.4482
 4.849    9.4778
 4.845    9.5024
 4.840    9.5276
 4.836    9.5559
 4.832    9.5766
 4.827    9.5984
 4.822    9.6189
 4.818    9.6345
 4.814    9.6572
 4.809    9.6804
 4.805    9.7004
 4.800    9.7258
 4.796    9.7549
 4.791    9.7766
 4.787    9.7964
 4.782    9.8135
 4.778    9.8335
 4.774    9.8525
 4.769    9.8679
 4.765    9.8928
 4.761    9.9148
 4.756    9.9370
 4.752    9.9587
 4.747    9.9717
 4.743    9.9922
 4.739   10.0130
 4.734   10.0340
 4.730   10.0530
 4.726   10.0610
 4.721   10.0800
 4.717   10.1040
 4.713   10.1170
 4.709   10.1360
 4.704   10.1650
 4.700   10.1760
 4.696   10.1850
 4.691   10.2120
 4.687   10.2350
 4.683   10.2540
 4.679   10.2770
 4.675   10.3020
 4.670   10.3230
 4.666   10.3370
 4.662   10.3570
 4.658   10.3800
 4.654   10.4020
 4.649   10.4220
 4.645   10.4500
 4.641   10.4680
 4.637   10.4860
 4.633   10.5180
 4.629   10.5350
 4.625   10.5500
 4.620   10.5740
 4.616   10.5920
 4.612   10.6050
 4.608   10.6240
 4.604   10.6470
 4.600   10.6590
 4.596   10.6760
 4.592   10.6980
 4.588   10.7140
 4.584   10.7340
 4.580   10.7520
 4.576   10.7680
 4.572   10.7820
 4.567   10.7880
 4.564   10.8080
 4.559   10.8280
 4.556   10.8420
 4.551   10.8550
 4.548   10.8630
 4.543   10.8700
 4.540   10.8850
 4.536   10.8980
 4.532   10.9060
 4.528   10.9210
 4.524   10.9310
 4.520   10.9320
 4.516   10.9470
 4.512   10.9600
 4.508   10.9680
 4.504   10.9780
 4.500   10.9880
 4.496   10.9970
 4.492   11.0050
 4.488   11.0120
 4.485   11.0190
 4.481   11.0270
 4.477   11.0320
 4.473   11.0370
 4.469   11.0460
 4.465   11.0600
 4.461   11.0630
 4.458   11.0660
 4.454   11.0730
 4.450   11.0830
 4.446   11.0920
 4.442   11.0990
 4.439   11.1130
 4.435   11.1230
 4.431   11.1270
 4.427   11.1290
 4.423   11.1320
 4.420   11.1320
 4.416   11.1410
 4.412   11.1520
 4.408   11.1610
 4.404   11.1650
 4.401   11.1680
 4.397   11.1740
 4.393   11.1750
 4.390   11.1860
 4.386   11.1970
 4.382   11.1940
 4.378   11.1980
 4.375   11.2110
 4.371   11.2130
 4.367   11.2090
 4.364   11.2180
 4.360   11.2260
 4.356   11.2290
 4.353   11.2330
 4.349   11.2440
 4.346   11.2460
 4.342   11.2460
 4.338   11.2540
 4.335   11.2500
 4.331   11.2500
 4.327   11.2640
 4.324   11.2670
 4.320   11.2650
 4.316   11.2660
 4.313   11.2670
 4.309   11.2740
 4.306   11.2870
 4.302   11.2980
 4.299   11.2990
 4.295   11.3020
 4.292   11.3130
 4.288   11.3150
 4.284   11.3120
 4.281   11.3200
 4.277   11.3270
 4.274   11.3340
 4.270   11.3370
 4.267   11.3370
 4.263   11.3500
 4.260   11.3600
 4.256   11.3590
 4.253   11.3680
 4.249   11.3710
 4.246   11.3680
 4.242   11.3740
 4.239   11.3820
 4.235   11.3920
 4.232   11.3920
 4.229   11.3960
 4.225   11.4010
 4.222   11.4120
 4.218   11.4150
 4.215   11.4150
 4.211   11.4270
 4.208   11.4420
 4.205   11.4400
 4.201   11.4360
 4.198   11.4450
 4.194   11.4550
 4.191   11.4610
 4.188   11.4640
 4.184   11.4710
 4.181   11.4720
 4.177   11.4760
 4.174   11.4870
 4.171   11.4840
 4.167   11.4810
 4.164   11.4900
 4.161   11.5000
 4.157   11.4950
 4.154   11.5000
 4.151   11.5050
 4.147   11.5070
 4.144   11.5110
 4.141   11.5120
 4.137   11.5130
 4.134   11.5220
 4.131   11.5270
 4.128   11.5300
 4.124   11.5320
 4.121   11.5350
 4.118   11.5400
 4.114   11.5390
 4.111   11.5430
 4.108   11.5510
 4.105   11.5530
 4.101   11.5570
 4.098   11.5560
 4.095   11.5560
 4.092   11.5590
 4.088   11.5680
 4.085   11.5760
 4.082   11.5780
 4.079   11.5830
 4.076   11.5830
 4.072   11.5870
 4.069   11.5960
 4.066   11.5960
 4.063   11.5940
 4.060   11.6010
 4.056   11.6070
 4.053   11.6080
 4.050   11.6120
 4.047   11.6140
 4.044   11.6110
 4.041   11.6160
 4.037   11.6140
 4.034   11.6180
 4.031   11.6210
 4.028   11.6200
 4.025   11.6350
 4.022   11.6380
 4.019   11.6360
 4.016   11.6370
 4.013   11.6370
 4.009   11.6360
 4.006   11.6420
 4.003   11.6480
 4.000   11.6480
 3.997   11.6470
 3.994   11.6470
 3.991   11.6510
 3.988   11.6540
 3.985   11.6580
 3.982   11.6570
 3.979   11.6570
 3.976   11.6570
 3.973   11.6560
 3.970   11.6510
 3.966   11.6490
 3.963   11.6590
 3.960   11.6610
 3.957   11.6530
 3.954   11.6580
 3.951   11.6630
 3.948   11.6600
 3.945   11.6630
 3.942   11.6670
 3.939   11.6620
 3.936   11.6580
 3.933   11.6560
 3.930   11.6580
 3.927   11.6620
 3.924   11.6690
 3.921   11.6730
 3.918   11.6650
 3.916   11.6600
 3.913   11.6630
 3.910   11.6680
 3.907   11.6710
 3.904   11.6770
 3.901   11.6720
 3.898   11.6620
 3.895   11.6680
 3.892   11.6690
 3.889   11.6620
 3.886   11.6560
 3.883   11.6630
 3.880   11.6630
 3.877   11.6580
 3.875   11.6600
 3.872   11.6560
 3.869   11.6530
 3.866   11.6530
 3.863   11.6610
 3.860   11.6590
 3.857   11.6500
 3.854   11.6510
 3.852   11.6490
 3.849   11.6510
 3.846   11.6500
 3.843   11.6460
 3.840   11.6420
 3.837   11.6500
 3.834   11.6530
 3.832   11.6480
 3.829   11.6470
 3.826   11.6450
 3.823   11.6490
 3.820   11.6500
 3.817   11.6460
 3.815   11.6470
 3.812   11.6360
 3.809   11.6270
 3.806   11.6340
 3.804   11.6410
 3.801   11.6350
 3.798   11.6260
 3.795   11.6230
 3.792   11.6310
 3.790   11.6320
 3.787   11.6280
 3.784   11.6210
 3.781   11.6280
 3.779   11.6350
 3.776   11.6290
 3.773   11.6250
 3.770   11.6230
 3.768   11.6220
 3.765   11.6170
 3.762   11.6100
 3.759   11.6060
 3.757   11.6080
 3.754   11.6110
 3.751   11.6150
 3.748   11.6140
 3.746   11.6120
 3.743   11.6040
 3.740   11.6010
 3.738   11.6050
 3.735   11.5990
 3.732   11.5950
 3.730   11.5970
 3.727   11.6010
 3.724   11.5990
 3.722   11.5950
 3.719   11.5940
 3.716   11.5900
 3.714   11.5760
 3.711   11.5720
 3.708   11.5810
 3.706   11.5870
 3.703   11.5760
 3.700   11.5660
 3.698   11.5710
 3.695   11.5720
 3.692   11.5700
 3.690   11.5610
 3.687   11.5620
 3.684   11.5600
 3.682   11.5520
 3.679   11.5500
 3.677   11.5540
 3.674   11.5650
 3.672   11.5620
 3.669   11.5470
 3.666   11.5480
 3.664   11.5520
 3.661   11.5530
 3.659   11.5470
 3.656   11.5400
 3.653   11.5370
 3.651   11.5310
 3.648   11.5250
 3.646   11.5360
 3.643   11.5370
 3.641   11.5310
 3.638   11.5320
 3.636   11.5330
 3.633   11.5320
 3.630   11.5240
 3.628   11.5240
 3.625   11.5170
 3.623   11.5110
 3.620   11.5050
 3.618   11.5060
 3.615   11.5060
 3.613   11.5050
 3.610   11.4950
 3.608   11.4960
 3.605   11.5020
 3.603   11.5030
 3.600   11.4870
 3.598   11.4820
 3.595   11.4790
 3.593   11.4680
 3.590   11.4690
 3.588   11.4710
 3.585   11.4640
 3.583   11.4550
 3.580   11.4550
 3.578   11.4490
 3.575   11.4350
 3.573   11.4310
 3.570   11.4340
 3.568   11.4210
 3.565   11.4150
 3.563   11.4090
 3.561   11.4070
 3.558   11.4080
 3.556   11.3990
 3.553   11.3870
 3.551   11.3770
 3.548   11.3750
 3.546   11.3720
 3.543   11.3660
 3.541   11.3610
 3.539   11.3560
 3.536   11.3470
 3.534   11.3380
 3.531   11.3360
 3.529   11.3340
 3.527   11.3130
 3.524   11.2990
 3.522   11.2870
 3.519   11.2720
 3.517   11.2510
 3.515   11.2250
 3.512   11.2030
 3.510   11.1830
 3.507   11.1560
 3.505   11.1290
 3.503   11.1060
 3.500   11.1020
 3.498   11.1100
 3.496   11.1200
 3.493   11.1280
 3.491   11.1290
 3.489   11.1310
 3.486   11.1320
 3.484   11.1320
 3.482   11.1360
 3.479   11.1350
 3.477   11.1270
 3.475   11.1270
 3.472   11.1200
 3.470   11.1160
 3.468   11.1210
 3.465   11.1110
 3.463   11.1000
 3.461   11.0980
 3.458   11.0930
 3.456   11.0830
 3.454   11.0650
 3.451   11.0570
 3.449   11.0480
 3.447   11.0400
 3.445   11.0220
 3.442   10.9980
 3.440   10.9810
 3.438   10.9690
 3.436   10.9580
 3.433   10.9400
 3.431   10.9120
 3.429   10.8910
 3.426   10.8740
 3.424   10.8460
 3.422   10.8140
 3.420   10.7940
 3.417   10.7790
 3.415   10.7760
 3.413   10.7840
 3.411   10.7920
 3.408   10.7990
 3.406   10.8160
 3.404   10.8370
 3.402   10.8510
 3.399   10.8710
 3.397   10.8800
 3.395   10.8800
 3.393   10.8850
 3.391   10.8930
 3.388   10.9000
 3.386   10.8930
 3.384   10.8820
 3.382   10.8790
 3.380   10.8740
 3.377   10.8610
 3.375   10.8570
 3.373   10.8660
 3.371   10.8690
 3.369   10.8730
 3.366   10.8850
 3.364   10.8980
 3.362   10.9140
 3.360   10.9300
 3.358   10.9290
 3.355   10.9250
 3.353   10.9310
 3.351   10.9360
 3.349   10.9410
 3.347   10.9380
 3.345   10.9310
 3.342   10.9280
 3.340   10.9250
 3.338   10.9270
 3.336   10.9230
 3.334   10.9150
 3.332   10.9120
 3.330   10.9150
 3.327   10.9150
 3.325   10.9150
 3.323   10.9120
 3.321   10.9060
 3.319   10.9060
 3.317   10.9030
 3.315   10.8890
 3.313   10.8800
 3.310   10.8790
 3.308   10.8780
 3.306   10.8730
 3.304   10.8690
 3.302   10.8610
 3.300   10.8490
 3.298   10.8500
 3.296   10.8500
 3.294   10.8440
 3.292   10.8400
 3.289   10.8350
 3.287   10.8320
 3.285   10.8260
 3.283   10.8170
 3.281   10.8120
 3.279   10.8030
 3.277   10.7920
 3.275   10.7790
 3.273   10.7820
 3.271   10.7870
 3.269   10.7680
 3.267   10.7500
 3.265   10.7550
 3.263   10.7520
 3.261   10.7430
 3.258   10.7480
 3.256   10.7470
 3.254   10.7370
 3.252   10.7290
 3.250   10.7160
 3.248   10.7130
 3.246   10.7090
 3.244   10.7020
 3.242   10.6970
 3.240   10.6990
 3.238   10.6960
 3.236   10.6860
 3.234   10.6760
 3.232   10.6670
 3.230   10.6700
 3.228   10.6640
 3.226   10.6530
 3.224   10.6480
 3.222   10.6470
 3.220   10.6370
 3.218   10.6370
 3.216   10.6410
 3.214   10.6340
 3.212   10.6200
 3.210   10.6140
 3.208   10.6110
 3.206   10.6080
 3.204   10.6010
 3.202   10.5930
 3.200   10.5880
 3.198   10.5660
 3.196   10.5600
 3.194   10.5630
 3.192   10.5520
 3.190   10.5440
 3.188   10.5460
 3.186   10.5430
 3.184   10.5310
 3.182   10.5320
 3.180   10.5210
 3.179   10.5000
 3.177   10.4910
 3.175   10.4980
 3.173   10.4920
 3.171   10.4880
 3.169   10.4810
 3.167   10.4760
 3.165   10.4610
 3.163   10.4570
 3.161   10.4560
 3.159   10.4550
 3.157   10.4390
 3.155   10.4230
 3.153   10.4220
 3.152   10.4230
 3.150   10.4260
 3.148   10.4170
 3.146   10.4000
 3.144   10.3960
 3.142   10.3950
 3.140   10.3930
 3.138   10.3760
 3.136   10.3650
 3.134   10.3540
 3.132   10.3500
 3.131   10.3550
 3.129   10.3560
 3.127   10.3520
 3.125   10.3450
 3.123   10.3370
 3.121   10.3240
 3.119   10.3170
 3.117   10.3170
 3.115   10.3070
 3.114   10.2890
 3.112   10.2900
 3.110   10.2930
 3.108   10.2880
 3.106   10.2700
 3.104   10.2680
 3.102   10.2640
 3.101   10.2560
 3.099   10.2430
 3.097   10.2450
 3.095   10.2560
 3.093   10.2450
 3.091   10.2230
 3.090   10.2220
 3.088   10.2390
 3.086   10.2260
 3.084   10.2060
 3.082   10.2100
 3.080   10.2070
 3.079   10.1890
 3.077   10.1880
 3.075   10.1980
 3.073   10.1940
 3.071   10.1860
 3.069   10.1830
 3.067   10.1770
 3.066   10.1750
 3.064   10.1570
 3.062   10.1460
 3.060   10.1420
 3.059   10.1480
 3.057   10.1500
 3.055   10.1460
 3.053   10.1440
 3.051   10.1430
 3.050   10.1390
 3.048   10.1290
 3.046   10.1200
 3.044   10.1020
 3.042   10.1010
 3.041   10.1060
 3.039   10.1030
 3.037   10.0950
 3.035   10.0870
 3.033   10.0930
 3.032   10.0870
 3.030   10.0710
 3.028   10.0580
 3.026   10.0500
 3.025   10.0580
 3.023   10.0670
 3.021   10.0480
 3.019   10.0400
 3.018   10.0440
 3.016   10.0400
 3.014   10.0310
 3.012   10.0330
 3.011   10.0200
 3.009   10.0130
 3.007   10.0220
 3.005   10.0220
 3.004   10.0090
 3.002   10.0090
 3.000   10.0060
 2.998   10.0110
 2.997   10.0070
 2.995    9.9873
 2.993    9.9699
 2.991    9.9675
 2.990    9.9551
 2.988    9.9577
 2.986    9.9682
 2.985    9.9546
 2.983    9.9458
 2.981    9.9524
 2.979    9.9565
 2.978    9.9536
 2.976    9.9524
 2.974    9.9345
 2.973    9.9089
 2.971    9.9104
 2.969    9.9167
 2.967    9.9040
 2.966    9.9050
 2.964    9.9128
 2.962    9.9079
 2.961    9.8840
 2.959    9.8716
 2.957    9.8730
 2.956    9.8694
 2.954    9.8567
 2.952    9.8506
 2.951    9.8574
 2.949    9.8537
 2.947    9.8467
 2.946    9.8532
 2.944    9.8449
 2.942    9.8249
 2.941    9.8147
 2.939    9.8286
 2.937    9.8374
 2.936    9.8376
 2.934    9.8403
 2.932    9.8501
 2.931    9.8418
 2.929    9.8459
 2.927    9.8684
 2.926    9.8786
 2.924    9.8738
 2.922    9.8659
 2.921    9.8642
 2.919    9.8786
 2.917    9.8877
 2.916    9.8974
 2.914    9.8918
 2.912    9.8864
 2.911    9.8974
 2.909    9.8979
 2.908    9.9062
 2.906    9.9201
 2.904    9.9182
 2.903    9.9162
 2.901    9.9236
 2.899    9.9226
 2.898    9.9306
 2.896    9.9409
 2.895    9.9284
 2.893    9.9187
 2.891    9.9350
 2.890    9.9536
 2.888    9.9533
 2.886    9.9470
 2.885    9.9521
 2.883    9.9592
 2.882    9.9741
 2.880    9.9800
 2.878    9.9739
 2.877    9.9658
 2.875    9.9653
 2.874    9.9809
 2.872    9.9980
 2.870   10.0010
 2.869   10.0080
 2.867   10.0180
 2.866   10.0280
 2.864   10.0300
 2.863   10.0340
 2.861   10.0300
 2.859   10.0460
 2.858   10.0530
 2.856   10.0500
 2.855   10.0500
 2.853   10.0630
 2.852   10.0760
 2.850   10.0830
 2.848   10.0870
 2.847   10.0890
 2.845   10.0880
 2.844   10.0850
 2.842   10.1060
 2.841   10.1220
 2.839   10.1240
 2.837   10.1270
 2.836   10.1290
 2.834   10.1370
 2.833   10.1370
 2.831   10.1450
 2.830   10.1490
 2.828   10.1540
 2.827   10.1560
 2.825   10.1550
 2.824   10.1670
 2.822   10.1730
 2.821   10.1780
 2.819   10.1850
 2.817   10.1920
 2.816   10.1910
 2.814   10.1860
 2.813   10.1960
 2.811   10.2160
 2.810   10.2350
 2.808   10.2430
 2.807   10.2420
 2.805   10.2430
 2.804   10.2590
 2.802   10.2850
 2.801   10.2920
 2.799   10.3140
 2.798   10.3380
 2.796   10.3550
 2.795   10.3600
 2.793   10.3540
 2.792   10.3770
 2.790   10.4050
 2.789   10.4190
 2.787   10.4270
 2.786   10.4270
 2.784   10.4450
 2.783   10.4560
 2.781   10.4730
 2.780   10.4910
 2.778   10.5100
 2.777   10.5190
 2.775   10.5400
 2.774   10.5820
 2.772   10.6000
 2.771   10.6010
 2.769   10.6220
 2.768   10.6420
 2.766   10.6500
 2.765   10.6670
 2.763   10.6670
 2.762   10.6670
 2.761   10.6860
 2.759   10.7100
 2.757   10.7410
 2.756   10.7520
 2.755   10.7740
 2.753   10.8150
 2.752   10.8350
 2.750   10.8600
 2.749   10.8780
 2.747   10.8820
 2.746   10.8960
 2.744   10.9240
 2.743   10.9390
 2.741   10.9380
 2.740   10.9570
 2.739   10.9850
 2.737   11.0040
 2.736   11.0090
 2.734   11.0260
 2.733   11.0490
 2.731   11.0660
 2.730   11.0830
 2.728   11.1080
 2.727   11.1160
 2.726   11.1080
 2.724   11.1100
 2.723   11.1380
 2.721   11.1340
 2.720   11.1330
 2.719   11.1770
 2.717   11.1940
 2.716   11.1940
 2.714   11.2020
 2.713   11.2160
 2.711   11.2150
 2.710   11.2210
 2.708   11.2350
 2.707   11.2340
 2.706   11.2530
 2.704   11.2660
 2.703   11.2730
 2.701   11.2810
 2.700   11.2840
 2.699   11.2960
 2.697   11.2970
 2.696   11.2910
 2.695   11.2950
 2.693   11.3100
 2.692   11.3380
 2.690   11.3420
 2.689   11.3390
 2.688   11.3220
 2.686   11.3290
 2.685   11.3590
 2.683   11.3440
 2.682   11.3270
 2.680   11.3490
 2.679   11.3510
 2.678   11.3540
 2.676   11.3570
 2.675   11.3540
 2.674   11.3540
 2.672   11.3610
 2.671   11.3300
 2.670   11.3290
 2.668   11.3510
 2.667   11.3270
 2.665   11.3230
 2.664   11.3520
 2.663   11.3620
 2.661   11.3550
 2.660   11.3420
 2.659   11.3400
 2.657   11.3460
 2.656   11.3440
 2.655   11.3470
 2.653   11.3510
 2.652   11.3400
 2.650   11.3360
 2.649   11.3540
 2.648   11.3500
 2.646   11.3270
 2.645   11.3290
 2.644   11.3280
 2.642   11.3130
 2.641   11.3050
 2.640   11.3170
 2.638   11.3200
 2.637   11.3020
 2.636   11.2920
 2.634   11.3000
 2.633   11.3020
 2.632   11.2730
 2.630   11.2690
 2.629   11.2990
 2.627   11.2960
 2.626   11.2690
 2.625   11.2840
 2.624   11.3020
 2.622   11.2810
 2.621   11.2340
 2.620   11.2230
 2.618   11.2340
 2.617   11.2500
 2.616   11.2680
 2.614   11.2590
 2.613   11.2600
 2.612   11.2560
 2.610   11.2360
 2.609   11.2280
 2.608   11.2280
 2.606   11.2110
 2.605   11.2030
 2.604   11.2240
 2.603   11.1990
 2.601   11.1790
 2.600   11.2130
 2.599   11.2330
 2.597   11.2200
 2.596   11.1860
 2.595   11.1260
 2.593   11.1280
 2.592   11.1730
 2.591   11.1930
 2.590   11.1710
 2.588   11.1620
 2.587   11.1480
 2.586   11.1480
 2.584   11.1620
 2.583   11.1640
 2.582   11.1560
 2.580   11.1650
 2.579   11.1820
 2.578   11.1500
 2.577   11.1290
 2.575   11.1240
 2.574   11.1260
 2.573   11.1310
 2.571   11.1440
 2.570   11.1270
 2.569   11.1080
 2.568   11.1140
 2.566   11.1130
 2.565   11.1110
 2.564   11.1050
 2.563   11.1010
 2.561   11.1020
 2.560   11.1040
 2.559   11.0880
 2.558   11.1060
 2.556   11.1060
 2.555   11.0860
 2.554   11.0730
 2.553   11.0670
 2.551   11.0630
 2.550   11.0750
 2.549   11.0730
 2.547   11.0530
 2.546   11.0330
 2.545   11.0470
 2.544   11.0610
 2.543   11.0390
 2.541   11.0200
 2.540   10.9870
 2.539   10.9910
 2.538   11.0110
 2.536   11.0050
 2.535   10.9860
 2.534   10.9960
 2.533   10.9960
 2.531   10.9920
 2.530   10.9840
 2.529   10.9900
 2.528   10.9970
 2.526   10.9990
 2.525   10.9830
 2.524   10.9830
 2.523   10.9710
 2.522   10.9410
 2.520   10.9390
 2.519   10.9380
 2.518   10.9500
 2.517   10.9580
 2.515   10.9320
 2.514   10.9010
 2.513   10.8940
 2.512   10.8930
 2.511   10.8930
 2.509   10.8770
 2.508   10.8740
 2.507   10.8880
 2.506   10.8820
 2.504   10.8680
 2.503   10.8710
 2.502   10.8690
 2.501   10.8500
 2.500   10.8480
 2.498   10.8510
 2.497   10.8380
 2.496   10.8430
 2.495   10.8400
 2.494   10.8170
 2.492   10.8040
 2.491   10.7960
 2.490   10.7920
 2.489   10.8030
 2.488   10.8150
 2.486   10.8160
 2.485   10.8010
 2.484   10.7760
 2.483   10.7710
 2.482   10.7820
 2.481   10.7750
 2.479   10.7550
 2.478   10.7630
 2.477   10.7650
 2.476   10.7650
 2.474   10.7590
 2.473   10.7230
 2.472   10.7300
 2.471   10.7470
 2.470   10.7480
 2.469   10.7300
 2.467   10.7290
 2.466   10.7130
 2.465   10.7000
 2.464   10.6970
 2.463   10.7020
 2.462   10.6890
 2.460   10.6790
 2.459   10.6830
 2.458   10.6770
 2.457   10.6630
 2.456   10.6610
 2.455   10.6750
 2.454   10.6650
 2.452   10.6560
 2.451   10.6310
 2.450   10.6360
 2.449   10.6530
 2.448   10.6490
 2.446   10.6130
 2.445   10.5920
 2.444   10.5990
 2.443   10.6090
 2.442   10.6180
 2.441   10.5980
 2.440   10.5860
 2.438   10.5800
 2.437   10.5640
 2.436   10.5610
 2.435   10.5610
 2.434   10.5640
 2.433   10.5580
 2.432   10.5650
 2.430   10.5720
 2.429   10.5360
 2.428   10.5180
 2.427   10.5620
 2.426   10.5650
 2.425   10.5510
 2.424   10.5630
 2.422   10.5530
 2.421   10.5270
 2.420   10.5140
 2.419   10.5250
 2.418   10.5240
 2.417   10.5030
 2.416   10.4920
 2.415   10.4810
 2.414   10.4690
 2.412   10.4960
 2.411   10.4840
 2.410   10.4740
 2.409   10.4710
 2.408   10.4620
 2.407   10.4540
 2.406   10.4600
 2.405   10.4560
 2.403   10.4380
 2.402   10.4200
 2.401   10.4360
 2.400   10.4490
 2.399   10.4490
 2.398   10.4380
 2.397   10.4220
 2.396   10.3960
 2.394   10.3940
 2.393   10.4210
 2.392   10.4280
 2.391   10.4110
 2.390   10.3950
 2.389   10.4050
 2.388   10.4130
 2.387   10.3990
 2.386   10.3940
 2.385   10.3900
 2.384   10.3840
 2.382   10.4010
 2.381   10.3890
 2.380   10.3620
 2.379   10.3840
 2.378   10.3710
 2.377   10.3650
 2.376   10.3700
 2.375   10.3510
 2.374   10.3260
 2.373   10.3270
 2.372   10.3260
 2.370   10.3330
 2.369   10.3370
 2.368   10.3340
 2.367   10.2900
 2.366   10.2770
 2.365   10.3010
 2.364   10.3160
 2.363   10.3190
 2.362   10.3200
 2.361   10.3150
 2.360   10.2800
 2.359   10.2950
 2.357   10.3150
 2.356   10.2690
 2.355   10.2690
 2.354   10.2810
 2.353   10.2660
 2.352   10.2410
 2.351   10.2730
 2.350   10.2900
 2.349   10.2660
 2.348   10.2690
 2.347   10.2600
 2.346   10.2400
 2.345   10.2510
 2.344   10.2260
 2.343   10.2050
 2.341   10.2180
 2.341   10.1910
 2.339   10.1630
 2.338   10.1720
 2.337   10.1990
 2.336   10.2220
 2.335   10.2000
 2.334   10.1630
 2.333   10.1840
 2.332   10.1990
 2.331   10.1750
 2.330   10.1460
 2.329   10.1440
 2.328   10.1620
 2.327   10.1650
 2.326   10.1750
 2.325   10.1660
 2.324   10.1170
 2.323   10.1390
 2.322   10.1390
 2.321   10.1090
 2.320   10.1140
 2.318   10.1130
 2.317   10.1040
 2.316   10.1230
 2.315   10.1130
 2.314   10.0790
 2.313   10.0830
 2.312   10.0800
 2.311   10.0800
 2.310   10.0680
 2.309   10.0630
 2.308   10.0810
 2.307   10.1220
 2.306   10.1050
 2.305   10.0910
 2.304   10.0870
 2.303   10.0640
 2.302   10.0610
 2.301   10.0690
 2.300   10.0530
 2.299   10.0620
 2.298   10.0700
 2.297   10.0550
 2.296   10.0610
 2.295   10.0680
 2.294   10.0450
 2.293   10.0210
 2.292   10.0360
 2.291   10.0250
 2.290   10.0440
 2.289   10.0440
 2.288    9.9961
 2.287    9.9980
 2.286   10.0300
 2.285   10.0180
 2.284    9.9795
 2.283    9.9746
 2.282   10.0110
 2.281   10.0380
 2.280   10.0080
 2.279   10.0030
 2.278    9.9746
 2.277    9.9599
 2.276    9.9863
 2.275    9.9819
 2.274    9.9634
 2.273    9.9604
 2.272    9.9682
 2.271    9.9614
 2.270    9.9673
 2.269    9.9697
 2.268    9.9865
 2.267    9.9873
 2.266    9.9289
 2.265    9.9428
 2.264    9.9802
 2.263    9.9634
 2.262    9.9233
 2.261    9.9414
 2.260    9.9360
 2.259    9.9201
 2.258    9.8882
 2.257    9.8618
 2.256    9.8552
 2.255    9.8772
 2.254    9.9167
 2.253    9.9236
 2.252    9.9170
 2.251    9.9211
 2.250    9.9575
 2.249    9.9438
 2.248    9.9443
 2.247    9.9367
 2.246    9.9218
 2.245    9.9126
 2.244    9.8989
 2.243    9.8830
 2.242    9.9040
 2.241    9.8984
 2.240    9.8843
 2.239    9.8857
 2.238    9.8896
 2.237    9.8703
 2.236    9.8684
 2.236    9.8664
 2.235    9.9055
 2.234    9.9135
 2.233    9.8901
 2.232    9.9033
 2.231    9.9131
 2.230    9.9126
 2.229    9.8972
 2.228    9.8398
 2.227    9.8225
 2.226    9.8474
 2.225    9.8476
 2.224    9.8718
 2.223    9.8852
 2.222    9.8532
 2.221    9.8523
 2.220    9.8733
 2.219    9.8496
 2.218    9.8232
 2.217    9.8203
 2.216    9.8191
 2.216    9.8491
 2.215    9.8508
 2.214    9.8276
 2.213    9.8376
 2.212    9.8274
 2.211    9.8081
 2.210    9.8261
 2.209    9.8352
 2.208    9.8022
 2.207    9.8054
 2.206    9.8384
 2.205    9.8252
 2.204    9.7959
 2.203    9.7851
 2.202    9.7905
 2.201    9.8017
 2.200    9.8335
 2.200    9.8381
 2.199    9.8200
 2.198    9.7881
 2.197    9.7671
 2.196    9.7734
 2.195    9.7771
 2.194    9.7837
 2.193    9.7519
 2.192    9.7373
 2.191    9.7529
 2.190    9.7651
 2.189    9.7746
 2.188    9.7512
 2.187    9.7412
 2.187    9.7500
 2.186    9.7544
 2.185    9.7607
 2.184    9.7534
 2.183    9.7229
 2.182    9.7287
 2.181    9.7632
 2.180    9.7197
 2.179    9.6567
 2.178    9.6653
 2.177    9.7070
 2.176    9.7085
 2.176    9.7019
 2.175    9.7051
 2.174    9.6950
 2.173    9.7239
 2.172    9.6789
 2.171    9.6399
 2.170    9.6279
 2.169    9.6604
 2.168    9.6899
 2.167    9.6784
 2.166    9.6469
 2.166    9.6574
 2.165    9.6601
 2.164    9.6682
 2.163    9.6743
 2.162    9.6469
 2.161    9.6281
 2.160    9.6333
 2.159    9.6145
 2.158    9.6145
 2.157    9.6389
 2.156    9.6899
 2.156    9.6963
 2.155    9.6587
 2.154    9.6465
 2.153    9.6355
 2.152    9.6294
 2.151    9.5976
 2.150    9.5993
 2.149    9.6457
 2.148    9.6440
 2.148    9.6054
 2.147    9.5920
 2.146    9.6233
 2.145    9.6406
 2.144    9.6047
 2.143    9.5835
 2.142    9.6191
 2.141    9.6135
 2.140    9.5840
 2.140    9.5971
 2.139    9.6147
 2.138    9.6172
 2.137    9.5854
 2.136    9.5488
 2.135    9.5415
 2.134    9.5842
 2.133    9.5989
 2.132    9.6069
 2.132    9.5979
 2.131    9.5803
 2.130    9.5747
 2.129    9.5637
 2.128    9.5705
 2.127    9.5715
 2.126    9.5757
 2.126    9.5696
 2.125    9.5656
 2.124    9.6006
 2.123    9.6054
 2.122    9.6096
 2.121    9.5937
 2.120    9.5952
 2.119    9.5735
 2.119    9.5600
 2.118    9.5434
 2.117    9.5420
 2.116    9.5659
 2.115    9.5725
 2.114    9.5708
 2.113    9.5312
 2.112    9.5512
 2.112    9.5461
 2.111    9.5459
 2.110    9.5569
 2.109    9.5403
 2.108    9.5171
 2.107    9.5246
 2.107    9.5503
 2.106    9.5627
 2.105    9.5342
 2.104    9.5454
 2.103    9.5205
 2.102    9.4795
 2.101    9.5166
 2.100    9.4973
 2.100    9.4780
 2.099    9.5171
 2.098    9.4858
 2.097    9.4985
 2.096    9.5190
 2.095    9.5178
 2.095    9.5110
 2.094    9.5129
 2.093    9.5010
 2.092    9.4797
 2.091    9.4778
 2.090    9.5100
 2.090    9.4924
 2.089    9.4992
 2.088    9.4863
 2.087    9.4267
 2.086    9.4592
 2.085    9.4760
 2.084    9.4780
 2.084    9.4863
 2.083    9.4790
 2.082    9.4521
 2.081    9.4531
 2.080    9.4446
 2.079    9.4863
