Name: Granodiorite
Type: Rocks
Class: Igneous
Subclass: Intermediate
Particle Size: 0-75 micrometers
Sample No.: Granodior.H2
Owner: JHU
Wavelength Range: All
Origin:  Santa Rita Mountains, Arizona, via Smithsonian (Cat. No: NMNH 
113640-10)
Description: Sample from which powder was derived is a dark gray 
medium-grained rock consisting of light gray plagioclase grains, white to 
pinkish feldspar (plagioclase >> alkali feldspar), green epidote or apatite, a 
black mafic phase and quartz.


Measurement: Directional (10 degree) hemispherical reflectance
First Column: X
Second Column: Y
X Units: Wavelength (micrometers)
Y Units: Reflectance (percent)
First X Value: 14.0112
Last X Value: 0.4000
Number of X Values: 2844
Additional information: gradio2a.txt

14.011	2.9184
13.973	3.1875
13.936	2.4563
13.899	0.8175
13.861	1.1175
13.824	1.7372
13.788	0.9010
13.751	0.7257
13.715	1.2506
13.679	1.4447
13.643	0.8091
13.607	0.8100
13.571	0.8981
13.536	1.4194
13.500	1.8660
13.465	1.9837
13.430	1.5994
13.396	1.8140
13.361	1.4414
13.327	0.9660
13.293	1.0210
13.259	1.1025
13.225	1.2347
13.191	1.2928
13.158	1.5124
13.124	1.9512
13.091	1.7343
13.058	1.3013
13.026	1.3186
12.993	1.4834
12.960	1.3491
12.928	1.5086
12.896	1.6953
12.864	1.7171
12.832	1.6571
12.800	1.5164
12.769	1.4550
12.737	1.5614
12.706	1.6158
12.675	1.7742
12.644	1.8187
12.614	1.9416
12.583	2.0016
12.552	1.9987
12.522	1.9050
12.492	2.0218
12.462	2.2683
12.432	2.4229
12.402	2.4633
12.373	2.6496
12.343	2.8617
12.314	3.0455
12.285	3.1017
12.256	3.0098
12.227	3.3026
12.198	3.7252
12.169	3.8540
12.141	4.0034
12.113	4.1339
12.084	4.1953
12.056	4.1847
12.028	4.1707
12.000	4.1639
11.973	4.2708
11.945	4.3680
11.918	4.4247
11.890	4.4742
11.863	4.5853
11.836	4.6882
11.809	4.6535
11.782	4.5930
11.755	4.5719
11.729	4.5825
11.702	4.6620
11.676	4.6259
11.650	4.5745
11.624	4.5703
11.598	4.5467
11.572	4.5392
11.546	4.5408
11.520	4.5112
11.495	4.5068
11.469	4.4843
11.444	4.4351
11.419	4.3793
11.394	4.3164
11.369	4.2776
11.344	4.3504
11.319	4.3034
11.294	4.2823
11.270	4.2660
11.245	4.1993
11.221	4.1463
11.197	4.1036
11.173	4.0163
11.149	3.9180
11.125	3.8876
11.101	3.8273
11.077	3.7031
11.054	3.6392
11.030	3.5896
11.007	3.5247
10.983	3.5149
10.960	3.4818
10.937	3.3829
10.914	3.3660
10.891	3.2691
10.868	3.1955
10.846	3.2128
10.823	3.2013
10.800	3.0564
10.778	3.0607
10.755	3.0949
10.733	3.1483
10.711	3.1277
10.689	3.0577
10.667	3.0211
10.645	3.0379
10.623	3.0204
10.602	3.0028
10.580	3.0084
10.558	3.0119
10.537	3.0023
10.516	3.0421
10.494	3.0743
10.473	3.0516
10.452	3.0394
10.431	3.0900
10.410	3.0588
10.389	3.0119
10.368	3.0016
10.348	3.0501
10.327	3.0949
10.306	3.0930
10.286	3.1005
10.266	3.1420
10.245	3.0593
10.225	3.0886
10.205	3.2121
10.185	3.1816
10.165	3.1429
10.145	3.1324
10.125	3.1169
10.106	3.1865
10.086	3.1891
10.066	3.1563
10.047	3.1903
10.027	3.2250
10.008	3.2348
9.9887	3.2646
9.9695	3.2442
9.9504	3.2376
9.9313	3.2639
9.9123	3.2930
9.8934	3.2576
9.8746	3.1985
9.8558	3.1896
9.8371	3.2177
9.8185	3.2011
9.7999	3.1767
9.7814	3.1860
9.7630	3.1629
9.7447	3.1488
9.7264	3.1467
9.7082	3.1774
9.6900	3.2789
9.6719	3.2447
9.6539	3.2264
9.6360	3.2862
9.6181	3.3155
9.6003	3.3080
9.5825	3.3572
9.5649	3.3296
9.5472	3.3249
9.5297	3.3257
9.5122	3.2646
9.4948	3.1974
9.4774	3.1859
9.4601	3.1854
9.4429	3.2135
9.4257	3.2006
9.4086	3.1896
9.3916	3.2091
9.3746	3.2442
9.3577	3.2714
9.3408	3.3296
9.3240	3.3631
9.3073	3.3293
9.2906	3.3473
9.2740	3.4106
9.2574	3.4024
9.2409	3.3302
9.2245	3.3499
9.2081	3.2766
9.1918	3.0033
9.1755	3.1359
9.1593	3.2655
9.1431	3.2008
9.1270	3.1711
9.1110	3.1502
9.0950	3.1478
9.0791	3.1260
9.0632	3.0715
9.0474	3.0769
9.0316	3.0820
9.0159	3.0602
9.0003	3.0825
8.9847	3.0968
8.9691	3.0836
8.9536	3.0652
8.9382	3.0853
8.9228	3.0811
8.9075	3.0776
8.8922	3.1067
8.8770	3.0875
8.8618	3.0888
8.8467	3.1345
8.8316	3.1764
8.8166	3.1634
8.8016	3.1735
8.7867	3.2083
8.7718	3.2367
8.7570	3.2496
8.7422	3.2065
8.7275	3.1605
8.7129	3.1950
8.6982	3.2444
8.6837	3.2049
8.6692	3.1667
8.6547	3.1436
8.6403	3.1010
8.6259	3.0436
8.6116	3.0823
8.5973	3.2114
8.5830	3.3023
8.5688	3.3236
8.5547	3.3576
8.5406	3.4020
8.5266	3.4416
8.5126	3.4594
8.4986	3.4280
8.4847	3.4472
8.4708	3.4524
8.4570	3.4802
8.4432	3.5578
8.4295	3.5885
8.4158	3.5686
8.4022	3.6077
8.3886	3.6488
8.3750	3.6733
8.3615	3.6703
8.3481	3.7080
8.3347	3.7317
8.3213	3.7197
8.3079	3.7439
8.2946	3.7795
8.2814	3.7756
8.2682	3.7659
8.2550	3.7985
8.2419	3.8102
8.2288	3.7800
8.2158	3.7603
8.2028	3.7680
8.1898	3.7231
8.1769	3.6517
8.1640	3.6124
8.1512	3.5571
8.1384	3.4629
8.1256	3.3896
8.1129	3.3153
8.1002	3.2317
8.0876	3.1751
8.0750	3.1392
8.0624	3.0618
8.0499	2.9974
8.0374	2.9820
8.0250	2.9606
8.0126	2.9210
8.0002	3.0042
7.9879	3.1031
7.9756	2.9616
7.9634	2.8737
7.9512	2.8399
7.9390	2.8231
7.9268	2.8259
7.9147	2.8275
7.9027	2.8306
7.8906	2.8748
7.8786	2.8751
7.8667	2.8521
7.8548	2.8486
7.8429	2.8903
7.8310	2.9234
7.8192	2.9491
7.8075	2.9867
7.7957	3.0450
7.7840	3.0940
7.7723	3.1120
7.7607	3.1615
7.7491	3.2327
7.7375	3.2782
7.7260	3.3324
7.7145	3.3875
7.7031	3.4519
7.6916	3.5224
7.6802	3.5653
7.6689	3.5958
7.6575	3.6068
7.6462	3.6548
7.6350	3.7525
7.6238	3.8171
7.6126	3.8597
7.6014	3.9129
7.5903	3.9558
7.5792	4.0200
7.5681	4.1140
7.5571	4.1808
7.5461	4.2366
7.5351	4.3083
7.5242	4.3638
7.5133	4.3976
7.5024	4.4309
7.4916	4.4847
7.4807	4.5420
7.4700	4.6005
7.4592	4.6533
7.4485	4.6912
7.4378	4.7369
7.4272	4.7899
7.4165	4.8368
7.4059	4.8933
7.3954	4.9584
7.3848	4.9980
7.3743	5.0351
7.3639	5.0733
7.3534	5.1239
7.3430	5.1480
7.3326	5.1584
7.3223	5.2041
7.3119	5.2668
7.3016	5.3002
7.2914	5.3299
7.2811	5.3634
7.2709	5.3763
7.2607	5.4101
7.2506	5.4581
7.2404	5.4832
7.2303	5.5226
7.2203	5.5252
7.2102	5.5369
7.2002	5.5868
7.1902	5.6065
7.1803	5.5940
7.1703	5.5894
7.1604	5.6254
7.1506	5.6700
7.1407	5.7133
7.1309	5.7804
7.1211	5.8423
7.1113	5.8896
7.1016	5.9426
7.0919	5.9831
7.0822	5.9979
7.0725	5.9800
7.0629	5.9590
7.0533	5.9836
7.0437	5.9845
7.0341	6.0361
7.0246	6.0496
7.0151	6.0527
7.0056	6.0626
6.9962	6.0834
6.9867	6.1137
6.9773	6.1356
6.9679	6.1221
6.9586	6.1117
6.9493	6.1720
6.9400	6.2233
6.9307	6.2449
6.9214	6.2740
6.9122	6.2854
6.9030	6.2911
6.8938	6.3096
6.8847	6.3403
6.8755	6.3543
6.8664	6.3274
6.8573	6.3865
6.8483	6.5057
6.8393	6.5428
6.8302	6.5301
6.8213	6.5784
6.8123	6.6686
6.8034	6.7213
6.7944	6.6907
6.7855	6.6935
6.7767	6.7779
6.7678	6.8482
6.7590	6.9307
6.7502	6.9785
6.7414	7.0547
6.7327	7.0978
6.7239	7.1374
6.7152	7.1641
6.7065	7.2412
6.6979	7.3394
6.6892	7.3835
6.6806	7.4320
6.6720	7.5467
6.6634	7.6610
6.6549	7.7615
6.6464	7.7615
6.6378	7.7402
6.6294	7.8729
6.6209	8.0294
6.6124	8.1337
6.6040	8.2020
6.5956	8.2406
6.5872	8.3142
6.5789	8.3463
6.5705	8.3688
6.5622	8.4949
6.5539	8.5797
6.5456	8.6868
6.5374	8.8179
6.5292	8.8948
6.5209	8.9358
6.5128	9.0759
6.5046	9.1540
6.4964	9.0806
6.4883	9.1535
6.4802	9.3539
6.4721	9.4924
6.4640	9.6206
6.4560	9.7045
6.4480	9.7549
6.4399	9.7889
6.4320	9.7553
6.4240	9.6921
6.4160	9.5381
6.4081	9.5899
6.4002	9.7748
6.3923	9.7935
6.3844	9.7935
6.3766	9.7402
6.3687	9.6651
6.3609	9.6684
6.3531	9.5845
6.3454	9.3878
6.3376	9.3776
6.3299	9.4594
6.3221	9.4176
6.3144	9.3480
6.3068	9.2955
6.2991	9.2503
6.2914	9.2028
6.2838	9.1181
6.2762	9.0548
6.2686	9.0220
6.2611	8.9937
6.2535	8.9426
6.2460	8.9057
6.2385	8.8692
6.2310	8.8455
6.2235	8.8406
6.2160	8.8008
6.2086	8.7902
6.2011	8.8073
6.1937	8.7722
6.1863	8.6808
6.1790	8.7563
6.1716	8.8927
6.1643	8.9510
6.1570	9.0159
6.1496	9.0829
6.1424	9.1230
6.1351	9.2339
6.1278	9.3229
6.1206	9.2971
6.1134	9.2686
6.1062	9.4167
6.0990	9.5435
6.0918	9.5859
6.0847	9.6220
6.0776	9.6096
6.0704	9.6597
6.0633	9.7882
6.0563	9.7399
6.0492	9.6030
6.0421	9.7746
6.0351	9.9876
6.0281	10.058
6.0211	10.077
6.0141	10.071
6.0071	10.146
6.0002	10.193
5.9932	10.139
5.9863	10.121
5.9794	10.162
5.9725	10.116
5.9657	10.119
5.9588	10.221
5.9520	10.244
5.9451	10.190
5.9383	10.040
5.9315	10.098
5.9247	10.315
5.9180	10.427
5.9112	10.495
5.9045	10.508
5.8978	10.438
5.8911	10.535
5.8844	10.571
5.8777	10.638
5.8711	10.882
5.8644	10.965
5.8578	11.051
5.8512	11.129
5.8446	11.183
5.8380	11.215
5.8314	11.217
5.8249	11.153
5.8184	11.220
5.8118	11.369
5.8053	11.434
5.7988	11.455
5.7923	11.483
5.7859	11.485
5.7794	11.466
5.7730	11.408
5.7666	11.305
5.7602	11.399
5.7538	11.510
5.7474	11.503
5.7410	11.541
5.7347	11.554
5.7283	11.560
5.7220	11.555
5.7157	11.523
5.7094	11.504
5.7031	11.571
5.6969	11.597
5.6906	11.573
5.6844	11.549
5.6782	11.501
5.6719	11.491
5.6657	11.516
5.6596	11.446
5.6534	11.394
5.6472	11.366
5.6411	11.302
5.6349	11.346
5.6288	11.418
5.6227	11.433
5.6166	11.411
5.6106	11.407
5.6045	11.427
5.5984	11.443
5.5924	11.451
5.5864	11.416
5.5804	11.341
5.5744	11.362
5.5684	11.500
5.5624	11.593
5.5564	11.680
5.5505	11.823
5.5445	12.022
5.5386	12.224
5.5327	12.393
5.5268	12.546
5.5209	12.676
5.5151	12.832
5.5092	13.006
5.5033	13.140
5.4975	13.258
5.4917	13.359
5.4859	13.448
5.4801	13.518
5.4743	13.621
5.4685	13.712
5.4628	13.815
5.4570	13.960
5.4513	14.052
5.4455	14.116
5.4398	14.187
5.4341	14.256
5.4284	14.257
5.4228	14.199
5.4171	14.252
5.4114	14.323
5.4058	14.322
5.4002	14.286
5.3945	14.216
5.3889	14.137
5.3833	14.084
5.3778	14.028
5.3722	13.973
5.3666	13.936
5.3611	13.938
5.3555	13.946
5.3500	13.938
5.3445	13.984
5.3390	14.075
5.3335	14.147
5.3280	14.210
5.3225	14.274
5.3171	14.349
5.3116	14.439
5.3062	14.536
5.3008	14.615
5.2954	14.668
5.2900	14.772
5.2846	14.918
5.2792	15.024
5.2738	15.153
5.2684	15.276
5.2631	15.413
5.2578	15.558
5.2524	15.720
5.2471	15.868
5.2418	16.007
5.2365	16.187
5.2312	16.386
5.2260	16.555
5.2207	16.718
5.2154	16.843
5.2102	16.985
5.2050	17.144
5.1998	17.253
5.1945	17.341
5.1893	17.430
5.1842	17.512
5.1790	17.611
5.1738	17.706
5.1686	17.777
5.1635	17.843
5.1584	17.933
5.1532	18.014
5.1481	18.056
5.1430	18.147
5.1379	18.243
5.1328	18.315
5.1277	18.412
5.1227	18.514
5.1176	18.604
5.1126	18.661
5.1075	18.722
5.1025	18.802
5.0975	18.877
5.0925	18.900
5.0875	18.921
5.0825	18.972
5.0775	18.996
5.0726	19.032
5.0676	19.091
5.0627	19.128
5.0577	19.175
5.0528	19.210
5.0479	19.244
5.0430	19.267
5.0380	19.287
5.0332	19.318
5.0283	19.299
5.0234	19.259
5.0185	19.269
5.0137	19.325
5.0088	19.398
5.0040	19.461
4.9992	19.513
4.9944	19.573
4.9896	19.673
4.9848	19.738
4.9800	19.788
4.9752	19.887
4.9704	20.041
4.9657	20.178
4.9609	20.286
4.9562	20.384
4.9514	20.479
4.9467	20.571
4.9420	20.626
4.9373	20.667
4.9326	20.728
4.9279	20.776
4.9232	20.846
4.9186	20.945
4.9139	21.045
4.9092	21.126
4.9046	21.253
4.9000	21.366
4.8953	21.487
4.8907	21.580
4.8861	21.666
4.8815	21.758
4.8769	21.831
4.8723	21.920
4.8678	22.000
4.8632	22.083
4.8586	22.175
4.8541	22.251
4.8495	22.307
4.8450	22.348
4.8405	22.370
4.8360	22.437
4.8315	22.516
4.8270	22.542
4.8225	22.588
4.8180	22.624
4.8135	22.648
4.8090	22.675
4.8046	22.716
4.8001	22.762
4.7957	22.809
4.7913	22.825
4.7868	22.875
4.7824	22.928
4.7780	22.994
4.7736	23.073
4.7692	23.142
4.7648	23.185
4.7605	23.277
4.7561	23.365
4.7517	23.425
4.7474	23.477
4.7431	23.528
4.7387	23.588
4.7344	23.685
4.7301	23.732
4.7258	23.772
4.7215	23.844
4.7172	23.898
4.7129	23.920
4.7086	23.929
4.7043	23.981
4.7000	24.007
4.6958	24.044
4.6915	24.078
4.6873	24.109
4.6831	24.140
4.6788	24.193
4.6746	24.238
4.6704	24.288
4.6662	24.351
4.6620	24.406
4.6578	24.475
4.6536	24.548
4.6495	24.594
4.6453	24.652
4.6411	24.707
4.6370	24.763
4.6328	24.841
4.6287	24.940
4.6246	24.993
4.6205	25.042
4.6163	25.128
4.6122	25.205
4.6081	25.273
4.6040	25.350
4.6000	25.422
4.5959	25.428
4.5918	25.497
4.5877	25.617
4.5837	25.709
4.5796	25.784
4.5756	25.833
4.5716	25.889
4.5675	25.984
4.5635	26.067
4.5595	26.136
4.5555	26.192
4.5515	26.245
4.5475	26.325
4.5435	26.392
4.5395	26.430
4.5356	26.485
4.5316	26.546
4.5276	26.604
4.5237	26.650
4.5197	26.699
4.5158	26.767
4.5119	26.815
4.5080	26.840
4.5040	26.857
4.5001	26.896
4.4962	26.946
4.4923	26.990
4.4884	27.002
4.4846	27.034
4.4807	27.123
4.4768	27.178
4.4730	27.212
4.4691	27.246
4.4652	27.299
4.4614	27.361
4.4576	27.401
4.4537	27.444
4.4499	27.496
4.4461	27.553
4.4423	27.588
4.4385	27.640
4.4347	27.701
4.4309	27.733
4.4271	27.770
4.4233	27.823
4.4196	27.874
4.4158	27.905
4.4120	27.921
4.4083	27.971
4.4045	28.044
4.4008	28.078
4.3971	28.104
4.3934	28.156
4.3896	28.209
4.3859	28.237
4.3822	28.251
4.3785	28.312
4.3748	28.380
4.3711	28.412
4.3674	28.440
4.3638	28.473
4.3601	28.517
4.3564	28.547
4.3528	28.593
4.3491	28.621
4.3455	28.645
4.3418	28.681
4.3382	28.727
4.3346	28.755
4.3310	28.772
4.3273	28.795
4.3237	28.817
4.3201	28.866
4.3165	28.904
4.3129	28.917
4.3094	28.937
4.3058	28.970
4.3022	28.989
4.2986	28.991
4.2951	29.015
4.2915	29.020
4.2880	29.019
4.2844	29.060
4.2809	29.091
4.2774	29.136
4.2738	29.172
4.2703	29.174
4.2668	29.190
4.2633	29.218
4.2598	29.273
4.2563	29.298
4.2528	29.293
4.2493	29.292
4.2458	29.302
4.2424	29.327
4.2389	29.366
4.2354	29.376
4.2320	29.386
4.2285	29.414
4.2251	29.423
4.2216	29.451
4.2182	29.499
4.2148	29.529
4.2113	29.544
4.2079	29.581
4.2045	29.609
4.2011	29.628
4.1977	29.623
4.1943	29.648
4.1909	29.679
4.1875	29.692
4.1841	29.694
4.1808	29.713
4.1774	29.711
4.1740	29.727
4.1707	29.753
4.1673	29.761
4.1640	29.787
4.1606	29.816
4.1573	29.833
4.1540	29.822
4.1506	29.830
4.1473	29.845
4.1440	29.844
4.1407	29.879
4.1374	29.893
4.1341	29.909
4.1308	29.931
4.1275	29.942
4.1242	29.946
4.1209	29.936
4.1177	29.944
4.1144	29.964
4.1111	29.992
4.1079	30.001
4.1046	29.996
4.1014	30.038
4.0981	30.067
4.0949	30.051
4.0917	30.050
4.0884	30.031
4.0852	30.037
4.0820	30.085
4.0788	30.091
4.0756	30.076
4.0724	30.086
4.0692	30.100
4.0660	30.105
4.0628	30.099
4.0596	30.109
4.0565	30.116
4.0533	30.104
4.0501	30.084
4.0470	30.094
4.0438	30.101
4.0406	30.081
4.0375	30.028
4.0344	30.008
4.0312	30.004
4.0281	29.997
4.0250	29.972
4.0218	29.909
4.0187	29.905
4.0156	29.886
4.0125	29.828
4.0094	29.786
4.0063	29.764
4.0032	29.731
4.0001	29.651
3.9970	29.577
3.9940	29.501
3.9909	29.454
3.9878	29.410
3.9847	29.353
3.9817	29.349
3.9786	29.361
3.9756	29.333
3.9725	29.338
3.9695	29.388
3.9665	29.426
3.9634	29.452
3.9604	29.512
3.9574	29.614
3.9544	29.669
3.9513	29.709
3.9483	29.816
3.9453	29.940
3.9423	29.987
3.9393	30.013
3.9363	30.050
3.9333	30.111
3.9304	30.139
3.9274	30.139
3.9244	30.170
3.9214	30.184
3.9185	30.191
3.9155	30.200
3.9126	30.194
3.9096	30.221
3.9067	30.247
3.9037	30.251
3.9008	30.263
3.8979	30.256
3.8949	30.246
3.8920	30.264
3.8891	30.298
3.8862	30.301
3.8833	30.304
3.8804	30.304
3.8775	30.309
3.8746	30.326
3.8717	30.340
3.8688	30.313
3.8659	30.325
3.8630	30.353
3.8601	30.345
3.8573	30.341
3.8544	30.344
3.8515	30.359
3.8487	30.375
3.8458	30.372
3.8430	30.393
3.8401	30.396
3.8373	30.409
3.8344	30.422
3.8316	30.437
3.8288	30.456
3.8259	30.463
3.8231	30.474
3.8203	30.531
3.8175	30.566
3.8147	30.555
3.8119	30.563
3.8091	30.568
3.8063	30.586
3.8035	30.604
3.8007	30.619
3.7979	30.637
3.7951	30.662
3.7924	30.650
3.7896	30.656
3.7868	30.677
3.7841	30.653
3.7813	30.632
3.7785	30.625
3.7758	30.614
3.7730	30.646
3.7703	30.677
3.7676	30.672
3.7648	30.634
3.7621	30.649
3.7594	30.656
3.7566	30.636
3.7539	30.622
3.7512	30.623
3.7485	30.627
3.7458	30.627
3.7431	30.629
3.7404	30.622
3.7377	30.604
3.7350	30.606
3.7323	30.599
3.7296	30.590
3.7269	30.592
3.7242	30.589
3.7216	30.590
3.7189	30.611
3.7162	30.586
3.7136	30.586
3.7109	30.590
3.7083	30.563
3.7056	30.566
3.7030	30.573
3.7003	30.564
3.6977	30.524
3.6950	30.524
3.6924	30.566
3.6898	30.543
3.6872	30.524
3.6845	30.500
3.6819	30.491
3.6793	30.547
3.6767	30.565
3.6741	30.524
3.6715	30.526
3.6689	30.517
3.6663	30.506
3.6637	30.504
3.6611	30.505
3.6585	30.467
3.6560	30.456
3.6534	30.469
3.6508	30.473
3.6482	30.436
3.6457	30.449
3.6431	30.473
3.6406	30.469
3.6380	30.444
3.6355	30.422
3.6329	30.410
3.6304	30.400
3.6278	30.385
3.6253	30.355
3.6227	30.346
3.6202	30.360
3.6177	30.350
3.6152	30.334
3.6127	30.349
3.6101	30.314
3.6076	30.304
3.6051	30.309
3.6026	30.294
3.6001	30.276
3.5976	30.250
3.5951	30.244
3.5926	30.229
3.5901	30.204
3.5876	30.174
3.5852	30.195
3.5827	30.179
3.5802	30.140
3.5777	30.137
3.5753	30.129
3.5728	30.110
3.5704	30.109
3.5679	30.118
3.5654	30.105
3.5630	30.074
3.5605	30.045
3.5581	30.003
3.5557	29.991
3.5532	29.999
3.5508	30.007
3.5484	29.971
3.5459	29.926
3.5435	29.893
3.5411	29.870
3.5387	29.839
3.5363	29.834
3.5338	29.792
3.5314	29.750
3.5290	29.725
3.5266	29.688
3.5242	29.648
3.5218	29.610
3.5195	29.579
3.5171	29.535
3.5147	29.481
3.5123	29.424
3.5099	29.378
3.5075	29.317
3.5052	29.235
3.5028	29.204
3.5004	29.190
3.4981	29.173
3.4957	29.138
3.4934	29.111
3.4910	29.103
3.4887	29.085
3.4863	29.041
3.4840	29.029
3.4816	29.038
3.4793	29.021
3.4770	28.952
3.4746	28.938
3.4723	28.952
3.4700	28.958
3.4677	28.986
3.4653	29.027
3.4630	29.035
3.4607	29.025
3.4584	29.030
3.4561	29.019
3.4538	28.989
3.4515	28.967
3.4492	28.939
3.4469	28.932
3.4446	28.911
3.4423	28.876
3.4400	28.826
3.4378	28.805
3.4355	28.786
3.4332	28.748
3.4309	28.690
3.4287	28.634
3.4264	28.578
3.4241	28.527
3.4219	28.478
3.4196	28.461
3.4174	28.428
3.4151	28.382
3.4129	28.367
3.4106	28.334
3.4084	28.313
3.4061	28.323
3.4039	28.309
3.4017	28.292
3.3994	28.268
3.3972	28.248
3.3950	28.244
3.3928	28.233
3.3906	28.190
3.3883	28.152
3.3861	28.103
3.3839	28.078
3.3817	28.076
3.3795	28.035
3.3773	28.025
3.3751	28.000
3.3729	27.960
3.3707	27.959
3.3685	27.955
3.3663	27.912
3.3641	27.846
3.3620	27.828
3.3598	27.807
3.3576	27.717
3.3554	27.670
3.3533	27.627
3.3511	27.597
3.3489	27.588
3.3468	27.564
3.3446	27.538
3.3425	27.532
3.3403	27.526
3.3382	27.535
3.3360	27.511
3.3339	27.452
3.3317	27.440
3.3296	27.436
3.3274	27.406
3.3253	27.372
3.3232	27.324
3.3210	27.264
3.3189	27.245
3.3168	27.206
3.3147	27.153
3.3126	27.115
3.3104	27.091
3.3083	27.059
3.3062	26.983
3.3041	26.935
3.3020	26.918
3.2999	26.880
3.2978	26.836
3.2957	26.756
3.2936	26.734
3.2915	26.718
3.2894	26.678
3.2874	26.615
3.2853	26.564
3.2832	26.504
3.2811	26.440
3.2790	26.400
3.2770	26.325
3.2749	26.267
3.2728	26.241
3.2708	26.178
3.2687	26.157
3.2666	26.091
3.2646	26.025
3.2625	25.983
3.2605	25.963
3.2584	25.916
3.2564	25.832
3.2543	25.779
3.2523	25.719
3.2503	25.671
3.2482	25.631
3.2462	25.554
3.2442	25.476
3.2421	25.408
3.2401	25.353
3.2381	25.275
3.2361	25.214
3.2340	25.167
3.2320	25.082
3.2300	25.007
3.2280	24.940
3.2260	24.904
3.2240	24.816
3.2220	24.732
3.2200	24.678
3.2180	24.606
3.2160	24.523
3.2140	24.452
3.2120	24.410
3.2100	24.326
3.2080	24.253
3.2060	24.176
3.2040	24.070
3.2021	23.975
3.2001	23.927
3.1981	23.860
3.1961	23.750
3.1942	23.656
3.1922	23.560
3.1902	23.527
3.1883	23.497
3.1863	23.405
3.1844	23.281
3.1824	23.184
3.1805	23.119
3.1785	23.075
3.1766	23.004
3.1746	22.937
3.1727	22.850
3.1707	22.746
3.1688	22.640
3.1669	22.536
3.1649	22.460
3.1630	22.377
3.1611	22.315
3.1591	22.271
3.1572	22.183
3.1553	22.105
3.1534	22.025
3.1515	21.935
3.1495	21.853
3.1476	21.756
3.1457	21.693
3.1438	21.598
3.1419	21.486
3.1400	21.391
3.1381	21.304
3.1362	21.205
3.1343	21.118
3.1324	21.025
3.1305	20.970
3.1286	20.872
3.1268	20.746
3.1249	20.660
3.1230	20.551
3.1211	20.442
3.1192	20.367
3.1174	20.253
3.1155	20.174
3.1136	20.095
3.1117	19.961
3.1099	19.895
3.1080	19.840
3.1061	19.717
3.1043	19.634
3.1024	19.567
3.1006	19.453
3.0987	19.341
3.0969	19.276
3.0950	19.207
3.0932	19.104
3.0913	18.993
3.0895	18.900
3.0876	18.822
3.0858	18.740
3.0840	18.658
3.0821	18.573
3.0803	18.510
3.0785	18.445
3.0766	18.371
3.0748	18.292
3.0730	18.170
3.0712	18.078
3.0694	18.018
3.0675	17.940
3.0657	17.858
3.0639	17.801
3.0621	17.727
3.0603	17.654
3.0585	17.614
3.0567	17.526
3.0549	17.425
3.0531	17.351
3.0513	17.313
3.0495	17.257
3.0477	17.211
3.0459	17.136
3.0441	17.038
3.0423	16.935
3.0406	16.854
3.0388	16.797
3.0370	16.715
3.0352	16.627
3.0334	16.599
3.0317	16.513
3.0299	16.403
3.0281	16.288
3.0264	16.217
3.0246	16.125
3.0228	16.036
3.0211	15.955
3.0193	15.839
3.0176	15.721
3.0158	15.595
3.0140	15.449
3.0123	15.333
3.0105	15.238
3.0088	15.077
3.0070	14.955
3.0053	14.795
3.0036	14.710
3.0018	14.605
3.0001	14.500
2.9984	14.376
2.9966	14.299
2.9949	14.226
2.9932	14.125
2.9914	14.028
2.9897	13.950
2.9880	13.884
2.9863	13.808
2.9845	13.716
2.9828	13.627
2.9811	13.540
2.9794	13.489
2.9777	13.447
2.9760	13.417
2.9743	13.377
2.9726	13.305
2.9709	13.245
2.9692	13.224
2.9675	13.195
2.9658	13.180
2.9641	13.172
2.9624	13.136
2.9607	13.134
2.9590	13.186
2.9573	13.171
2.9556	13.116
2.9539	13.099
2.9523	13.187
2.9506	13.234
2.9489	13.245
2.9472	13.255
2.9455	13.235
2.9439	13.199
2.9422	13.252
2.9405	13.292
2.9389	13.310
2.9372	13.342
2.9355	13.424
2.9339	13.422
2.9322	13.429
2.9306	13.486
2.9289	13.495
2.9272	13.465
2.9256	13.531
2.9239	13.601
2.9223	13.662
2.9207	13.679
2.9190	13.679
2.9174	13.708
2.9157	13.715
2.9141	13.788
2.9124	13.862
2.9108	13.868
2.9092	13.904
2.9075	13.927
2.9059	13.961
2.9043	13.980
2.9027	14.022
2.9010	14.044
2.8994	14.071
2.8978	14.047
2.8962	14.104
2.8946	14.241
2.8929	14.251
2.8913	14.195
2.8897	14.261
2.8881	14.288
2.8865	14.293
2.8849	14.310
2.8833	14.347
2.8817	14.377
2.8801	14.367
2.8785	14.344
2.8769	14.416
2.8753	14.413
2.8737	14.399
2.8721	14.441
2.8705	14.525
2.8689	14.507
2.8673	14.492
2.8658	14.512
2.8642	14.535
2.8626	14.577
2.8610	14.637
2.8594	14.683
2.8579	14.712
2.8563	14.684
2.8547	14.733
2.8531	14.786
2.8516	14.778
2.8500	14.790
2.8484	14.859
2.8469	14.846
2.8453	14.845
2.8437	14.833
2.8422	14.823
2.8406	14.851
2.8391	14.857
2.8375	14.798
2.8360	14.761
2.8344	14.756
2.8329	14.739
2.8313	14.724
2.8298	14.684
2.8282	14.604
2.8267	14.554
2.8252	14.554
2.8236	14.531
2.8221	14.513
2.8205	14.530
2.8190	14.518
2.8175	14.462
2.8159	14.444
2.8144	14.466
2.8129	14.467
2.8114	14.443
2.8098	14.413
2.8083	14.415
2.8068	14.394
2.8053	14.373
2.8038	14.327
2.8022	14.308
2.8007	14.332
2.7992	14.300
2.7977	14.247
2.7962	14.320
2.7947	14.245
2.7932	14.232
2.7917	14.215
2.7902	14.112
2.7887	14.011
2.7872	13.924
2.7857	13.857
2.7842	13.779
2.7827	13.665
2.7812	13.569
2.7797	13.432
2.7782	13.283
2.7767	13.143
2.7752	13.091
2.7738	12.966
2.7723	12.802
2.7708	12.616
2.7693	12.467
2.7678	12.362
2.7664	12.275
2.7649	12.207
2.7634	12.093
2.7619	11.955
2.7605	11.921
2.7590	11.909
2.7575	11.891
2.7561	11.880
2.7546	11.988
2.7531	12.194
2.7517	12.390
2.7502	12.589
2.7488	12.774
2.7473	12.884
2.7458	12.882
2.7444	12.976
2.7429	13.245
2.7415	13.467
2.7400	13.837
2.7386	14.291
2.7371	14.595
2.7357	14.660
2.7343	14.611
2.7328	14.731
2.7314	15.028
2.7299	15.777
2.7285	16.756
2.7271	17.528
2.7256	17.853
2.7242	17.885
2.7228	18.044
2.7213	18.375
2.7199	19.531
2.7185	21.491
2.7171	22.960
2.7156	23.943
2.7142	24.777
2.7128	25.446
2.7114	25.900
2.7100	26.610
2.7085	27.470
2.7071	28.169
2.7057	28.673
2.7043	29.114
2.7029	29.494
2.7015	29.708
2.7001	30.005
2.6987	30.275
2.6973	30.446
2.6959	30.514
2.6945	30.463
2.6931	30.545
2.6917	30.933
2.6903	31.127
2.6889	31.237
2.6875	31.383
2.6861	31.473
2.6847	31.545
2.6833	31.596
2.6819	31.684
2.6805	31.760
2.6791	31.630
2.6778	31.698
2.6764	31.675
2.6750	31.826
2.6736	32.060
2.6722	32.045
2.6709	31.550
2.6695	31.597
2.6681	32.060
2.6667	31.888
2.6654	31.810
2.6640	32.105
2.6626	32.474
2.6613	32.516
2.6599	32.515
2.6585	32.526
2.6572	32.694
2.6558	32.686
2.6545	32.647
2.6531	32.644
2.6517	32.660
2.6504	32.789
2.6490	32.852
2.6477	32.898
2.6463	32.860
2.6450	32.847
2.6436	32.991
2.6423	32.949
2.6409	32.931
2.6396	32.916
2.6382	32.930
2.6369	32.951
2.6356	33.011
2.6342	32.920
2.6329	32.937
2.6315	32.809
2.6302	32.473
2.6289	32.736
2.6275	32.831
2.6262	32.658
2.6249	32.866
2.6236	33.035
2.6222	33.042
2.6209	32.695
2.6196	32.566
2.6183	32.821
2.6169	32.657
2.6156	32.773
2.6143	33.008
2.6130	32.967
2.6117	32.965
2.6103	32.896
2.6090	32.866
2.6077	32.942
2.6064	32.821
2.6051	32.555
2.6038	32.709
2.6025	32.888
2.6012	32.945
2.5999	33.012
2.5986	33.177
2.5973	33.145
2.5960	32.635
2.5947	32.103
2.5934	32.498
2.5921	33.086
2.5908	33.133
2.5895	33.098
2.5882	33.065
2.5869	32.987
2.5856	33.059
2.5843	32.908
2.5830	32.855
2.5817	33.055
2.5805	33.077
2.5792	33.237
2.5779	33.229
2.5766	33.093
2.5753	33.100
2.5741	33.056
2.5728	32.939
2.5715	33.086
2.5702	33.062
2.5690	33.075
2.5677	33.244
2.5664	33.381
2.5651	33.304
2.5639	33.157
2.5626	33.102
2.5613	32.998
2.5601	33.071
2.5588	33.257
2.5575	33.243
2.5563	33.234
2.5550	33.285
2.5538	33.282
2.5525	33.268
2.5513	33.318
2.5500	33.375
2.5487	33.390
2.5475	33.284
2.5462	33.277
2.5450	33.366
2.5437	33.371
2.5425	33.331
2.5413	33.388
2.5400	33.394
2.5388	33.386
2.5375	33.324
2.5363	33.315
2.5350	33.330
2.5338	33.369
2.5326	33.339
2.5313	33.362
2.5301	33.369
2.5289	33.377
2.5276	33.440
2.5264	33.483
2.5252	33.461
2.5239	33.487
2.5227	33.512
2.5215	33.485
2.5202	33.447
2.5190	33.430
2.5178	33.425
2.5166	33.450
2.5154	33.530
2.5141	33.567
2.5129	33.507
2.5117	33.476
2.5105	33.493
2.5093	33.476
2.5081	33.487
2.5068	33.465
2.5056	33.463
2.5044	33.464
2.5032	33.484
2.5020	33.471
2.5008	33.516
2.4996	33.557
2.4984	33.508
2.4972	33.560
2.4960	33.579
2.4948	33.565
2.4936	33.536
2.4924	33.546
2.4912	33.519
2.4900	33.505
2.4888	33.526
2.4876	33.489
2.4864	33.489
2.4852	33.515
2.4840	33.543
2.4828	33.629
2.4816	33.647
2.4805	33.630
2.4793	33.618
2.4781	33.655
2.4769	33.611
2.4757	33.635
2.4745	33.688
2.4734	33.631
2.4722	33.547
2.4710	33.572
2.4698	33.643
2.4686	33.638
2.4675	33.622
2.4663	33.641
2.4651	33.643
2.4640	33.630
2.4628	33.637
2.4616	33.688
2.4604	33.644
2.4593	33.541
2.4581	33.589
2.4569	33.663
2.4558	33.686
2.4546	33.752
2.4535	33.735
2.4523	33.704
2.4511	33.712
2.4500	33.780
2.4488	33.772
2.4477	33.735
2.4465	33.679
2.4454	33.661
2.4442	33.661
2.4431	33.627
2.4419	33.604
2.4408	33.661
2.4396	33.762
2.4385	33.763
2.4373	33.705
2.4362	33.736
2.4350	33.807
2.4339	33.780
2.4327	33.746
2.4316	33.757
2.4305	33.743
2.4293	33.715
2.4282	33.681
2.4270	33.763
2.4259	33.848
2.4248	33.793
2.4236	33.817
2.4225	33.886
2.4214	33.768
2.4202	33.764
2.4191	33.830
2.4180	33.802
2.4169	33.812
2.4157	33.904
2.4146	33.886
2.4135	33.855
2.4124	33.823
2.4112	33.866
2.4101	33.864
2.4090	33.852
2.4079	33.905
2.4068	33.854
2.4056	33.865
2.4045	33.879
2.4034	33.933
2.4023	33.960
2.4012	33.907
2.4001	33.914
2.3990	33.895
2.3979	33.873
2.3967	33.880
2.3956	33.824
2.3945	33.834
2.3934	33.890
2.3923	33.921
2.3912	33.925
2.3901	33.890
2.3890	33.858
2.3879	33.853
2.3868	33.825
2.3857	33.825
2.3846	33.881
2.3835	33.852
2.3824	33.860
2.3813	33.877
2.3802	33.889
2.3791	33.839
2.3781	33.848
2.3770	33.898
2.3759	33.936
2.3748	33.864
2.3737	33.856
2.3726	33.884
2.3715	33.864
2.3704	33.913
2.3694	33.944
2.3683	33.937
2.3672	33.914
2.3661	33.826
2.3650	33.752
2.3640	33.712
2.3629	33.766
2.3618	33.791
2.3607	33.777
2.3597	33.723
2.3586	33.723
2.3575	33.783
2.3564	33.833
2.3554	33.761
2.3543	33.652
2.3532	33.572
2.3522	33.600
2.3511	33.644
2.3500	33.670
2.3490	33.563
2.3479	33.550
2.3468	33.629
2.3458	33.599
2.3447	33.563
2.3436	33.568
2.3426	33.537
2.3415	33.471
2.3405	33.472
2.3394	33.551
2.3384	33.549
2.3373	33.490
2.3363	33.417
2.3352	33.465
2.3342	33.637
2.3331	33.655
2.3321	33.601
2.3310	33.564
2.3300	33.605
2.3289	33.650
2.3279	33.638
2.3268	33.706
2.3258	33.672
2.3247	33.699
2.3237	33.822
2.3226	33.840
2.3216	33.757
2.3206	33.723
2.3195	33.810
2.3185	33.894
2.3175	33.946
2.3164	33.895
2.3154	33.861
2.3144	33.941
2.3133	33.944
2.3123	33.968
2.3113	34.044
2.3102	34.141
2.3092	34.086
2.3082	34.007
2.3071	34.126
2.3061	34.165
2.3051	34.076
2.3041	34.114
2.3030	34.133
2.3020	34.112
2.3010	34.159
2.3000	34.193
2.2990	34.159
2.2979	34.213
2.2969	34.251
2.2959	34.266
2.2949	34.266
2.2939	34.285
2.2929	34.333
2.2918	34.396
2.2908	34.423
2.2898	34.465
2.2888	34.458
2.2878	34.446
2.2868	34.485
2.2858	34.542
2.2848	34.488
2.2838	34.471
2.2828	34.514
2.2818	34.499
2.2808	34.508
2.2798	34.532
2.2787	34.549
2.2777	34.513
2.2767	34.448
2.2757	34.524
2.2747	34.489
2.2738	34.459
2.2728	34.490
2.2718	34.471
2.2708	34.573
2.2698	34.592
2.2688	34.542
2.2678	34.553
2.2668	34.571
2.2658	34.590
2.2648	34.545
2.2638	34.529
2.2628	34.630
2.2618	34.631
2.2609	34.550
2.2599	34.534
2.2589	34.542
2.2579	34.645
2.2569	34.648
2.2559	34.548
2.2550	34.552
2.2540	34.597
2.2530	34.617
2.2520	34.597
2.2510	34.619
2.2501	34.629
2.2491	34.506
2.2481	34.573
2.2471	34.675
2.2462	34.602
2.2452	34.622
2.2442	34.696
2.2433	34.685
2.2423	34.682
2.2413	34.688
2.2403	34.678
2.2394	34.708
2.2384	34.729
2.2374	34.727
2.2365	34.723
2.2355	34.764
2.2345	34.793
2.2336	34.786
2.2326	34.797
2.2317	34.760
2.2307	34.739
2.2297	34.805
2.2288	34.824
2.2278	34.777
2.2269	34.714
2.2259	34.673
2.2250	34.752
2.2240	34.777
2.2231	34.702
2.2221	34.758
2.2211	34.745
2.2202	34.728
2.2192	34.792
2.2183	34.746
2.2173	34.657
2.2164	34.722
2.2155	34.851
2.2145	34.863
2.2136	34.786
2.2126	34.801
2.2117	34.666
2.2107	34.646
2.2098	34.717
2.2088	34.742
2.2079	34.794
2.2070	34.804
2.2060	34.756
2.2051	34.746
2.2041	34.757
2.2032	34.772
2.2023	34.825
2.2013	34.707
2.2004	34.707
2.1995	34.851
2.1985	34.900
2.1976	34.890
2.1967	34.825
2.1957	34.922
2.1948	34.880
2.1939	34.822
2.1930	34.846
2.1920	34.865
2.1911	34.923
2.1902	34.955
2.1893	34.964
2.1883	34.957
2.1874	35.004
2.1865	35.029
2.1856	35.051
2.1846	35.120
2.1837	35.136
2.1828	35.080
2.1819	35.105
2.1810	35.088
2.1800	35.097
2.1791	35.062
2.1782	35.135
2.1773	35.200
2.1764	35.167
2.1755	35.153
2.1746	35.127
2.1736	35.172
2.1727	35.250
2.1718	35.271
2.1709	35.286
2.1700	35.312
2.1691	35.315
2.1682	35.294
2.1673	35.316
2.1664	35.272
2.1655	35.252
2.1646	35.328
2.1637	35.395
2.1628	35.420
2.1619	35.380
2.1610	35.414
2.1601	35.410
2.1592	35.313
2.1583	35.382
2.1574	35.478
2.1565	35.457
2.1556	35.459
2.1547	35.493
2.1538	35.397
2.1529	35.361
2.1520	35.443
2.1511	35.450
2.1502	35.431
2.1493	35.478
2.1484	35.522
2.1475	35.555
2.1466	35.487
2.1458	35.432
2.1449	35.507
2.1440	35.542
2.1431	35.483
2.1422	35.500
2.1413	35.509
2.1404	35.430
2.1396	35.325
2.1387	35.359
2.1378	35.434
2.1369	35.463
2.1360	35.530
2.1352	35.480
2.1343	35.503
2.1334	35.534
2.1325	35.471
2.1316	35.443
2.1308	35.499
2.1299	35.542
2.1290	35.510
2.1281	35.492
2.1273	35.494
2.1264	35.604
2.1255	35.596
2.1247	35.556
2.1238	35.527
2.1229	35.484
2.1220	35.527
2.1212	35.588
2.1203	35.539
2.1194	35.591
2.1186	35.527
2.1177	35.423
2.1168	35.454
2.1160	35.544
2.1151	35.619
2.1143	35.584
2.1134	35.581
2.1125	35.630
2.1117	35.587
2.1108	35.544
2.1100	35.556
2.1091	35.550
2.1082	35.609
2.1074	35.744
2.1065	35.705
2.1057	35.603
2.1048	35.575
2.1040	35.624
2.1031	35.667
2.1023	35.708
2.1014	35.727
2.1005	35.700
2.0997	35.648
2.0988	35.665
2.0980	35.640
2.0971	35.603
2.0963	35.699
2.0955	35.763
2.0946	35.695
2.0938	35.652
2.0929	35.669
2.0921	35.698
2.0912	35.770
2.0904	35.727
2.0895	35.674
2.0887	35.740
2.0879	35.664
2.0870	35.648
2.0862	35.687
2.0853	35.742
2.0845	35.736
2.0837	35.804
2.0828	35.825
2.0820	35.742
2.0812	35.728
2.0803	35.768
2.0795	35.692
2.0760	35.692
2.0720	35.715
2.0680	35.700
2.0640	35.994
2.0600	35.994
2.0560	36.032
2.0520	35.707
2.0480	35.466
2.0440	35.647
2.0400	35.654
2.0360	35.625
2.0320	35.708
2.0280	35.527
2.0240	35.610
2.0200	35.468
2.0160	35.370
2.0120	35.313
2.0080	35.077
2.0040	35.048
2.0000	34.964
1.9960	34.769
1.9920	34.867
1.9880	34.852
1.9840	34.705
1.9800	34.503
1.9760	34.447
1.9720	34.447
1.9680	34.336
1.9640	34.426
1.9600	34.524
1.9560	34.545
1.9520	34.573
1.9480	34.302
1.9440	34.239
1.9400	33.988
1.9360	33.919
1.9320	34.003
1.9280	33.933
1.9240	33.611
1.9200	33.498
1.9160	33.457
1.9120	33.555
1.9080	33.534
1.9040	33.477
1.9000	33.792
1.8960	34.196
1.8920	34.413
1.8880	34.601
1.8840	34.567
1.8800	34.698
1.8760	34.259
1.8720	33.862
1.8680	33.792
1.8640	34.196
1.8600	34.719
1.8560	34.830
1.8520	34.698
1.8480	34.601
1.8440	34.296
1.8400	34.121
1.8360	34.024
1.8320	33.990
1.8280	34.289
1.8240	34.553
1.8200	34.727
1.8160	34.610
1.8120	34.609
1.8080	34.590
1.8040	34.603
1.8000	34.700
1.7960	34.643
1.7920	34.623
1.7880	34.700
1.7840	34.513
1.7800	34.188
1.7760	34.215
1.7720	34.319
1.7680	34.319
1.7640	34.346
1.7600	34.255
1.7560	34.248
1.7520	34.352
1.7480	34.359
1.7440	34.533
1.7400	34.644
1.7360	34.671
1.7320	34.581
1.7280	34.581
1.7240	34.581
1.7200	34.678
1.7160	34.664
1.7120	34.741
1.7080	34.701
1.7040	34.610
1.7000	34.700
1.6960	34.700
1.6920	34.596
1.6880	34.707
1.6840	34.596
1.6800	34.590
1.6760	34.603
1.6720	34.610
1.6680	34.707
1.6640	34.700
1.6600	34.693
1.6560	34.667
1.6520	34.604
1.6480	34.507
1.6440	34.611
1.6400	34.687
1.6360	34.576
1.6320	34.584
1.6280	34.604
1.6240	34.623
1.6200	34.507
1.6160	34.493
1.6120	34.480
1.6080	34.590
1.6040	34.547
1.6000	34.547
1.5960	34.333
1.5920	34.520
1.5880	34.584
1.5840	34.557
1.5800	34.544
1.5760	34.577
1.5720	34.460
1.5680	34.460
1.5640	34.150
1.5600	34.279
1.5560	34.253
1.5520	34.421
1.5480	34.545
1.5440	34.642
1.5400	34.635
1.5360	34.518
1.5320	34.712
1.5280	34.545
1.5240	34.448
1.5200	34.538
1.5160	34.434
1.5120	34.221
1.5080	34.415
1.5040	34.247
1.5000	34.008
1.4960	33.930
1.4920	34.020
1.4880	34.104
1.4840	34.208
1.4800	34.389
1.4760	34.505
1.4720	34.505
1.4680	34.479
1.4640	34.570
1.4600	34.460
1.4560	33.995
1.4520	34.034
1.4480	34.137
1.4440	34.066
1.4400	33.989
1.4360	34.008
1.4320	34.008
1.4280	34.066
1.4240	34.060
1.4200	34.150
1.4160	34.066
1.4120	33.924
1.4080	33.645
1.4040	33.126
1.4000	32.970
1.3960	32.854
1.3920	33.029
1.3880	33.243
1.3840	33.645
1.3800	33.477
1.3760	33.652
1.3720	34.442
1.3680	34.486
1.3640	33.872
1.3600	33.716
1.3560	34.008
1.3520	34.493
1.3480	34.615
1.3440	34.790
1.3400	34.545
1.3360	34.564
1.3320	34.358
1.3280	34.255
1.3240	34.074
1.3200	34.015
1.3160	33.943
1.3120	34.008
1.3080	34.027
1.3040	34.033
1.3000	34.040
1.2960	34.046
1.2920	33.968
1.2880	33.890
1.2840	33.631
1.2800	33.559
1.2760	33.371
1.2720	33.208
1.2680	32.981
1.2640	32.937
1.2600	33.028
1.2560	33.326
1.2520	33.319
1.2480	33.149
1.2440	33.065
1.2400	32.993
1.2360	32.972
1.2320	32.928
1.2280	32.845
1.2240	32.571
1.2200	33.057
1.2160	33.466
1.2120	33.396
1.2080	33.268
1.2040	33.255
1.2000	33.055
1.1960	33.036
1.1920	33.011
1.1880	33.290
1.1840	33.277
1.1800	33.233
1.1760	33.459
1.1720	33.465
1.1680	33.427
1.1640	33.348
1.1600	33.360
1.1560	33.190
1.1520	33.008
1.1480	32.717
1.1440	32.800
1.1400	32.843
1.1360	32.782
1.1320	32.843
1.1280	32.946
1.1240	32.897
1.1200	32.715
1.1160	32.405
1.1120	32.302
1.1080	32.289
1.1040	32.197
1.1000	32.792
1.0960	32.872
1.0920	32.878
1.0880	32.769
1.0840	32.975
1.0800	33.150
1.0760	32.852
1.0720	32.646
1.0680	32.755
1.0640	32.616
1.0600	32.628
1.0560	32.822
1.0520	32.743
1.0480	32.834
1.0440	33.114
1.0400	32.890
1.0360	32.913
1.0320	32.840
1.0280	32.761
1.0240	32.785
1.0200	32.937
1.0160	32.846
1.0120	32.834
1.0080	32.840
1.0040	32.866
1.0000	32.739
0.9960	32.836
0.9920	32.696
0.9880	32.913
0.9840	32.840
0.9800	32.749
0.9760	32.763
0.9720	32.836
0.9680	32.757
0.9640	32.763
0.9600	32.745
0.9560	32.866
0.9520	32.763
0.9480	32.665
0.9440	32.568
0.9400	32.667
0.9360	32.679
0.9320	32.758
0.9280	32.638
0.9240	32.649
0.9200	32.746
0.9160	32.746
0.9120	32.649
0.9080	32.602
0.9040	32.558
0.9000	32.378
0.8960	32.298
0.8920	32.395
0.8880	32.316
0.8840	32.310
0.8800	32.446
0.8760	32.349
0.8720	32.258
0.8680	31.967
0.8640	31.979
0.8600	31.917
0.8560	32.008
0.8520	31.911
0.8480	32.014
0.8440	32.002
0.8400	31.985
0.8360	31.996
0.8320	31.973
0.8280	31.881
0.8240	32.161
0.8200	32.155
0.8160	32.228
0.8120	32.205
0.8080	32.387
0.8040	32.266
0.8000	32.231
0.7990	32.231
0.7980	32.231
0.7970	32.474
0.7960	32.505
0.7950	32.528
0.7940	32.627
0.7930	32.643
0.7920	32.659
0.7910	32.635
0.7900	32.620
0.7890	32.528
0.7880	32.643
0.7870	32.719
0.7860	32.650
0.7850	32.551
0.7840	32.535
0.7830	32.475
0.7820	32.453
0.7810	32.598
0.7800	32.598
0.7790	32.681
0.7780	32.643
0.7770	32.658
0.7760	32.536
0.7750	32.643
0.7740	32.452
0.7730	32.262
0.7720	32.285
0.7710	32.277
0.7700	32.209
0.7690	32.126
0.7680	32.233
0.7670	32.209
0.7660	32.225
0.7650	32.194
0.7640	32.346
0.7630	32.225
0.7620	32.209
0.7610	32.202
0.7600	32.004
0.7590	31.814
0.7580	32.081
0.7570	31.845
0.7560	31.814
0.7550	31.806
0.7540	31.775
0.7530	31.730
0.7520	31.845
0.7510	31.829
0.7500	31.814
0.7490	31.860
0.7480	31.996
0.7470	31.691
0.7460	31.707
0.7450	31.639
0.7440	31.746
0.7430	31.693
0.7420	31.616
0.7410	31.685
0.7400	31.456
0.7390	31.487
0.7380	31.410
0.7370	31.555
0.7360	31.518
0.7350	31.548
0.7340	31.548
0.7330	31.402
0.7320	31.501
0.7310	31.456
0.7300	31.182
0.7290	31.235
0.7280	31.297
0.7270	31.542
0.7260	31.518
0.7250	31.258
0.7240	31.297
0.7230	31.221
0.7220	31.106
0.7210	31.106
0.7200	31.083
0.7190	31.159
0.7180	31.091
0.7170	30.946
0.7160	31.060
0.7150	30.992
0.7140	30.946
0.7130	30.763
0.7120	30.984
0.7110	31.122
0.7100	31.091
0.7090	31.052
0.7080	30.946
0.7070	31.023
0.7060	31.099
0.7050	31.122
0.7040	31.106
0.7030	31.046
0.7020	31.078
0.7010	31.192
0.7000	31.085
0.6990	31.070
0.6980	30.356
0.6970	30.608
0.6960	30.385
0.6950	30.464
0.6940	30.664
0.6930	30.664
0.6920	30.756
0.6910	30.756
0.6900	30.457
0.6890	30.457
0.6880	30.389
0.6870	30.432
0.6860	30.381
0.6850	30.456
0.6840	30.424
0.6830	30.424
0.6820	30.664
0.6810	30.332
0.6800	30.266
0.6790	30.250
0.6780	30.250
0.6770	30.357
0.6760	30.473
0.6750	30.381
0.6740	30.538
0.6730	30.413
0.6720	30.406
0.6710	30.481
0.6700	30.373
0.6690	30.198
0.6680	30.157
0.6670	30.273
0.6660	30.182
0.6650	30.266
0.6640	30.297
0.6630	30.438
0.6620	30.522
0.6610	30.522
0.6600	30.497
0.6590	30.381
0.6580	30.381
0.6570	30.281
0.6560	30.257
0.6550	30.406
0.6540	30.406
0.6530	30.257
0.6520	30.289
0.6510	30.438
0.6500	30.546
0.6490	30.397
0.6480	30.681
0.6470	30.506
0.6460	30.314
0.6450	30.489
0.6440	30.314
0.6430	30.306
0.6420	30.282
0.6410	30.022
0.6400	30.022
0.6390	30.247
0.6380	30.238
0.6370	30.206
0.6360	30.022
0.6350	30.014
0.6340	30.006
0.6330	30.206
0.6320	30.214
0.6310	30.298
0.6300	30.014
0.6290	30.222
0.6280	30.222
0.6270	30.346
0.6260	30.263
0.6250	30.263
0.6240	30.446
0.6230	30.555
0.6220	30.463
0.6210	30.455
0.6200	30.455
0.6190	30.338
0.6180	30.387
0.6170	30.371
0.6160	30.363
0.6150	30.346
0.6140	30.355
0.6130	30.238
0.6120	30.039
0.6110	30.055
0.6100	30.263
0.6090	30.296
0.6080	30.271
0.6070	30.263
0.6060	30.271
0.6050	30.271
0.6040	30.287
0.6030	30.095
0.6020	29.995
0.6010	29.895
0.6000	29.836
0.5990	29.543
0.5980	29.359
0.5970	29.576
0.5960	29.576
0.5950	29.592
0.5940	29.801
0.5930	29.793
0.5920	29.617
0.5910	29.416
0.5900	29.517
0.5890	29.525
0.5880	29.517
0.5870	29.416
0.5860	29.374
0.5850	29.350
0.5840	29.316
0.5830	29.433
0.5820	29.592
0.5810	29.476
0.5800	29.243
0.5790	29.451
0.5780	29.744
0.5770	29.752
0.5760	29.777
0.5750	29.576
0.5740	29.852
0.5730	29.887
0.5720	30.346
0.5710	30.446
0.5700	30.438
0.5690	30.438
0.5680	30.514
0.5670	30.563
0.5660	30.396
0.5650	30.070
0.5640	30.046
0.5630	29.995
0.5620	30.003
0.5610	30.012
0.5600	30.045
0.5590	29.961
0.5580	29.933
0.5570	29.949
0.5560	29.926
0.5550	29.926
0.5540	29.903
0.5530	29.994
0.5520	29.925
0.5510	29.742
0.5500	29.712
0.5490	29.619
0.5480	29.566
0.5470	29.544
0.5460	29.551
0.5450	29.742
0.5440	29.773
0.5430	29.574
0.5420	29.550
0.5410	29.498
0.5400	29.245
0.5390	29.267
0.5380	29.314
0.5370	29.268
0.5360	29.177
0.5350	29.115
0.5340	29.099
0.5330	28.999
0.5320	28.952
0.5310	29.174
0.5300	29.281
0.5290	29.512
0.5280	29.182
0.5270	29.044
0.5260	29.144
0.5250	29.480
0.5240	29.589
0.5230	29.451
0.5220	29.404
0.5210	29.106
0.5200	29.130
0.5190	29.260
0.5180	29.260
0.5170	29.136
0.5160	29.052
0.5150	29.067
0.5140	29.129
0.5130	29.044
0.5120	29.151
0.5110	29.068
0.5100	28.923
0.5090	28.937
0.5080	28.882
0.5070	28.606
0.5060	28.927
0.5050	28.945
0.5040	28.941
0.5030	28.735
0.5020	28.591
0.5010	28.596
0.5000	28.628
0.4990	28.528
0.4980	28.499
0.4970	28.407
0.4960	28.392
0.4950	28.368
0.4940	28.028
0.4930	28.264
0.4920	28.087
0.4910	28.286
0.4900	28.283
0.4890	28.053
0.4880	28.084
0.4870	27.978
0.4860	27.982
0.4850	27.854
0.4840	27.954
0.4830	27.982
0.4820	27.847
0.4810	27.755
0.4800	27.738
0.4790	27.456
0.4780	27.759
0.4770	27.752
0.4760	27.453
0.4750	27.405
0.4740	27.412
0.4730	27.295
0.4720	27.282
0.4710	27.282
0.4700	27.381
0.4690	27.182
0.4680	27.192
0.4670	27.089
0.4660	27.165
0.4650	27.171
0.4640	27.247
0.4630	27.158
0.4620	26.839
0.4610	26.839
0.4600	27.021
0.4590	27.748
0.4580	27.695
0.4570	27.342
0.4560	27.249
0.4550	27.256
0.4540	27.124
0.4530	27.131
0.4520	27.358
0.4510	27.358
0.4500	27.203
0.4490	27.044
0.4480	26.871
0.4470	27.052
0.4460	27.022
0.4450	27.142
0.4440	27.143
0.4430	27.049
0.4420	26.800
0.4410	26.702
0.4400	26.621
0.4390	26.789
0.4380	26.708
0.4370	26.514
0.4360	26.313
0.4350	26.138
0.4340	26.294
0.4330	26.281
0.4320	26.508
0.4310	26.313
0.4300	26.193
0.4290	26.067
0.4280	25.815
0.4270	25.851
0.4260	25.827
0.4250	25.866
0.4240	25.488
0.4230	25.431
0.4220	25.524
0.4210	25.296
0.4200	25.107
0.4190	25.051
0.4180	25.278
0.4170	25.247
0.4160	25.005
0.4150	24.765
0.4140	24.754
0.4130	24.776
0.4120	24.770
0.4110	24.742
0.4100	24.728
0.4090	24.628
0.4080	24.628
0.4070	24.523
0.4060	24.640
0.4050	24.529
0.4040	24.344
0.4030	24.238
0.4020	24.149
0.4010	24.033
0.4000	23.944
