Name: Tremolite Schist 
Type:  Rocks
Class:  Metamorphic 
Subclass: Schist 
Particle Size:  500-1500 Micrometer
Sample No.:   schist6.doc
Owner:  JHU
Wavelength Range:  All
Origin:  Sample No. 468, The Hunt and Salisbury Collection at the U.S. 
Geological Survey, Denver, Co.
Description:  This is another coarse-grained rock composed of bent folia of 
tremolite and lenses and stringers of quartz.  Unlike the previous one, however, 
this sample is completely unaltered.  The bent folia are due to brittle deformation 
of the amphibole as a result of shear stress, with regions of concomittant 
granulation of this mineral.  Modes for this rock gave 75.4% amphibole and 
24.6% quartz.
Measurement:  Directional (10 Degree) Hemispherical Reflectance
First Column:  X
Second Column:  Y  
X Units:  Wavelength (micrometers)
Y Units:  Reflectance (percent)
First X Value: 14.9831	
Last X Value:  0.4
Number of X Values: 2868
Additional Information:  None

14.9831	3.9768
14.9399	4.0962
14.897	4.2198
14.8543	4.3482
14.8119	4.4836
14.7697	4.6326
14.7277	4.8029
14.686	4.9937
14.6445	5.1924
14.6033	5.3672
14.5622	5.4723
14.5214	5.4636
14.4809	5.3118
14.4405	5.015
14.4004	4.6039
14.3605	4.1362
14.3209	3.6801
14.2814	3.291
14.2422	3.0064
14.2032	2.8401
14.1643	2.7812
14.1258	2.8001
14.0874	2.8629
14.0492	2.945
14.0112	3.0334
13.9734	3.117
13.9359	3.1949
13.8985	3.2669
13.8614	3.3322
13.8244	3.3858
13.7876	3.4239
13.7511	3.4525
13.7147	3.4857
13.6785	3.5359
13.6425	3.6095
13.6067	3.7031
13.5711	3.8101
13.5356	3.9202
13.5004	4.0289
13.4653	4.14
13.4304	4.2653
13.3957	4.4223
13.3612	4.6217
13.3269	4.8725
13.2927	5.1813
13.2587	5.5413
13.2249	5.9284
13.1912	6.2957
13.1577	6.5835
13.1244	6.7334
13.0913	6.704
13.0583	6.497
13.0255	6.1631
12.9929	5.7845
12.9604	5.451
12.9281	5.2272
12.8959	5.1332
12.8639	5.1339
12.8321	5.1597
12.8004	5.1394
12.7688	5.0316
12.7375	4.8436
12.7063	4.6281
12.6752	4.4602
12.6443	4.4041
12.6135	4.4829
12.5829	4.6707
12.5524	4.9
12.5221	5.0854
12.4919	5.1505
12.4619	5.0503
12.432	4.7901
12.4023	4.4161
12.3727	4.0005
12.3432	3.6221
12.3139	3.3417
12.2847	3.1878
12.2557	3.1494
12.2268	3.1932
12.198	3.2853
12.1694	3.3955
12.1409	3.5053
12.1125	3.6117
12.0843	3.7154
12.0562	3.8149
12.0282	3.9051
12.0003	3.9854
11.9726	4.0581
11.945	4.1258
11.9176	4.1931
11.8903	4.2679
11.8631	4.3522
11.836	4.4443
11.809	4.5402
11.7822	4.635
11.7555	4.7259
11.7289	4.8133
11.7024	4.9
11.676	4.9921
11.6498	5.0925
11.6237	5.1983
11.5977	5.3023
11.5718	5.3994
11.546	5.4918
11.5203	5.5844
11.4948	5.6848
11.4694	5.801
11.444	5.9329
11.4188	6.0686
11.3937	6.1939
11.3688	6.3014
11.3439	6.3912
11.3191	6.4712
11.2944	6.5574
11.2699	6.6657
11.2455	6.7985
11.2211	6.9449
11.1969	7.0945
11.1727	7.2387
11.1487	7.3702
11.1248	7.4917
11.101	7.6162
11.0773	7.7567
11.0536	7.9203
11.0301	8.1121
11.0067	8.3444
10.9834	8.6196
10.9602	8.9197
10.937	9.2114
10.914	9.4468
10.8911	9.5728
10.8682	9.5494
10.8455	9.3708
10.8229	9.0757
10.8003	8.7288
10.7779	8.402
10.7555	8.1607
10.7332	8.0529
10.7111	8.106
10.689	8.3288
10.667	8.7188
10.6451	9.2631
10.6233	9.9342
10.6015	10.6939
10.5799	11.4941
10.5584	12.2843
10.5369	13.0206
10.5155	13.673
10.4942	14.2281
10.473	14.6819
10.4519	15.0435
10.4309	15.3357
10.4099	15.5811
10.3891	15.797
10.3683	15.9993
10.3476	16.2034
10.327	16.4199
10.3065	16.65
10.286	16.9023
10.2656	17.1924
10.2454	17.5274
10.2251	17.904
10.205	18.3115
10.185	18.7312
10.165	19.1305
10.1451	19.4684
10.1253	19.7149
10.1056	19.8523
10.0859	19.8703
10.0663	19.771
10.0468	19.574
10.0274	19.3102
10.008	19.0125
9.9887	18.7122
9.9695	18.4442
9.9504	18.2367
9.9313	18.0989
9.9123	18.0262
9.8934	17.9985
9.8746	17.9786
9.8558	17.9189
9.8371	17.7768
9.8185	17.5367
9.7999	17.2104
9.7814	16.84
9.763	16.5011
9.7447	16.2782
9.7264	16.2342
9.7082	16.3926
9.69	16.7291
9.6719	17.1732
9.6539	17.6186
9.636	17.962
9.6181	18.1413
9.6003	18.1486
9.5825	18.0252
9.5649	17.8469
9.5472	17.6946
9.5297	17.6255
9.5122	17.6582
9.4948	17.7827
9.4774	17.9857
9.4601	18.2642
9.4429	18.632
9.4257	19.1115
9.4086	19.714
9.3916	20.4261
9.3746	21.2061
9.3577	21.9914
9.3408	22.722
9.324	23.3552
9.3073	23.8734
9.2906	24.2786
9.274	24.5791
9.2574	24.788
9.2409	24.9201
9.2245	24.9961
9.2081	25.0409
9.1918	25.0736
9.1755	25.1008
9.1593	25.1117
9.1431	25.076
9.127	24.9564
9.111	24.7293
9.095	24.3998
9.0791	24.0001
9.0632	23.5748
9.0474	23.172
9.0316	22.834
9.0159	22.5823
9.0003	22.4172
8.9847	22.3256
8.9691	22.2905
8.9536	22.2922
8.9382	22.3161
8.9228	22.3613
8.9075	22.4404
8.8922	22.5678
8.877	22.7523
8.8618	22.9891
8.8467	23.2584
8.8316	23.5262
8.8166	23.7607
8.8016	23.9447
8.7867	24.079
8.7718	24.1749
8.757	24.236
8.7422	24.2419
8.7275	24.1396
8.7129	23.849
8.6982	23.2953
8.6837	22.4461
8.6692	21.3409
8.6547	20.0967
8.6403	18.8742
8.6259	17.8273
8.6116	17.0474
8.5973	16.5411
8.583	16.2406
8.5688	16.035
8.5547	15.8243
8.5406	15.5536
8.5266	15.2178
8.5126	14.842
8.4986	14.4588
8.4847	14.0991
8.4708	13.7808
8.457	13.5049
8.4432	13.2645
8.4295	13.0519
8.4158	12.8615
8.4022	12.685
8.3886	12.5164
8.375	12.3587
8.3615	12.2166
8.3481	12.0911
8.3347	11.9826
8.3213	11.8891
8.3079	11.8105
8.2946	11.7465
8.2814	11.6942
8.2682	11.652
8.255	11.6118
8.2419	11.5611
8.2288	11.4841
8.2158	11.3629
8.2028	11.1841
8.1898	10.939
8.1769	10.6212
8.164	10.2326
8.1512	9.7824
8.1384	9.2863
8.1256	8.7629
8.1129	8.2303
8.1002	7.7057
8.0876	7.2006
8.075	6.7213
8.0624	6.2733
8.0499	5.8602
8.0374	5.4813
8.025	5.1342
8.0126	4.813
8.0002	4.5116
7.9879	4.2231
7.9756	3.9451
7.9634	3.6794
7.9512	3.43
7.939	3.1973
7.9268	2.9815
7.9147	2.7819
7.9027	2.596
7.8906	2.4233
7.8786	2.2666
7.8667	2.1292
7.8548	2.0129
7.8429	1.9166
7.831	1.8379
7.8192	1.7723
7.8075	1.7162
7.7957	1.6672
7.784	1.6229
7.7723	1.5798
7.7607	1.5348
7.7491	1.4877
7.7375	1.4384
7.726	1.3873
7.7145	1.3366
7.7031	1.2885
7.6916	1.2412
7.6802	1.1926
7.6689	1.1443
7.6575	1.1019
7.6462	1.0697
7.635	1.0496
7.6238	1.0422
7.6126	1.0467
7.6014	1.056
7.5903	1.0631
7.5792	1.0659
7.5681	1.0661
7.5571	1.064
7.5461	1.0605
7.5351	1.0583
7.5242	1.0607
7.5133	1.0654
7.5024	1.0687
7.4916	1.068
7.4807	1.0616
7.47	1.0493
7.4592	1.0342
7.4485	1.0238
7.4378	1.0238
7.4272	1.0342
7.4165	1.0508
7.4059	1.0669
7.3954	1.0763
7.3848	1.0759
7.3743	1.0666
7.3639	1.0567
7.3534	1.055
7.343	1.0645
7.3326	1.0851
7.3223	1.114
7.3119	1.1448
7.3016	1.1703
7.2914	1.186
7.2811	1.1947
7.2709	1.2014
7.2607	1.2082
7.2506	1.2191
7.2404	1.2362
7.2303	1.2589
7.2203	1.284
7.2102	1.3063
7.2002	1.3238
7.1902	1.3352
7.1803	1.3397
7.1703	1.3397
7.1604	1.3392
7.1506	1.3425
7.1407	1.3525
7.1309	1.3681
7.1211	1.3892
7.1113	1.414
7.1016	1.4396
7.0919	1.4635
7.0822	1.4829
7.0725	1.4979
7.0629	1.5099
7.0533	1.5201
7.0437	1.5317
7.0341	1.5478
7.0246	1.568
7.0151	1.59
7.0056	1.6111
6.9962	1.6302
6.9867	1.6489
6.9773	1.6686
6.9679	1.6918
6.9586	1.719
6.9493	1.7453
6.94	1.7655
6.9307	1.7759
6.9214	1.7759
6.9122	1.7674
6.903	1.752
6.8938	1.7349
6.8847	1.7221
6.8755	1.7172
6.8664	1.7219
6.8573	1.7389
6.8483	1.7652
6.8393	1.7946
6.8302	1.8185
6.8213	1.8339
6.8123	1.8422
6.8034	1.8469
6.7944	1.8531
6.7855	1.8642
6.7767	1.8801
6.7678	1.8983
6.759	1.9149
6.7502	1.9263
6.7414	1.9308
6.7327	1.9279
6.7239	1.9201
6.7152	1.9102
6.7065	1.9031
6.6979	1.9035
6.6892	1.9135
6.6806	1.9312
6.672	1.9547
6.6634	1.9803
6.6549	2.0065
6.6464	2.0335
6.6378	2.0603
6.6294	2.0837
6.6209	2.1008
6.6124	2.1088
6.604	2.1091
6.5956	2.1051
6.5872	2.1048
6.5789	2.1157
6.5705	2.1392
6.5622	2.1711
6.5539	2.2048
6.5456	2.2341
6.5374	2.2552
6.5292	2.2666
6.5209	2.2718
6.5128	2.2763
6.5046	2.282
6.4964	2.2884
6.4883	2.2947
6.4802	2.3002
6.4721	2.3026
6.464	2.3016
6.456	2.3009
6.448	2.3054
6.4399	2.3168
6.432	2.3326
6.424	2.3492
6.416	2.3596
6.4081	2.3573
6.4002	2.3407
6.3923	2.3142
6.3844	2.2853
6.3766	2.2592
6.3687	2.2377
6.3609	2.2204
6.3531	2.2045
6.3454	2.187
6.3376	2.1657
6.3299	2.1418
6.3221	2.1152
6.3144	2.0852
6.3068	2.0492
6.2991	2.008
6.2914	1.9653
6.2838	1.9265
6.2762	1.8959
6.2686	1.8784
6.2611	1.8742
6.2535	1.8789
6.246	1.8851
6.2385	1.886
6.231	1.8796
6.2235	1.8668
6.216	1.8505
6.2086	1.837
6.2011	1.8318
6.1937	1.8375
6.1863	1.8526
6.179	1.8723
6.1716	1.8931
6.1643	1.9111
6.157	1.9229
6.1496	1.9282
6.1424	1.9293
6.1351	1.9298
6.1278	1.9324
6.1206	1.9402
6.1134	1.9549
6.1062	1.9755
6.099	1.9985
6.0918	2.0203
6.0847	2.0371
6.0776	2.0489
6.0704	2.0584
6.0633	2.0691
6.0563	2.0835
6.0492	2.1025
6.0421	2.1264
6.0351	2.1524
6.0281	2.1775
6.0211	2.2005
6.0141	2.2204
6.0071	2.2341
6.0002	2.2393
5.9932	2.236
5.9863	2.2265
5.9794	2.2123
5.9725	2.1974
5.9657	2.1863
5.9588	2.1811
5.952	2.1806
5.9451	2.1837
5.9383	2.1901
5.9315	2.1962
5.9247	2.1972
5.918	2.1929
5.9112	2.1846
5.9045	2.1747
5.8978	2.1673
5.8911	2.168
5.8844	2.1799
5.8777	2.2003
5.8711	2.2232
5.8644	2.2469
5.8578	2.2685
5.8512	2.2872
5.8446	2.3054
5.838	2.3255
5.8314	2.3492
5.8249	2.3741
5.8184	2.397
5.8118	2.4179
5.8053	2.4354
5.7988	2.4503
5.7923	2.465
5.7859	2.4804
5.7794	2.4986
5.773	2.5181
5.7666	2.5372
5.7602	2.556
5.7538	2.5728
5.7474	2.5877
5.741	2.6005
5.7347	2.6118
5.7283	2.623
5.722	2.6329
5.7157	2.6407
5.7094	2.6464
5.7031	2.6493
5.6969	2.6485
5.6906	2.6438
5.6844	2.6365
5.6782	2.627
5.6719	2.614
5.6657	2.5962
5.6596	2.5749
5.6534	2.5517
5.6472	2.5285
5.6411	2.5081
5.6349	2.4951
5.6288	2.4932
5.6227	2.5022
5.6166	2.519
5.6106	2.5398
5.6045	2.5586
5.5984	2.5699
5.5924	2.5706
5.5864	2.5626
5.5804	2.5515
5.5744	2.5427
5.5684	2.5408
5.5624	2.5465
5.5564	2.5574
5.5505	2.5709
5.5445	2.5853
5.5386	2.6007
5.5327	2.6175
5.5268	2.6369
5.5209	2.6583
5.5151	2.6798
5.5092	2.6997
5.5033	2.7184
5.4975	2.7388
5.4917	2.7615
5.4859	2.785
5.4801	2.8058
5.4743	2.8207
5.4685	2.8278
5.4628	2.8292
5.457	2.829
5.4513	2.8335
5.4455	2.8458
5.4398	2.8638
5.4341	2.8828
5.4284	2.8977
5.4228	2.9064
5.4171	2.9086
5.4114	2.9057
5.4058	2.9017
5.4002	2.9015
5.3945	2.9062
5.3889	2.9147
5.3833	2.9261
5.3778	2.9377
5.3722	2.9453
5.3666	2.9443
5.3611	2.9358
5.3555	2.9251
5.35	2.9169
5.3445	2.9147
5.339	2.9197
5.3335	2.9301
5.328	2.9405
5.3225	2.9467
5.3171	2.95
5.3116	2.9552
5.3062	2.9671
5.3008	2.9884
5.2954	3.0187
5.29	3.054
5.2846	3.0881
5.2792	3.1163
5.2738	3.1371
5.2684	3.1513
5.2631	3.1646
5.2578	3.1842
5.2524	3.2155
5.2471	3.2605
5.2418	3.3176
5.2365	3.3815
5.2312	3.4459
5.226	3.5056
5.2207	3.5586
5.2154	3.6058
5.2102	3.6479
5.205	3.6849
5.1998	3.7142
5.1945	3.7336
5.1893	3.7415
5.1842	3.7386
5.179	3.7272
5.1738	3.7102
5.1686	3.6912
5.1635	3.6723
5.1584	3.6531
5.1532	3.633
5.1481	3.6126
5.143	3.5937
5.1379	3.579
5.1328	3.5707
5.1277	3.5719
5.1227	3.5821
5.1176	3.5963
5.1126	3.6084
5.1075	3.6136
5.1025	3.611
5.0975	3.6015
5.0925	3.5882
5.0875	3.574
5.0825	3.5605
5.0775	3.5477
5.0726	3.534
5.0676	3.521
5.0627	3.5125
5.0577	3.5132
5.0528	3.5245
5.0479	3.5461
5.043	3.5745
5.038	3.6024
5.0332	3.6235
5.0283	3.6349
5.0234	3.6399
5.0185	3.6439
5.0137	3.6526
5.0088	3.6704
5.004	3.6979
4.9992	3.7315
4.9944	3.7668
4.9896	3.8016
4.9848	3.8374
4.98	3.8753
4.9752	3.9169
4.9704	3.9629
4.9657	4.014
4.9609	4.068
4.9562	4.1234
4.9514	4.18
4.9467	4.2369
4.942	4.293
4.9373	4.3456
4.9326	4.3979
4.9279	4.4552
4.9232	4.5227
4.9186	4.6054
4.9139	4.7088
4.9092	4.8353
4.9046	4.9814
4.9	5.1413
4.8953	5.3111
4.8907	5.4863
4.8861	5.663
4.8815	5.8387
4.8769	6.0132
4.8723	6.1842
4.8678	6.3483
4.8632	6.5023
4.8586	6.6462
4.8541	6.7815
4.8495	6.9105
4.845	7.0363
4.8405	7.1601
4.836	7.2809
4.8315	7.395
4.827	7.5011
4.8225	7.5989
4.818	7.6908
4.8135	7.7813
4.809	7.8758
4.8046	7.9788
4.8001	8.0927
4.7957	8.2175
4.7913	8.3515
4.7868	8.4925
4.7824	8.639
4.778	8.7927
4.7736	8.9542
4.7692	9.1236
4.7648	9.2988
4.7605	9.4767
4.7561	9.6538
4.7517	9.8269
4.7474	9.995
4.7431	10.157
4.7387	10.3119
4.7344	10.4587
4.7301	10.5966
4.7258	10.7249
4.7215	10.8414
4.7172	10.9409
4.7129	11.0143
4.7086	11.051
4.7043	11.0458
4.7	11.0039
4.6958	10.943
4.6915	10.8907
4.6873	10.8781
4.6831	10.9317
4.6788	11.0657
4.6746	11.2793
4.6704	11.5597
4.6662	11.8879
4.662	12.2453
4.6578	12.6149
4.6536	12.987
4.6495	13.3583
4.6453	13.7303
4.6411	14.1071
4.637	14.4898
4.6328	14.8789
4.6287	15.2696
4.6246	15.6519
4.6205	16.0159
4.6163	16.3543
4.6122	16.6659
4.6081	16.9558
4.604	17.2317
4.6	17.5038
4.5959	17.7759
4.5918	18.0482
4.5877	18.3177
4.5837	18.5806
4.5796	18.8328
4.5756	19.0713
4.5716	19.2955
4.5675	19.5039
4.5635	19.6912
4.5595	19.853
4.5555	19.9846
4.5515	20.0813
4.5475	20.1357
4.5435	20.1402
4.5395	20.09
4.5356	19.9816
4.5316	19.8139
4.5276	19.5934
4.5237	19.332
4.5197	19.0438
4.5158	18.7444
4.5119	18.4489
4.508	18.173
4.504	17.9312
4.5001	17.7337
4.4962	17.5871
4.4923	17.4903
4.4884	17.4351
4.4846	17.4098
4.4807	17.4041
4.4768	17.4161
4.473	17.4526
4.4691	17.5279
4.4652	17.6579
4.4614	17.8488
4.4576	18.0949
4.4537	18.3783
4.4499	18.6758
4.4461	18.9652
4.4423	19.2335
4.4385	19.4795
4.4347	19.7116
4.4309	19.9394
4.4271	20.1713
4.4233	20.4142
4.4196	20.6714
4.4158	20.943
4.412	21.2303
4.4083	21.5353
4.4045	21.8586
4.4008	22.1989
4.3971	22.5567
4.3934	22.9351
4.3896	23.3344
4.3859	23.7538
4.3822	24.1903
4.3785	24.6371
4.3748	25.0847
4.3711	25.5223
4.3674	25.9429
4.3638	26.3427
4.3601	26.718
4.3564	27.0673
4.3528	27.3904
4.3491	27.685
4.3455	27.9504
4.3418	28.1858
4.3382	28.39
4.3346	28.5609
4.331	28.6952
4.3273	28.7892
4.3237	28.839
4.3201	28.8439
4.3165	28.8075
4.3129	28.7381
4.3094	28.6481
4.3058	28.5534
4.3022	28.4705
4.2986	28.4129
4.2951	28.3902
4.2915	28.4087
4.288	28.4717
4.2844	28.5792
4.2809	28.7288
4.2774	28.9159
4.2738	29.1312
4.2703	29.3614
4.2668	29.5892
4.2633	29.7964
4.2598	29.9664
4.2563	30.0872
4.2528	30.1533
4.2493	30.171
4.2458	30.1547
4.2424	30.1258
4.2389	30.1064
4.2354	30.1099
4.232	30.14
4.2285	30.1909
4.2251	30.252
4.2216	30.3141
4.2182	30.3709
4.2148	30.424
4.2113	30.4772
4.2079	30.5312
4.2045	30.585
4.2011	30.6404
4.1977	30.7017
4.1943	30.7759
4.1909	30.8704
4.1875	30.9918
4.1841	31.142
4.1808	31.3149
4.1774	31.4996
4.174	31.6869
4.1707	31.869
4.1673	32.0417
4.164	32.2036
4.1606	32.3552
4.1573	32.4989
4.154	32.637
4.1506	32.7725
4.1473	32.9096
4.144	33.0524
4.1407	33.2051
4.1374	33.37
4.1341	33.5445
4.1308	33.7268
4.1275	33.9158
4.1242	34.1128
4.1209	34.3198
4.1177	34.5372
4.1144	34.7657
4.1111	35.0021
4.1079	35.2401
4.1046	35.4738
4.1014	35.7012
4.0981	35.9242
4.0949	36.1445
4.0917	36.3633
4.0884	36.5802
4.0852	36.7912
4.082	36.9909
4.0788	37.1732
4.0756	37.3347
4.0724	37.4756
4.0692	37.5969
4.066	37.7004
4.0628	37.7854
4.0596	37.8507
4.0565	37.896
4.0533	37.9204
4.0501	37.9261
4.047	37.9182
4.0438	37.9031
4.0406	37.8853
4.0375	37.8659
4.0344	37.8439
4.0312	37.8183
4.0281	37.7887
4.025	37.7577
4.0218	37.7295
4.0187	37.7087
4.0156	37.6975
4.0125	37.6952
4.0094	37.6985
4.0063	37.7032
4.0032	37.7068
4.0001	37.7091
3.997	37.7122
3.994	37.7207
3.9909	37.7411
3.9878	37.7785
3.9847	37.8375
3.9817	37.9206
3.9786	38.0291
3.9756	38.1633
3.9725	38.3215
3.9695	38.5015
3.9665	38.7009
3.9634	38.9157
3.9604	39.1433
3.9574	39.3827
3.9544	39.6328
3.9513	39.8933
3.9483	40.1602
3.9453	40.4282
3.9423	40.6887
3.9393	40.9293
3.9363	41.142
3.9333	41.3225
3.9304	41.4712
3.9274	41.592
3.9244	41.6902
3.9214	41.7729
3.9185	41.8449
3.9155	41.9081
3.9126	41.9635
3.9096	42.0111
3.9067	42.0474
3.9037	42.067
3.9008	42.0658
3.8979	42.0445
3.8949	42.0085
3.892	41.9642
3.8891	41.9181
3.8862	41.8738
3.8833	41.829
3.8804	41.7776
3.8775	41.7144
3.8746	41.6433
3.8717	41.5749
3.8688	41.5195
3.8659	41.4849
3.863	41.4747
3.8601	41.487
3.8573	41.5124
3.8544	41.5432
3.8515	41.5792
3.8487	41.6242
3.8458	41.6791
3.843	41.7461
3.8401	41.8269
3.8373	41.9214
3.8344	42.0239
3.8316	42.1305
3.8288	42.2415
3.8259	42.3576
3.8231	42.4779
3.8203	42.6022
3.8175	42.7282
3.8147	42.8509
3.8119	42.9617
3.8091	43.0531
3.8063	43.1237
3.8035	43.1748
3.8007	43.2099
3.7979	43.2338
3.7951	43.2485
3.7924	43.2509
3.7896	43.2359
3.7868	43.1999
3.7841	43.1431
3.7813	43.0676
3.7785	42.9792
3.7758	42.8864
3.773	42.7955
3.7703	42.7093
3.7676	42.6294
3.7648	42.5584
3.7621	42.4959
3.7594	42.4386
3.7566	42.386
3.7539	42.3417
3.7512	42.3069
3.7485	42.2823
3.7458	42.2709
3.7431	42.2747
3.7404	42.2932
3.7377	42.3251
3.735	42.3716
3.7323	42.435
3.7296	42.5163
3.7269	42.6164
3.7242	42.7384
3.7216	42.885
3.7189	43.0607
3.7162	43.2658
3.7136	43.4862
3.7109	43.6883
3.7083	43.8277
3.7056	43.8704
3.703	43.8071
3.7003	43.6695
3.6977	43.5405
3.695	43.5241
3.6924	43.6928
3.6898	44.0586
3.6872	44.5739
3.6845	45.1499
3.6819	45.6863
3.6793	46.1123
3.6767	46.4142
3.6741	46.6217
3.6715	46.7735
3.6689	46.9009
3.6663	47.024
3.6637	47.1484
3.6611	47.2708
3.6585	47.3878
3.656	47.4993
3.6534	47.6059
3.6508	47.7039
3.6482	47.7878
3.6457	47.8543
3.6431	47.9031
3.6406	47.9379
3.638	47.964
3.6355	47.9867
3.6329	48.0109
3.6304	48.039
3.6278	48.0734
3.6253	48.1143
3.6227	48.1603
3.6202	48.2086
3.6177	48.2555
3.6152	48.2969
3.6127	48.3298
3.6101	48.3538
3.6076	48.3729
3.6051	48.3912
3.6026	48.412
3.6001	48.4369
3.5976	48.4641
3.5951	48.4914
3.5926	48.5193
3.5901	48.5522
3.5876	48.5948
3.5852	48.6493
3.5827	48.7142
3.5802	48.7822
3.5777	48.843
3.5753	48.8885
3.5728	48.9183
3.5704	48.9366
3.5679	48.9494
3.5654	48.9619
3.563	48.9754
3.5605	48.9851
3.5581	48.9842
3.5557	48.9662
3.5532	48.9297
3.5508	48.8778
3.5484	48.8158
3.5459	48.7483
3.5435	48.6761
3.5411	48.596
3.5387	48.5041
3.5363	48.3952
3.5338	48.2685
3.5314	48.1281
3.529	47.9815
3.5266	47.8368
3.5242	47.698
3.5218	47.5661
3.5195	47.4389
3.5171	47.3134
3.5147	47.1891
3.5123	47.0707
3.5099	46.9689
3.5075	46.8969
3.5052	46.8647
3.5028	46.8772
3.5004	46.9331
3.4981	47.0221
3.4957	47.1266
3.4934	47.2268
3.491	47.3051
3.4887	47.3485
3.4863	47.3518
3.484	47.322
3.4816	47.2741
3.4793	47.2272
3.477	47.1983
3.4746	47.1976
3.4723	47.2251
3.47	47.2691
3.4677	47.3104
3.4653	47.3281
3.463	47.3061
3.4607	47.2369
3.4584	47.1226
3.4561	46.9727
3.4538	46.8002
3.4515	46.6155
3.4492	46.4232
3.4469	46.2234
3.4446	46.0162
3.4423	45.8025
3.44	45.584
3.4378	45.3625
3.4355	45.1404
3.4332	44.918
3.4309	44.6914
3.4287	44.4548
3.4264	44.2055
3.4241	43.9398
3.4219	43.6518
3.4196	43.3361
3.4174	42.9915
3.4151	42.6228
3.4129	42.2373
3.4106	41.8484
3.4084	41.4752
3.4061	41.1302
3.4039	40.8159
3.4017	40.5268
3.3994	40.2511
3.3972	39.9745
3.395	39.6837
3.3928	39.3725
3.3906	39.0415
3.3883	38.6945
3.3861	38.3395
3.3839	37.9893
3.3817	37.6592
3.3795	37.3627
3.3773	37.1086
3.3751	36.8952
3.3729	36.705
3.3707	36.5099
3.3685	36.2757
3.3663	35.9754
3.3641	35.592
3.362	35.1236
3.3598	34.5917
3.3576	34.0333
3.3554	33.4919
3.3533	33.0133
3.3511	32.6394
3.3489	32.4009
3.3468	32.31
3.3446	32.363
3.3425	32.5468
3.3403	32.8383
3.3382	33.2037
3.336	33.6027
3.3339	33.9947
3.3317	34.3449
3.3296	34.6274
3.3274	34.8318
3.3253	34.9661
3.3232	35.0502
3.321	35.1037
3.3189	35.139
3.3168	35.1648
3.3147	35.1899
3.3126	35.2237
3.3104	35.2846
3.3083	35.4004
3.3062	35.5986
3.3041	35.8916
3.302	36.2747
3.2999	36.7323
3.2978	37.2454
3.2957	37.7989
3.2936	38.3912
3.2915	39.0339
3.2894	39.7346
3.2874	40.483
3.2853	41.2495
3.2832	41.991
3.2811	42.66
3.279	43.2177
3.277	43.6463
3.2749	43.9509
3.2728	44.1479
3.2708	44.258
3.2687	44.3028
3.2666	44.2999
3.2646	44.2625
3.2625	44.2007
3.2605	44.1245
3.2584	44.0421
3.2564	43.9573
3.2543	43.8678
3.2523	43.77
3.2503	43.6582
3.2482	43.527
3.2462	43.3752
3.2442	43.2089
3.2421	43.0391
3.2401	42.875
3.2381	42.7216
3.2361	42.5823
3.234	42.4559
3.232	42.3358
3.23	42.2179
3.228	42.1004
3.226	41.9784
3.224	41.8454
3.222	41.695
3.22	41.5245
3.218	41.3317
3.216	41.1162
3.214	40.8836
3.212	40.6381
3.21	40.375
3.208	40.0891
3.206	39.7746
3.204	39.4286
3.2021	39.0509
3.2001	38.6455
3.1981	38.2214
3.1961	37.7833
3.1942	37.3307
3.1922	36.8668
3.1902	36.3976
3.1883	35.9332
3.1863	35.4871
3.1844	35.0708
3.1824	34.6909
3.1805	34.3461
3.1785	34.0364
3.1766	33.7697
3.1746	33.5646
3.1727	33.4448
3.1707	33.4303
3.1688	33.5267
3.1669	33.7174
3.1649	33.971
3.163	34.2526
3.1611	34.5351
3.1591	34.806
3.1572	35.0665
3.1553	35.3225
3.1534	35.579
3.1515	35.8319
3.1495	36.0701
3.1476	36.278
3.1457	36.4381
3.1438	36.5395
3.1419	36.5771
3.14	36.5558
3.1381	36.4891
3.1362	36.3953
3.1343	36.2918
3.1324	36.1909
3.1305	36.095
3.1286	35.9996
3.1268	35.8984
3.1249	35.7852
3.123	35.6611
3.1211	35.5344
3.1192	35.4168
3.1174	35.3211
3.1155	35.255
3.1136	35.2209
3.1117	35.2147
3.1099	35.2249
3.108	35.2387
3.1061	35.2448
3.1043	35.2349
3.1024	35.2053
3.1006	35.1565
3.0987	35.0933
3.0969	35.0201
3.095	34.9381
3.0932	34.8467
3.0913	34.7444
3.0895	34.6277
3.0876	34.4941
3.0858	34.348
3.084	34.199
3.0821	34.0572
3.0803	33.9305
3.0785	33.8244
3.0766	33.7406
3.0748	33.6747
3.073	33.6222
3.0712	33.5802
3.0694	33.5471
3.0675	33.5182
3.0657	33.4841
3.0639	33.4322
3.0621	33.3501
3.0603	33.229
3.0585	33.0699
3.0567	32.8831
3.0549	32.6872
3.0531	32.5013
3.0513	32.3363
3.0495	32.1932
3.0477	32.0653
3.0459	31.9443
3.0441	31.8238
3.0423	31.704
3.0406	31.5919
3.0388	31.4967
3.037	31.424
3.0352	31.3738
3.0334	31.3404
3.0317	31.317
3.0299	31.2945
3.0281	31.2656
3.0264	31.2261
3.0246	31.1732
3.0228	31.1069
3.0211	31.0281
3.0193	30.9386
3.0176	30.8422
3.0158	30.7432
3.014	30.6437
3.0123	30.5428
3.0105	30.4396
3.0088	30.3349
3.007	30.2295
3.0053	30.1251
3.0036	30.0252
3.0018	29.9345
3.0001	29.8539
2.9984	29.7831
2.9966	29.7209
2.9949	29.6666
2.9932	29.6188
2.9914	29.5743
2.9897	29.5297
2.988	29.4819
2.9863	29.427
2.9845	29.3611
2.9828	29.2842
2.9811	29.1999
2.9794	29.1165
2.9777	29.0421
2.976	28.9858
2.9743	28.9545
2.9726	28.951
2.9709	28.9737
2.9692	29.0211
2.9675	29.0897
2.9658	29.1785
2.9641	29.2842
2.9624	29.4035
2.9607	29.5321
2.959	29.664
2.9573	29.7947
2.9556	29.9207
2.9539	30.0384
2.9523	30.1455
2.9506	30.24
2.9489	30.3176
2.9472	30.3735
2.9455	30.4048
2.9439	30.4147
2.9422	30.4105
2.9405	30.3998
2.9389	30.3922
2.9372	30.3937
2.9355	30.4034
2.9339	30.4128
2.9322	30.4135
2.9306	30.401
2.9289	30.3745
2.9272	30.3361
2.9256	30.2909
2.9239	30.2447
2.9223	30.1983
2.9207	30.1471
2.919	30.0867
2.9174	30.0176
2.9157	29.9446
2.9141	29.8743
2.9124	29.8165
2.9108	29.782
2.9092	29.7727
2.9075	29.7817
2.9059	29.7973
2.9043	29.8104
2.9027	29.8149
2.901	29.8094
2.8994	29.7997
2.8978	29.7973
2.8962	29.809
2.8946	29.8364
2.8929	29.879
2.8913	29.9342
2.8897	29.9989
2.8881	30.069
2.8865	30.1431
2.8849	30.217
2.8833	30.2795
2.8817	30.3214
2.8801	30.3366
2.8785	30.3217
2.8769	30.2809
2.8753	30.2276
2.8737	30.1784
2.8721	30.1457
2.8705	30.1353
2.8689	30.1504
2.8673	30.1886
2.8658	30.2402
2.8642	30.2951
2.8626	30.3458
2.861	30.3825
2.8594	30.3996
2.8579	30.397
2.8563	30.3794
2.8547	30.3565
2.8531	30.3378
2.8516	30.3295
2.85	30.333
2.8484	30.3416
2.8469	30.3475
2.8453	30.3446
2.8437	30.3264
2.8422	30.2906
2.8406	30.2385
2.8391	30.1706
2.8375	30.0865
2.836	29.9918
2.8344	29.897
2.8329	29.8163
2.8313	29.7609
2.8298	29.7389
2.8282	29.7514
2.8267	29.7914
2.8252	29.8447
2.8236	29.8985
2.8221	29.9397
2.8205	29.956
2.819	29.939
2.8175	29.8866
2.8159	29.8054
2.8144	29.709
2.8129	29.6124
2.8114	29.5288
2.8098	29.4613
2.8083	29.4092
2.8068	29.368
2.8053	29.3315
2.8038	29.2936
2.8022	29.2503
2.8007	29.1942
2.7992	29.1141
2.7977	29.0012
2.7962	28.8626
2.7947	28.7146
2.7932	28.5624
2.7917	28.3881
2.7902	28.1522
2.7887	27.8083
2.7872	27.3257
2.7857	26.7292
2.7842	26.1203
2.7827	25.6389
2.7812	25.3893
2.7797	25.3923
2.7782	25.5759
2.7767	25.8046
2.7752	25.9368
2.7738	25.892
2.7723	25.6836
2.7708	25.3845
2.7693	25.0696
2.7678	24.7764
2.7664	24.496
2.7649	24.1877
2.7634	23.8121
2.7619	23.356
2.7605	22.8369
2.759	22.2886
2.7575	21.7489
2.7561	21.2469
2.7546	20.7979
2.7531	20.4022
2.7517	20.0446
2.7502	19.6919
2.7488	19.2958
2.7473	18.8086
2.7458	18.2097
2.7444	17.5187
2.7429	16.7824
2.7415	16.0504
2.74	15.3464
2.7386	14.6532
2.7371	13.92
2.7357	13.0898
2.7343	12.1389
2.7328	11.0967
2.7314	10.0249
2.7299	8.9864
2.7285	8.0309
2.7271	7.1985
2.7256	6.5416
2.7242	6.1482
2.7228	6.1525
2.7213	6.7035
2.7199	7.8973
2.7185	9.7109
2.7171	11.981
2.7156	14.4289
2.7142	16.7249
2.7128	18.5723
2.7114	19.7822
2.71	20.306
2.7085	20.226
2.7071	19.7156
2.7057	18.9943
2.7043	18.2805
2.7029	17.7548
2.7015	17.5424
2.7001	17.7039
2.6987	18.2362
2.6973	19.0805
2.6959	20.1369
2.6945	21.2862
2.6931	22.4075
2.6917	23.4012
2.6903	24.2092
2.6889	24.8268
2.6875	25.3035
2.6861	25.7253
2.6847	26.1925
2.6833	26.791
2.6819	27.5708
2.6805	28.5401
2.6791	29.678
2.6778	30.9585
2.6764	32.368
2.675	33.9063
2.6736	35.5775
2.6722	37.3657
2.6709	39.2096
2.6695	41.0011
2.6681	42.6117
2.6667	43.93
2.6654	44.8958
2.664	45.515
2.6626	45.8572
2.6613	46.023
2.6599	46.1031
2.6585	46.1535
2.6572	46.1923
2.6558	46.2099
2.6545	46.1831
2.6531	46.0903
2.6517	45.9243
2.6504	45.6936
2.649	45.4168
2.6477	45.1196
2.6463	44.8262
2.645	44.559
2.6436	44.3348
2.6423	44.1567
2.6409	44.0203
2.6396	43.9177
2.6382	43.8419
2.6369	43.7868
2.6356	43.746
2.6342	43.7155
2.6329	43.6918
2.6315	43.6646
2.6302	43.6241
2.6289	43.5646
2.6275	43.4867
2.6262	43.3965
2.6249	43.3051
2.6236	43.2267
2.6222	43.1725
2.6209	43.1445
2.6196	43.1396
2.6183	43.1488
2.6169	43.1606
2.6156	43.162
2.6143	43.1381
2.613	43.0737
2.6117	42.9544
2.6103	42.7722
2.609	42.5331
2.6077	42.2567
2.6064	41.9758
2.6051	41.7246
2.6038	41.5257
2.6025	41.3852
2.6012	41.2931
2.5999	41.2303
2.5986	41.179
2.5973	41.1266
2.596	41.0698
2.5947	41.007
2.5934	40.9355
2.5921	40.8533
2.5908	40.7612
2.5895	40.6674
2.5882	40.5867
2.5869	40.5339
2.5856	40.5161
2.5843	40.5261
2.583	40.5386
2.5817	40.522
2.5805	40.4462
2.5792	40.2935
2.5779	40.0614
2.5766	39.7668
2.5753	39.4376
2.5741	39.1035
2.5728	38.7881
2.5715	38.5091
2.5702	38.2758
2.569	38.0899
2.5677	37.9488
2.5664	37.8496
2.5651	37.7859
2.5639	37.7494
2.5626	37.7352
2.5613	37.7449
2.5601	37.7856
2.5588	37.8702
2.5575	38.0125
2.5563	38.215
2.555	38.4646
2.5538	38.7374
2.5525	39.0078
2.5513	39.2536
2.55	39.4601
2.5487	39.628
2.5475	39.7659
2.5462	39.8814
2.545	39.9835
2.5437	40.082
2.5425	40.1848
2.5413	40.2895
2.54	40.3861
2.5388	40.4616
2.5375	40.5002
2.5363	40.4946
2.535	40.4543
2.5338	40.4046
2.5326	40.374
2.5313	40.378
2.5301	40.4121
2.5289	40.4493
2.5276	40.4488
2.5264	40.3714
2.5252	40.1926
2.5239	39.912
2.5227	39.5487
2.5215	39.1322
2.5202	38.6983
2.519	38.2839
2.5178	37.9232
2.5166	37.6442
2.5154	37.4647
2.5141	37.389
2.5129	37.4006
2.5117	37.4643
2.5105	37.541
2.5093	37.5971
2.5081	37.6097
2.5068	37.5673
2.5056	37.4716
2.5044	37.3283
2.5032	37.142
2.502	36.9184
2.5008	36.6712
2.4996	36.4185
2.4984	36.1774
2.4972	35.9628
2.496	35.7833
2.4948	35.6389
2.4936	35.5228
2.4924	35.4276
2.4912	35.3483
2.49	35.2787
2.4888	35.2112
2.4876	35.1383
2.4864	35.0516
2.4852	34.9434
2.484	34.8136
2.4828	34.671
2.4816	34.5303
2.4805	34.4058
2.4793	34.3058
2.4781	34.2305
2.4769	34.1694
2.4757	34.1046
2.4745	34.0193
2.4734	33.9061
2.4722	33.7699
2.471	33.6217
2.4698	33.477
2.4686	33.3508
2.4675	33.253
2.4663	33.1845
2.4651	33.1433
2.464	33.1291
2.4628	33.1476
2.4616	33.2092
2.4604	33.3259
2.4593	33.5075
2.4581	33.7536
2.4569	34.0513
2.4558	34.3759
2.4546	34.6964
2.4535	34.9846
2.4523	35.2195
2.4511	35.3848
2.45	35.4665
2.4488	35.4539
2.4477	35.344
2.4465	35.143
2.4454	34.8773
2.4442	34.5981
2.4431	34.3738
2.4419	34.2699
2.4408	34.3328
2.4396	34.5772
2.4385	34.9822
2.4373	35.4928
2.4362	36.04
2.435	36.5606
2.4339	37.0065
2.4327	37.3504
2.4316	37.5834
2.4305	37.7113
2.4293	37.7458
2.4282	37.6966
2.427	37.5701
2.4259	37.3712
2.4248	37.105
2.4236	36.7799
2.4225	36.4104
2.4214	36.0216
2.4202	35.6493
2.4191	35.3329
2.418	35.1098
2.4169	35.0078
2.4157	35.0362
2.4146	35.1847
2.4135	35.421
2.4124	35.6981
2.4112	35.9638
2.4101	36.1717
2.409	36.293
2.4079	36.3117
2.4068	36.2205
2.4056	36.0157
2.4045	35.687
2.4034	35.2119
2.4023	34.5633
2.4012	33.7316
2.4001	32.7362
2.399	31.6206
2.3979	30.4507
2.3967	29.3017
2.3956	28.236
2.3945	27.2821
2.3934	26.4334
2.3923	25.6649
2.3912	24.9459
2.3901	24.2533
2.389	23.5925
2.3879	22.9998
2.3868	22.5276
2.3857	22.2256
2.3846	22.1293
2.3835	22.25
2.3824	22.5719
2.3813	23.063
2.3802	23.6899
2.3791	24.4183
2.3781	25.2154
2.377	26.0481
2.3759	26.889
2.3748	27.7141
2.3737	28.5084
2.3726	29.2719
2.3715	30.0152
2.3704	30.7479
2.3694	31.4747
2.3683	32.1961
2.3672	32.9119
2.3661	33.6188
2.365	34.3165
2.364	35.0004
2.3629	35.6533
2.3618	36.2435
2.3607	36.7387
2.3597	37.1176
2.3586	37.3776
2.3575	37.5377
2.3564	37.6414
2.3554	37.7409
2.3543	37.8775
2.3532	38.08
2.3522	38.3675
2.3511	38.7442
2.35	39.1933
2.349	39.6854
2.3479	40.1879
2.3468	40.6646
2.3458	41.0795
2.3447	41.4091
2.3436	41.6478
2.3426	41.7996
2.3415	41.8688
2.3405	41.8584
2.3394	41.7703
2.3384	41.6019
2.3373	41.3464
2.3363	40.9961
2.3352	40.5459
2.3342	39.9885
2.3331	39.3064
2.3321	38.4705
2.331	37.4427
2.33	36.184
2.3289	34.6668
2.3279	32.8923
2.3268	30.9113
2.3258	28.825
2.3247	26.7654
2.3237	24.8702
2.3226	23.243
2.3216	21.9327
2.3206	20.9201
2.3195	20.1369
2.3185	19.5008
2.3175	18.9446
2.3164	18.4373
2.3154	17.9883
2.3144	17.6283
2.3133	17.3941
2.3123	17.3077
2.3113	17.3702
2.3102	17.5627
2.3092	17.8526
2.3082	18.2036
2.3071	18.5725
2.3061	18.9116
2.3051	19.1743
2.3041	19.3237
2.303	19.3417
2.302	19.2406
2.301	19.0762
2.3	18.9299
2.299	18.8804
2.2979	18.9848
2.2969	19.2602
2.2959	19.6841
2.2949	20.2106
2.2939	20.8
2.2929	21.4392
2.2918	22.1319
2.2908	22.8835
2.2898	23.6887
2.2888	24.5152
2.2878	25.3095
2.2868	26.0192
2.2858	26.6186
2.2848	27.1159
2.2838	27.5485
2.2828	27.9691
2.2818	28.4264
2.2808	28.9446
2.2798	29.5155
2.2787	30.1121
2.2777	30.6975
2.2767	31.2362
2.2757	31.7068
2.2747	32.1065
2.2738	32.4513
2.2728	32.772
2.2718	33.1078
2.2708	33.5038
2.2698	33.9959
2.2688	34.6064
2.2678	35.3393
2.2668	36.1783
2.2658	37.0962
2.2648	38.0639
2.2638	39.0578
2.2628	40.0572
2.2618	41.0373
2.2609	41.9751
2.2599	42.8459
2.2589	43.6236
2.2579	44.2933
2.2569	44.8558
2.2559	45.3242
2.255	45.7107
2.254	46.0209
2.253	46.2587
2.252	46.4194
2.251	46.4952
2.2501	46.4841
2.2491	46.4033
2.2481	46.2864
2.2471	46.1725
2.2462	46.1021
2.2452	46.1083
2.2442	46.2049
2.2433	46.3861
2.2423	46.6316
2.2413	46.9255
2.2403	47.2642
2.2394	47.6485
2.2384	48.0802
2.2374	48.5522
2.2365	49.0464
2.2355	49.5338
2.2345	49.98
2.2336	50.362
2.2326	50.6779
2.2317	50.9351
2.2307	51.1449
2.2297	51.3213
2.2288	51.4774
2.2278	51.6166
2.2269	51.7374
2.2259	51.8425
2.225	51.9377
2.224	52.0235
2.2231	52.0992
2.2221	52.167
2.2211	52.229
2.2202	52.284
2.2192	52.333
2.2183	52.3829
2.2173	52.4384
2.2164	52.4973
2.2155	52.5523
2.2145	52.5937
2.2136	52.615
2.2126	52.6127
2.2117	52.5937
2.2107	52.5722
2.2098	52.5639
2.2088	52.5793
2.2079	52.6153
2.207	52.6605
2.206	52.7055
2.2051	52.7434
2.2041	52.7723
2.2032	52.7964
2.2023	52.8246
2.2013	52.8625
2.2004	52.9061
2.1995	52.9485
2.1985	52.9875
2.1976	53.0228
2.1967	53.0527
2.1957	53.0766
2.1948	53.0965
2.1939	53.1149
2.193	53.1332
2.192	53.1509
2.1911	53.172
2.1902	53.1983
2.1893	53.2246
2.1883	53.2459
2.1874	53.2589
2.1865	53.2611
2.1856	53.2525
2.1846	53.2319
2.1837	53.2019
2.1828	53.1663
2.1819	53.1327
2.181	53.113
2.18	53.1171
2.1791	53.1476
2.1782	53.2016
2.1773	53.2698
2.1764	53.3406
2.1755	53.4098
2.1746	53.4832
2.1736	53.5713
2.1727	53.676
2.1718	53.7873
2.1709	53.8891
2.17	53.9625
2.1691	53.9926
2.1682	53.9831
2.1673	53.9514
2.1664	53.9144
2.1655	53.8808
2.1646	53.8493
2.1637	53.815
2.1628	53.7681
2.1619	53.7053
2.161	53.6371
2.1601	53.5793
2.1592	53.5443
2.1583	53.5358
2.1574	53.5542
2.1565	53.5881
2.1556	53.617
2.1547	53.6241
2.1538	53.6018
2.1529	53.5502
2.152	53.4711
2.1511	53.3709
2.1502	53.2589
2.1493	53.1348
2.1484	52.9987
2.1475	52.8613
2.1466	52.7424
2.1458	52.6629
2.1449	52.6368
2.144	52.6676
2.1431	52.7465
2.1422	52.8452
2.1413	52.9333
2.1404	52.997
2.1396	53.0318
2.1387	53.0389
2.1378	53.0193
2.1369	52.9686
2.136	52.8762
2.1352	52.7216
2.1343	52.4954
2.1334	52.2198
2.1325	51.9365
2.1316	51.6971
2.1308	51.5477
2.1299	51.5119
2.129	51.5801
2.1281	51.7066
2.1273	51.8352
2.1264	51.9228
2.1255	51.9446
2.1247	51.8991
2.1238	51.8065
2.1229	51.699
2.122	51.61
2.1212	51.5598
2.1203	51.5557
2.1194	51.5901
2.1186	51.6401
2.1177	51.6803
2.1168	51.69
2.116	51.6604
2.1151	51.5927
2.1143	51.4918
2.1134	51.3656
2.1125	51.2214
2.1117	51.0769
2.1108	50.972
2.11	50.9651
2.1091	51.1202
2.1082	51.4814
2.1074	52.05
2.1065	52.777
2.1057	53.5718
2.1048	54.335
2.104	54.9891
2.1031	55.4971
2.1023	55.8639
2.1014	56.1227
2.1005	56.3101
2.0997	56.4548
2.0988	56.5701
2.098	56.6589
2.0971	56.7209
2.0963	56.7598
2.0955	56.7806
2.0946	56.7889
2.0938	56.7894
2.0929	56.7884
2.0921	56.7936
2.0912	56.8121
2.0904	56.85
2.0895	56.9099
2.0887	56.9819
2.0879	57.0539
2.087	57.1117
2.0862	57.1579
2.0853	57.2156
2.0845	57.2786
2.0837	57.4103
2.0828	57.6033
2.082	57.7499
2.0812	58.1262
2.0803	58.2531
2.0795	58.2977
2.076	58.6256
2.072	59.4836
2.068	60.3213
2.064	60.5376
2.06	60.9586
2.056	61.1945
2.052	61.1574
2.048	61.887
2.044	62.1733
2.04	62.6859
2.036	63.7302
2.032	64.5655
2.028	64.7454
2.024	65.1503
2.02	65.563
2.016	65.6349
2.012	65.7859
2.008	65.7249
2.004	65.5484
2	65.4366
1.996	65.2164
1.992	65.3255
1.988	65.7218
1.984	66.0593
1.98	66.3854
1.976	66.8265
1.972	67.1767
1.968	67.7243
1.964	68.8088
1.96	69.6006
1.956	70.021
1.952	70.2915
1.948	70.6061
1.944	70.6061
1.94	70.7541
1.936	71.0028
1.932	71.5805
1.928	72.0372
1.924	72.1501
1.92	71.4441
1.916	71.6496
1.912	71.922
1.908	72.0203
1.904	72.4741
1.9	73.0355
1.896	73.2229
1.892	73.305
1.888	73.901
1.884	74.6
1.88	75.1183
1.876	75.2754
1.872	75.6827
1.868	75.5098
1.864	75.6672
1.86	75.7105
1.856	76.0268
1.852	76.328
1.848	76.4888
1.844	76.5317
1.84	76.8726
1.836	77.1552
1.832	77.4747
1.828	77.7495
1.824	77.9083
1.82	78.2135
1.816	78.5506
1.812	78.6746
1.808	79.18
1.804	79.4331
1.8	79.7692
1.796	79.595
1.792	79.9192
1.788	79.8757
1.784	80.0256
1.78	80.0628
1.776	80.3625
1.772	80.325
1.768	80.3313
1.764	80.3376
1.76	80.3253
1.756	80.5011
1.752	80.4747
1.748	80.287
1.744	80.9565
1.74	81.4897
1.736	81.6425
1.732	81.4043
1.728	81.3824
1.724	81.6068
1.72	81.6914
1.716	81.5441
1.712	81.4879
1.708	81.7449
1.704	81.842
1.7	82.0391
1.696	81.9567
1.692	82.331
1.688	82.2169
1.684	82.2714
1.68	82.48
1.676	82.5501
1.672	82.5204
1.668	82.5036
1.664	82.8407
1.66	82.7072
1.656	82.4318
1.652	82.7983
1.648	83.0647
1.644	83.1029
1.64	83.0319
1.636	82.7668
1.632	82.9382
1.628	82.8359
1.624	82.9792
1.62	82.9957
1.616	82.8915
1.612	82.7261
1.608	82.9369
1.604	83.1123
1.6	83.1276
1.596	83.2642
1.592	83.0882
1.588	82.9445
1.584	82.7802
1.58	82.7519
1.576	83.1058
1.572	83.5483
1.568	83.8445
1.564	83.519
1.56	83.3131
1.556	83.1681
1.552	83.2497
1.548	83.073
1.544	82.9672
1.54	83.566
1.536	83.1688
1.532	82.9039
1.528	82.9812
1.524	82.9507
1.52	83.04
1.516	82.9718
1.512	82.9144
1.508	82.7012
1.504	82.3537
1.5	82.4818
1.496	82.8381
1.492	82.7517
1.488	82.9229
1.484	83.177
1.48	83.3564
1.476	83.4119
1.472	83.2914
1.468	83.1631
1.464	82.9986
1.46	83.0159
1.456	82.6962
1.452	82.8162
1.448	82.6199
1.444	82.5554
1.44	82.6118
1.436	82.7285
1.432	82.6441
1.428	82.6118
1.424	82.2406
1.42	82.0365
1.416	81.9574
1.412	81.9354
1.408	81.2486
1.404	80.4398
1.4	79.2632
1.396	74.7735
1.392	65.3454
1.388	52.7629
1.384	48.9088
1.38	56.8384
1.376	65.9445
1.372	70.8221
1.368	74.15
1.364	76.8586
1.36	78.8517
1.356	80.3149
1.352	81.2652
1.348	82.2644
1.344	82.5187
1.34	82.9659
1.336	83.3368
1.332	82.9663
1.328	82.6783
1.324	82.4465
1.32	82.3107
1.316	82.1932
1.312	82.3071
1.308	82.499
1.304	82.453
1.3	82.5135
1.296	82.3182
1.292	81.9293
1.288	81.9464
1.284	82.2219
1.28	82.3915
1.276	82.1788
1.272	81.5588
1.268	81.2946
1.264	81.355
1.26	81.8143
1.256	82.2244
1.252	82.3638
1.248	82.3124
1.244	82.5573
1.24	83.1091
1.236	83.2406
1.232	83.0923
1.228	82.5965
1.224	82.5377
1.22	82.8408
1.216	82.6823
1.212	82.9484
1.208	83.2142
1.204	83.2397
1.2	83.1655
1.196	82.9693
1.192	82.8397
1.188	82.5124
1.184	82.373
1.18	82.1791
1.176	81.807
1.172	81.4613
1.168	81.0151
1.164	80.8399
1.16	80.4048
1.156	79.9101
1.152	79.4958
1.148	79.2441
1.144	78.8911
1.14	77.412
1.136	76.6856
1.132	76.1573
1.128	75.2946
1.124	74.7021
1.12	73.5154
1.116	72.185
1.112	71.1811
1.108	70.014
1.104	68.855
1.1	67.5525
1.096	66.014
1.092	64.6471
1.088	63.3616
1.084	62.0726
1.08	60.0793
1.076	58.379
1.072	56.8956
1.068	55.4819
1.064	53.7995
1.06	52.1362
1.056	51.1572
1.052	50.0678
1.048	49.0086
1.044	47.8757
1.04	46.467
1.036	45.7739
1.032	45.3352
1.028	44.9283
1.024	44.2745
1.02	43.9764
1.016	43.8069
1.012	43.5587
1.008	43.3732
1.004	43.0813
1	42.9461
0.996	42.949
0.992	42.8417
0.988	42.6637
0.984	42.7991
0.98	42.9022
0.976	42.9048
0.972	42.8105
0.968	43.0133
0.964	43.1943
0.96	43.2742
0.956	43.3423
0.952	43.5189
0.948	43.7006
0.944	43.8033
0.94	43.8604
0.936	44.3608
0.932	44.919
0.928	45.7071
0.924	46.2645
0.92	46.9338
0.916	47.3141
0.912	48.0636
0.908	48.8523
0.904	49.6498
0.9	50.2326
0.896	51.074
0.892	51.8207
0.888	52.8208
0.884	53.7823
0.88	54.7292
0.876	55.7714
0.872	56.7934
0.868	57.9028
0.864	58.8003
0.86	59.8232
0.856	60.9058
0.852	61.9242
0.848	62.9737
0.844	64.1772
0.84	65.0892
0.836	66.2252
0.832	67.5664
0.828	69.0452
0.824	69.7135
0.82	70.4884
0.816	71.7848
0.812	72.6699
0.808	73.4095
0.804	74.5299
0.8	75.3611
0.799	75.3656
0.798	75.3679
0.797	75.5547
0.796	75.8736
0.795	76.1619
0.794	76.2143
0.793	76.3775
0.792	76.3781
0.791	76.4207
0.79	76.7856
0.789	76.6227
0.788	76.8288
0.787	77.256
0.786	76.9947
0.785	77.5945
0.784	77.5603
0.783	77.5227
0.782	77.4699
0.781	78.4126
0.78	78.5566
0.779	78.181
0.778	77.9594
0.777	78.1929
0.776	78.7221
0.775	78.6873
0.774	78.4842
0.773	78.2342
0.772	78.4861
0.771	78.9361
0.77	79.2891
0.769	79.3442
0.768	79.4488
0.767	79.5083
0.766	79.873
0.765	79.7031
0.764	79.3936
0.763	79.1495
0.762	79.5348
0.761	79.3588
0.76	80.0835
0.759	79.9742
0.758	80.0197
0.757	79.9976
0.756	79.9532
0.755	79.8798
0.754	80.2809
0.753	80.0822
0.752	80.2799
0.751	79.9209
0.75	80.3139
0.749	80.8753
0.748	80.6115
0.747	80.1736
0.746	80.2277
0.745	80.8126
0.744	80.8178
0.743	80.8289
0.742	80.8067
0.741	80.7453
0.74	80.6549
0.739	80.7343
0.738	81.0355
0.737	80.9116
0.736	80.7944
0.735	81.2419
0.734	81.1578
0.733	80.8623
0.732	80.7635
0.731	80.4489
0.73	80.4388
0.729	80.4364
0.728	80.1224
0.727	80.467
0.726	80.5709
0.725	80.8651
0.724	81.0791
0.723	80.9697
0.722	80.8037
0.721	80.8958
0.72	80.7589
0.719	80.5952
0.718	80.7197
0.717	81.0719
0.716	80.8487
0.715	80.9297
0.714	81.0378
0.713	81.1175
0.712	81.1559
0.711	81.5202
0.71	81.3891
0.709	81.424
0.708	81.3781
0.707	81.1367
0.706	80.8991
0.705	81.0743
0.704	81.2884
0.703	81.2906
0.702	81.2084
0.701	81.1229
0.7	81.0882
0.699	80.9806
0.698	79.7896
0.697	79.8941
0.696	80.4127
0.695	79.5745
0.694	78.8829
0.693	79.1869
0.692	79.4818
0.691	79.5491
0.69	79.4954
0.689	79.2884
0.688	79.4749
0.687	80.0028
0.686	80.087
0.685	79.5873
0.684	79.5577
0.683	79.4642
0.682	79.2304
0.681	79.7779
0.68	79.6442
0.679	79.5248
0.678	79.6188
0.677	79.638
0.676	79.5426
0.675	79.3655
0.674	78.9406
0.673	79.0233
0.672	78.9872
0.671	79.3909
0.67	79.6028
0.669	79.352
0.668	79.3814
0.667	79.1902
0.666	79.0292
0.665	79.1554
0.664	79.0608
0.663	78.7669
0.662	78.9422
0.661	78.9166
0.66	79.2221
0.659	79.6927
0.658	79.7544
0.657	79.4288
0.656	78.9345
0.655	78.6709
0.654	78.8971
0.653	78.9962
0.652	78.7025
0.651	78.4138
0.65	78.6745
0.649	79.4963
0.648	79.367
0.647	79.3709
0.646	79.2688
0.645	79.1278
0.644	79.3346
0.643	79.1243
0.642	79.2341
0.641	78.8445
0.64	78.388
0.639	78.4206
0.638	78.4293
0.637	78.9917
0.636	78.8166
0.635	78.7282
0.634	78.9616
0.633	78.9465
0.632	78.8021
0.631	78.5939
0.63	79.1978
0.629	79.3716
0.628	79.5668
0.627	79.2499
0.626	79.0207
0.625	78.6821
0.624	78.3205
0.623	78.1365
0.622	77.6869
0.621	77.5717
0.62	77.9619
0.619	78.2268
0.618	78.8022
0.617	78.9686
0.616	78.7806
0.615	78.8877
0.614	78.5163
0.613	78.2255
0.612	78.0861
0.611	77.9961
0.61	77.8085
0.609	77.5065
0.608	77.3596
0.607	77.3332
0.606	77.2612
0.605	77.3589
0.604	77.348
0.603	77.4558
0.602	77.5345
0.601	77.3315
0.6	77.517
0.599	77.7031
0.598	77.767
0.597	78.6086
0.596	78.6352
0.595	78.6257
0.594	77.8093
0.593	78.0704
0.592	78.0896
0.591	78.7805
0.59	79.0552
0.589	78.5765
0.588	78.4272
0.587	77.6095
0.586	77.2178
0.585	77.8111
0.584	78.2451
0.583	78.6997
0.582	78.5818
0.581	77.9147
0.58	78.492
0.579	77.5884
0.578	77.4032
0.577	77.8041
0.576	78.3341
0.575	78.7567
0.574	78.8637
0.573	78.7756
0.572	77.832
0.571	78.8618
0.57	79.1405
0.569	78.7177
0.568	78.1264
0.567	78.3557
0.566	78.166
0.565	77.9208
0.564	77.7775
0.563	77.6898
0.562	77.5525
0.561	77.4394
0.56	77.4351
0.559	77.2624
0.558	78.7457
0.557	78.5441
0.556	78.3291
0.555	78.576
0.554	78.5915
0.553	78.5599
0.552	78.3732
0.551	78.419
0.55	78.4861
0.549	78.6377
0.548	77.8758
0.547	76.8382
0.546	76.9583
0.545	76.934
0.544	77.2874
0.543	77.2554
0.542	77.4303
0.541	77.1543
0.54	76.8108
0.539	77.0707
0.538	77.5195
0.537	77.7082
0.536	77.5222
0.535	77.813
0.534	78.042
0.533	78.1333
0.532	77.9759
0.531	77.9963
0.53	77.5366
0.529	77.4057
0.528	76.796
0.527	76.5653
0.526	76.621
0.525	76.4985
0.524	76.2827
0.523	76.5876
0.522	77.0686
0.521	77.1843
0.52	77.233
0.519	76.9142
0.518	76.5297
0.517	76.0323
0.516	76.1923
0.515	76.844
0.514	76.508
0.513	76.0247
0.512	75.3123
0.511	76.0518
0.51	76.1354
0.509	75.5745
0.508	75.2799
0.507	75.2812
0.506	75.4911
0.505	74.9096
0.504	74.5576
0.503	74.3341
0.502	74.1904
0.501	74.4716
0.5	74.6576
0.499	74.768
0.498	74.9503
0.497	75.2017
0.496	74.6726
0.495	74.7675
0.494	75.0206
0.493	74.7455
0.492	74.8175
0.491	74.6544
0.49	75.0665
0.489	74.7418
0.488	74.5721
0.487	74.2234
0.486	74.6622
0.485	74.5185
0.484	74.6148
0.483	74.0891
0.482	73.8225
0.481	73.6165
0.48	73.9129
0.479	74.0616
0.478	73.7445
0.477	73.7521
0.476	73.9265
0.475	73.8545
0.474	73.0442
0.473	73.025
0.472	72.917
0.471	72.8743
0.47	72.782
0.469	72.6355
0.468	72.1548
0.467	72.5668
0.466	72.3137
0.465	72.4074
0.464	72.6747
0.463	72.367
0.462	72.4713
0.461	72.3572
0.46	72.1954
0.459	72.3557
0.458	72.2299
0.457	72.4133
0.456	72.0536
0.455	71.6988
0.454	71.4839
0.453	71.6433
0.452	71.7047
0.451	71.5807
0.45	71.0974
0.449	71.1033
0.448	70.9021
0.447	70.7169
0.446	70.0596
0.445	70.5264
0.444	70.4429
0.443	70.0993
0.442	70.3686
0.441	70.3982
0.44	69.9914
0.439	69.6517
0.438	69.2593
0.437	68.951
0.436	69.0901
0.435	68.9035
0.434	68.8484
0.433	68.2333
0.432	68.3946
0.431	68.4925
0.43	68.5699
0.429	68.3933
0.428	68.0608
0.427	67.7594
0.426	67.6814
0.425	67.8322
0.424	67.723
0.423	67.4675
0.422	67.2556
0.421	67.3366
0.42	67.0331
0.419	67.0468
0.418	66.0174
0.417	65.3829
0.416	64.86
0.415	64.9345
0.414	64.1747
0.413	64.1454
0.412	64.4845
0.411	64.3008
0.41	64.1171
0.409	64.3629
0.408	64.256
0.407	64.1285
0.406	64.7648
0.405	64.1816
0.404	64.1636
0.403	64.1816
0.402	64.1946
0.401	64.2266
0.4	64.2286
