Name: Alkalic Granite
Type: Rocks
Class: Igneous
Subclass: Felsic
Particle Size: 0-75 micrometers
Sample No.: Granite.H1
Owner: JHU
Wavelength range: All
Origin: From Quincy, Norfolk, Massachusetts via Ward's Scientific (Cat. 
No. W-4)
Description: Sample from which powder was derived is a gray, medium- to 
coarse-grained rock composed of quartz, feldspar, and a mafic mineral.




Measurement: Directional (10 degree) hemispherical reflectance
First Column: X
Second Column: Y
X Units: Wavelength (micrometers)
Y Units: Reflectance (percent)
First X Value: 14.0112
Last X Value: 0.4000
Number of X Values: 2844
Additional information: granit1a.txt

14.011	1.9200
13.973	3.7050
13.936	2.4187
13.899	1.6575
13.861	2.0175
13.824	2.9025
13.788	2.7600
13.751	0.8025
13.715	1.3200
13.679	1.9688
13.643	1.5994
13.607	3.0975
13.571	3.5925
13.536	3.6450
13.500	3.0169
13.465	2.3138
13.430	2.1338
13.396	2.4300
13.361	2.3587
13.327	2.6906
13.293	2.9831
13.259	2.2312
13.225	2.3775
13.191	3.2072
13.158	1.8797
13.124	1.1343
13.091	2.0494
13.058	1.9584
13.026	1.8956
12.993	2.2350
12.960	1.9668
12.928	1.6190
12.896	1.6932
12.864	1.3650
12.832	1.6003
12.800	1.9860
12.769	1.7930
12.737	1.6205
12.706	1.3875
12.675	1.5211
12.644	2.0724
12.614	2.1281
12.583	1.9842
12.552	2.1394
12.522	2.6011
12.492	2.7347
12.462	2.6250
12.432	2.6184
12.402	2.9447
12.373	3.3975
12.343	3.6455
12.314	3.9492
12.285	4.2122
12.256	4.5581
12.227	5.1122
12.198	5.4886
12.169	5.6808
12.141	5.9194
12.113	6.3778
12.084	6.6403
12.056	6.8104
12.028	7.1194
12.000	7.4629
11.973	7.7044
11.945	7.6605
11.918	7.7140
11.890	7.9771
11.863	8.1159
11.836	7.9163
11.809	7.9566
11.782	7.9943
11.755	7.9839
11.729	8.0845
11.702	8.0571
11.676	8.0721
11.650	8.1010
11.624	8.0166
11.598	8.0702
11.572	8.0334
11.546	7.9434
11.520	7.9242
11.495	7.9247
11.469	7.9340
11.444	7.8621
11.419	7.9303
11.394	7.9237
11.369	7.8208
11.344	7.7805
11.319	7.8471
11.294	7.8452
11.270	7.7224
11.245	7.6064
11.221	7.5272
11.197	7.5366
11.173	7.4625
11.149	7.4655
11.125	7.4196
11.101	7.2815
11.077	7.1964
11.054	7.2660
11.030	7.2590
11.007	7.0498
10.983	6.9228
10.960	6.9659
10.937	6.9173
10.914	6.6893
10.891	6.6106
10.868	6.6150
10.846	6.4997
10.823	6.3586
10.800	6.2704
10.778	6.2264
10.755	6.1504
10.733	6.0509
10.711	5.8587
10.689	5.7257
10.667	5.5716
10.645	5.4621
10.623	5.3011
10.602	5.0878
10.580	4.8872
10.558	4.7517
10.537	4.6382
10.516	4.5084
10.494	4.4125
10.473	4.3882
10.452	4.2417
10.431	4.1364
10.410	4.0453
10.389	4.0099
10.368	4.0116
10.348	3.9996
10.327	3.8779
10.306	3.8414
10.286	3.9049
10.266	3.8508
10.245	3.7402
10.225	3.7135
10.205	3.6516
10.185	3.6710
10.165	3.6825
10.145	3.6972
10.125	3.7249
10.106	3.7256
10.086	3.6755
10.066	3.6488
10.047	3.6178
10.027	3.6127
10.008	3.5859
9.9887	3.6351
9.9695	3.6996
9.9504	3.6614
9.9313	3.6564
9.9123	3.6478
9.8934	3.6876
9.8746	3.6764
9.8558	3.6002
9.8371	3.4922
9.8185	3.4620
9.7999	3.5076
9.7814	3.4823
9.7630	3.4807
9.7447	3.4472
9.7264	3.4076
9.7082	3.4127
9.6900	3.4537
9.6719	3.5210
9.6539	3.5756
9.6360	3.6349
9.6181	3.5447
9.6003	3.4833
9.5825	3.4912
9.5649	3.4587
9.5472	3.4608
9.5297	3.4216
9.5122	3.4073
9.4948	3.4566
9.4774	3.4455
9.4601	3.4057
9.4429	3.4596
9.4257	3.5364
9.4086	3.6675
9.3916	3.7603
9.3746	3.9228
9.3577	4.0727
9.3408	4.1716
9.3240	4.2790
9.3073	4.3945
9.2906	4.4339
9.2740	4.4564
9.2574	4.4168
9.2409	4.3948
9.2245	4.4433
9.2081	4.4125
9.1918	4.3366
9.1755	4.3024
9.1593	4.2535
9.1431	4.1906
9.1270	4.0955
9.1110	4.0327
9.0950	4.0237
9.0791	3.9563
9.0632	3.8480
9.0474	3.8384
9.0316	3.8198
9.0159	3.7655
9.0003	3.6896
8.9847	3.6844
8.9691	3.7085
8.9536	3.7156
8.9382	3.7322
8.9228	3.7247
8.9075	3.6875
8.8922	3.6825
8.8770	3.6886
8.8618	3.7064
8.8467	3.6415
8.8316	3.6480
8.8166	3.6865
8.8016	3.5967
8.7867	3.5649
8.7718	3.6208
8.7570	3.6511
8.7422	3.6902
8.7275	3.7156
8.7129	3.7356
8.6982	3.7932
8.6837	3.7992
8.6692	3.6954
8.6547	3.5294
8.6403	3.4659
8.6259	3.4790
8.6116	3.5768
8.5973	3.7725
8.5830	3.9132
8.5688	4.0252
8.5547	4.1224
8.5406	4.1639
8.5266	4.2047
8.5126	4.2670
8.4986	4.3533
8.4847	4.3847
8.4708	4.3912
8.4570	4.3758
8.4432	4.4189
8.4295	4.4171
8.4158	4.4386
8.4022	4.4771
8.3886	4.5028
8.3750	4.5047
8.3615	4.5642
8.3481	4.5675
8.3347	4.5900
8.3213	4.6378
8.3079	4.6589
8.2946	4.6704
8.2814	4.6997
8.2682	4.7925
8.2550	4.8836
8.2419	4.9083
8.2288	4.9148
8.2158	5.0156
8.2028	5.1052
8.1898	5.1028
8.1769	5.0644
8.1640	5.0081
8.1512	4.8717
8.1384	4.7296
8.1256	4.5514
8.1129	4.2940
8.1002	4.0488
8.0876	3.8533
8.0750	3.7345
8.0624	3.6169
8.0499	3.4387
8.0374	3.2330
8.0250	3.0558
8.0126	2.9639
8.0002	2.9452
7.9879	2.7727
7.9756	2.5641
7.9634	2.4312
7.9512	2.2449
7.9390	2.0794
7.9268	2.0053
7.9147	1.9216
7.9027	1.8319
7.8906	1.7771
7.8786	1.6961
7.8667	1.6148
7.8548	1.5384
7.8429	1.4667
7.8310	1.4221
7.8192	1.3706
7.8075	1.3556
7.7957	1.3303
7.7840	1.2909
7.7723	1.3345
7.7607	1.3114
7.7491	1.2891
7.7375	1.2689
7.7260	1.2206
7.7145	1.2052
7.7031	1.2488
7.6916	1.3085
7.6802	1.2701
7.6689	1.2335
7.6575	1.2457
7.6462	1.2410
7.6350	1.2138
7.6238	1.2270
7.6126	1.2712
7.6014	1.2774
7.5903	1.3076
7.5792	1.3143
7.5681	1.3496
7.5571	1.3899
7.5461	1.3945
7.5351	1.4166
7.5242	1.4784
7.5133	1.4911
7.5024	1.4981
7.4916	1.5110
7.4807	1.5732
7.4700	1.6364
7.4592	1.6247
7.4485	1.6294
7.4378	1.7241
7.4272	1.7930
7.4165	1.7880
7.4059	1.8094
7.3954	1.8975
7.3848	1.9429
7.3743	1.9592
7.3639	2.0044
7.3534	2.0911
7.3430	2.1532
7.3326	2.2242
7.3223	2.2678
7.3119	2.3681
7.3016	2.4820
7.2914	2.5289
7.2811	2.5894
7.2709	2.6977
7.2607	2.8153
7.2506	2.9330
7.2404	3.0202
7.2303	3.1329
7.2203	3.2343
7.2102	3.3094
7.2002	3.3569
7.1902	3.4582
7.1803	3.5758
7.1703	3.6745
7.1604	3.7969
7.1506	3.9300
7.1407	4.0748
7.1309	4.2174
7.1211	4.3223
7.1113	4.4405
7.1016	4.5286
7.0919	4.6242
7.0822	4.7442
7.0725	4.8190
7.0629	4.8553
7.0533	4.9574
7.0437	5.0564
7.0341	5.0939
7.0246	5.1839
7.0151	5.3034
7.0056	5.3620
6.9962	5.4234
6.9867	5.4928
6.9773	5.5870
6.9679	5.6566
6.9586	5.7220
6.9493	5.7787
6.9400	5.8615
6.9307	6.0225
6.9214	6.1031
6.9122	6.1190
6.9030	6.2020
6.8938	6.2972
6.8847	6.3220
6.8755	6.3623
6.8664	6.4223
6.8573	6.4335
6.8483	6.4280
6.8393	6.4746
6.8302	6.5029
6.8213	6.4786
6.8123	6.5095
6.8034	6.5512
6.7944	6.5023
6.7855	6.4319
6.7767	6.4153
6.7678	6.4411
6.7590	6.4500
6.7502	6.4298
6.7414	6.4842
6.7327	6.5535
6.7239	6.5625
6.7152	6.5740
6.7065	6.6522
6.6979	6.7617
6.6892	6.8602
6.6806	6.9274
6.6720	7.0270
6.6634	7.1540
6.6549	7.2846
6.6464	7.3800
6.6378	7.3767
6.6294	7.4081
6.6209	7.4100
6.6124	7.4109
6.6040	7.4623
6.5956	7.5239
6.5872	7.5337
6.5789	7.5488
6.5705	7.5839
6.5622	7.5473
6.5539	7.5921
6.5456	7.6933
6.5374	7.7916
6.5292	7.9516
6.5209	8.1665
6.5128	8.4231
6.5046	8.6437
6.4964	8.8816
6.4883	9.0949
6.4802	9.2569
6.4721	9.4476
6.4640	9.6571
6.4560	9.7680
6.4480	9.8002
6.4399	9.8662
6.4320	9.9517
6.4240	9.9618
6.4160	9.9586
6.4081	9.9377
6.4002	9.8512
6.3923	9.7810
6.3844	9.6862
6.3766	9.5376
6.3687	9.3925
6.3609	9.2522
6.3531	9.1045
6.3454	8.9771
6.3376	8.7998
6.3299	8.6986
6.3221	8.5420
6.3144	8.3465
6.3068	8.1530
6.2991	7.9818
6.2914	7.9117
6.2838	7.8379
6.2762	7.6748
6.2686	7.5056
6.2611	7.3411
6.2535	7.2522
6.2460	7.1751
6.2385	7.0587
6.2310	6.9211
6.2235	6.9023
6.2160	6.9140
6.2086	6.8311
6.2011	6.8025
6.1937	6.8594
6.1863	7.0101
6.1790	7.1948
6.1716	7.3612
6.1643	7.5335
6.1570	7.7449
6.1496	7.9940
6.1424	8.2319
6.1351	8.4374
6.1278	8.6976
6.1206	8.9484
6.1134	9.1260
6.1062	9.3187
6.0990	9.4980
6.0918	9.6384
6.0847	9.7774
6.0776	9.9328
6.0704	10.014
6.0633	10.094
6.0563	10.158
6.0492	10.254
6.0421	10.351
6.0351	10.387
6.0281	10.427
6.0211	10.507
6.0141	10.531
6.0071	10.476
6.0002	10.490
5.9932	10.500
5.9863	10.412
5.9794	10.283
5.9725	10.193
5.9657	10.144
5.9588	10.051
5.9520	9.9616
5.9451	9.8873
5.9383	9.8179
5.9315	9.8095
5.9247	9.8770
5.9180	9.9576
5.9112	10.050
5.9045	10.219
5.8978	10.398
5.8911	10.589
5.8844	10.738
5.8777	10.895
5.8711	11.060
5.8644	11.207
5.8578	11.356
5.8512	11.500
5.8446	11.619
5.8380	11.716
5.8314	11.809
5.8249	11.870
5.8184	11.910
5.8118	11.915
5.8053	11.942
5.7988	11.968
5.7923	12.005
5.7859	12.019
5.7794	12.020
5.7730	12.023
5.7666	12.007
5.7602	12.032
5.7538	12.052
5.7474	12.075
5.7410	12.110
5.7347	12.087
5.7283	12.095
5.7220	12.098
5.7157	12.097
5.7094	12.101
5.7031	12.062
5.6969	12.020
5.6906	11.938
5.6844	11.833
5.6782	11.705
5.6719	11.596
5.6657	11.445
5.6596	11.234
5.6534	11.034
5.6472	10.892
5.6411	10.795
5.6349	10.668
5.6288	10.582
5.6227	10.551
5.6166	10.500
5.6106	10.513
5.6045	10.561
5.5984	10.561
5.5924	10.556
5.5864	10.568
5.5804	10.579
5.5744	10.607
5.5684	10.675
5.5624	10.761
5.5564	10.859
5.5505	10.996
5.5445	11.171
5.5386	11.449
5.5327	11.753
5.5268	12.051
5.5209	12.440
5.5151	12.811
5.5092	13.111
5.5033	13.425
5.4975	13.717
5.4917	13.950
5.4859	14.195
5.4801	14.412
5.4743	14.598
5.4685	14.727
5.4628	14.818
5.4570	14.900
5.4513	14.995
5.4455	15.027
5.4398	14.989
5.4341	14.969
5.4284	14.929
5.4228	14.810
5.4171	14.613
5.4114	14.407
5.4058	14.164
5.4002	13.834
5.3945	13.493
5.3889	13.164
5.3833	12.814
5.3778	12.513
5.3722	12.262
5.3666	12.059
5.3611	11.920
5.3555	11.824
5.3500	11.818
5.3445	11.843
5.3390	11.905
5.3335	11.993
5.3280	12.068
5.3225	12.186
5.3171	12.275
5.3116	12.364
5.3062	12.488
5.3008	12.603
5.2954	12.717
5.2900	12.863
5.2846	13.057
5.2792	13.278
5.2738	13.582
5.2684	13.845
5.2631	14.092
5.2578	14.409
5.2524	14.733
5.2471	15.031
5.2418	15.407
5.2365	15.816
5.2312	16.218
5.2260	16.638
5.2207	17.037
5.2154	17.381
5.2102	17.741
5.2050	18.059
5.1998	18.316
5.1945	18.510
5.1893	18.652
5.1842	18.789
5.1790	18.899
5.1738	19.020
5.1686	19.125
5.1635	19.206
5.1584	19.295
5.1532	19.417
5.1481	19.491
5.1430	19.580
5.1379	19.638
5.1328	19.719
5.1277	19.875
5.1227	20.001
5.1176	20.119
5.1126	20.254
5.1075	20.416
5.1025	20.561
5.0975	20.617
5.0925	20.603
5.0875	20.564
5.0825	20.508
5.0775	20.442
5.0726	20.408
5.0676	20.405
5.0627	20.338
5.0577	20.294
5.0528	20.285
5.0479	20.320
5.0430	20.349
5.0380	20.389
5.0332	20.432
5.0283	20.429
5.0234	20.466
5.0185	20.542
5.0137	20.583
5.0088	20.607
5.0040	20.676
4.9992	20.841
4.9944	21.060
4.9896	21.261
4.9848	21.542
4.9800	21.908
4.9752	22.333
4.9704	22.821
4.9657	23.335
4.9609	23.825
4.9562	24.225
4.9514	24.520
4.9467	24.750
4.9420	24.925
4.9373	25.069
4.9326	25.186
4.9279	25.301
4.9232	25.505
4.9186	25.745
4.9139	26.083
4.9092	26.532
4.9046	27.069
4.9000	27.643
4.8953	28.251
4.8907	28.900
4.8861	29.476
4.8815	29.968
4.8769	30.412
4.8723	30.850
4.8678	31.221
4.8632	31.495
4.8586	31.747
4.8541	32.044
4.8495	32.333
4.8450	32.499
4.8405	32.633
4.8360	32.951
4.8315	33.052
4.8270	33.037
4.8225	33.074
4.8180	33.071
4.8135	33.056
4.8090	32.983
4.8046	32.921
4.8001	32.912
4.7957	32.878
4.7913	32.780
4.7868	32.720
4.7824	32.717
4.7780	32.726
4.7736	32.819
4.7692	32.977
4.7648	33.144
4.7605	33.270
4.7561	33.457
4.7517	33.670
4.7474	33.911
4.7431	34.068
4.7387	34.155
4.7344	34.261
4.7301	34.387
4.7258	34.434
4.7215	34.431
4.7172	34.445
4.7129	34.389
4.7086	34.386
4.7043	34.411
4.7000	34.371
4.6958	34.321
4.6915	34.270
4.6873	34.278
4.6831	34.287
4.6788	34.301
4.6746	34.378
4.6704	34.518
4.6662	34.675
4.6620	34.835
4.6578	35.014
4.6536	35.192
4.6495	35.276
4.6453	35.478
4.6411	35.734
4.6370	35.966
4.6328	36.188
4.6287	36.422
4.6246	36.677
4.6205	36.876
4.6163	37.092
4.6122	37.250
4.6081	37.402
4.6040	37.547
4.6000	37.644
4.5959	37.741
4.5918	37.956
4.5877	38.139
4.5837	38.294
4.5796	38.421
4.5756	38.531
4.5716	38.649
4.5675	38.789
4.5635	38.973
4.5595	39.118
4.5555	39.234
4.5515	39.365
4.5475	39.503
4.5435	39.597
4.5395	39.629
4.5356	39.670
4.5316	39.761
4.5276	39.845
4.5237	39.833
4.5197	39.845
4.5158	39.823
4.5119	39.764
4.5080	39.726
4.5040	39.720
4.5001	39.710
4.4962	39.725
4.4923	39.728
4.4884	39.729
4.4846	39.741
4.4807	39.828
4.4768	39.952
4.4730	39.995
4.4691	40.030
4.4652	40.148
4.4614	40.343
4.4576	40.519
4.4537	40.664
4.4499	40.801
4.4461	41.020
4.4423	41.196
4.4385	41.283
4.4347	41.368
4.4309	41.530
4.4271	41.653
4.4233	41.765
4.4196	41.934
4.4158	42.054
4.4120	42.206
4.4083	42.384
4.4045	42.476
4.4008	42.579
4.3971	42.745
4.3934	42.923
4.3896	43.114
4.3859	43.294
4.3822	43.489
4.3785	43.688
4.3748	43.843
4.3711	44.005
4.3674	44.219
4.3638	44.400
4.3601	44.532
4.3564	44.633
4.3528	44.724
4.3491	44.846
4.3455	45.005
4.3418	45.101
4.3382	45.206
4.3346	45.359
4.3310	45.412
4.3273	45.487
4.3237	45.549
4.3201	45.595
4.3165	45.687
4.3129	45.763
4.3094	45.846
4.3058	45.888
4.3022	45.930
4.2986	45.970
4.2951	46.001
4.2915	46.023
4.2880	46.088
4.2844	46.218
4.2809	46.296
4.2774	46.302
4.2738	46.348
4.2703	46.389
4.2668	46.478
4.2633	46.615
4.2598	46.755
4.2563	46.891
4.2528	46.992
4.2493	46.989
4.2458	46.945
4.2424	46.941
4.2389	46.931
4.2354	46.953
4.2320	47.040
4.2285	47.127
4.2251	47.195
4.2216	47.278
4.2182	47.337
4.2148	47.469
4.2113	47.556
4.2079	47.579
4.2045	47.622
4.2011	47.670
4.1977	47.737
4.1943	47.793
4.1909	47.809
4.1875	47.827
4.1841	47.835
4.1808	47.924
4.1774	48.004
4.1740	48.090
4.1707	48.172
4.1673	48.146
4.1640	48.165
4.1606	48.219
4.1573	48.285
4.1540	48.334
4.1506	48.386
4.1473	48.428
4.1440	48.410
4.1407	48.467
4.1374	48.529
4.1341	48.583
4.1308	48.593
4.1275	48.587
4.1242	48.643
4.1209	48.738
4.1177	48.799
4.1144	48.818
4.1111	48.817
4.1079	48.888
4.1046	48.961
4.1014	48.938
4.0981	48.912
4.0949	48.972
4.0917	49.049
4.0884	49.068
4.0852	49.073
4.0820	49.178
4.0788	49.226
4.0756	49.208
4.0724	49.257
4.0692	49.253
4.0660	49.261
4.0628	49.297
4.0596	49.300
4.0565	49.291
4.0533	49.306
4.0501	49.257
4.0470	49.246
4.0438	49.248
4.0406	49.234
4.0375	49.260
4.0344	49.270
4.0312	49.275
4.0281	49.282
4.0250	49.260
4.0218	49.289
4.0187	49.336
4.0156	49.354
4.0125	49.357
4.0094	49.324
4.0063	49.303
4.0032	49.265
4.0001	49.320
3.9970	49.368
3.9940	49.377
3.9909	49.403
3.9878	49.406
3.9847	49.393
3.9817	49.406
3.9786	49.403
3.9756	49.450
3.9725	49.536
3.9695	49.581
3.9665	49.582
3.9634	49.634
3.9604	49.650
3.9574	49.629
3.9544	49.615
3.9513	49.678
3.9483	49.753
3.9453	49.723
3.9423	49.702
3.9393	49.730
3.9363	49.780
3.9333	49.861
3.9304	49.829
3.9274	49.836
3.9244	49.872
3.9214	49.892
3.9185	49.857
3.9155	49.871
3.9126	49.861
3.9096	49.838
3.9067	49.885
3.9037	49.935
3.9008	49.964
3.8979	49.947
3.8949	49.927
3.8920	49.916
3.8891	49.836
3.8862	49.843
3.8833	49.879
3.8804	49.858
3.8775	49.860
3.8746	49.872
3.8717	49.852
3.8688	49.818
3.8659	49.830
3.8630	49.861
3.8601	49.861
3.8573	49.860
3.8544	49.862
3.8515	49.887
3.8487	49.907
3.8458	49.922
3.8430	49.918
3.8401	49.888
3.8373	49.906
3.8344	49.964
3.8316	49.916
3.8288	49.906
3.8259	49.942
3.8231	49.936
3.8203	49.969
3.8175	50.035
3.8147	50.048
3.8119	50.020
3.8091	50.002
3.8063	50.005
3.8035	49.997
3.8007	50.008
3.7979	50.074
3.7951	50.054
3.7924	50.030
3.7896	49.996
3.7868	49.983
3.7841	49.980
3.7813	49.973
3.7785	49.979
3.7758	49.991
3.7730	49.955
3.7703	49.919
3.7676	49.911
3.7648	49.921
3.7621	49.940
3.7594	49.962
3.7566	49.947
3.7539	49.899
3.7512	49.849
3.7485	49.889
3.7458	49.878
3.7431	49.853
3.7404	49.892
3.7377	49.875
3.7350	49.875
3.7323	49.856
3.7296	49.823
3.7269	49.800
3.7242	49.819
3.7216	49.828
3.7189	49.831
3.7162	49.835
3.7136	49.811
3.7109	49.819
3.7083	49.844
3.7056	49.820
3.7030	49.854
3.7003	49.881
3.6977	49.889
3.6950	49.887
3.6924	49.848
3.6898	49.859
3.6872	49.860
3.6845	49.842
3.6819	49.870
3.6793	49.857
3.6767	49.836
3.6741	49.833
3.6715	49.799
3.6689	49.830
3.6663	49.850
3.6637	49.844
3.6611	49.850
3.6585	49.845
3.6560	49.807
3.6534	49.801
3.6508	49.822
3.6482	49.780
3.6457	49.756
3.6431	49.739
3.6406	49.748
3.6380	49.750
3.6355	49.728
3.6329	49.645
3.6304	49.625
3.6278	49.653
3.6253	49.633
3.6227	49.604
3.6202	49.625
3.6177	49.575
3.6152	49.533
3.6127	49.514
3.6101	49.509
3.6076	49.485
3.6051	49.437
3.6026	49.458
3.6001	49.499
3.5976	49.460
3.5951	49.397
3.5926	49.374
3.5901	49.326
3.5876	49.308
3.5852	49.351
3.5827	49.342
3.5802	49.267
3.5777	49.195
3.5753	49.176
3.5728	49.203
3.5704	49.206
3.5679	49.159
3.5654	49.122
3.5630	49.116
3.5605	49.063
3.5581	49.037
3.5557	49.046
3.5532	49.022
3.5508	49.002
3.5484	48.968
3.5459	48.954
3.5435	48.913
3.5411	48.861
3.5387	48.827
3.5363	48.786
3.5338	48.768
3.5314	48.698
3.5290	48.626
3.5266	48.598
3.5242	48.504
3.5218	48.449
3.5195	48.442
3.5171	48.416
3.5147	48.384
3.5123	48.285
3.5099	48.159
3.5075	48.088
3.5052	48.020
3.5028	48.002
3.5004	47.941
3.4981	47.887
3.4957	47.923
3.4934	47.928
3.4910	47.867
3.4887	47.838
3.4863	47.852
3.4840	47.871
3.4816	47.851
3.4793	47.783
3.4770	47.757
3.4746	47.734
3.4723	47.666
3.4700	47.693
3.4677	47.720
3.4653	47.592
3.4630	47.520
3.4607	47.525
3.4584	47.492
3.4561	47.433
3.4538	47.361
3.4515	47.328
3.4492	47.271
3.4469	47.231
3.4446	47.172
3.4423	47.122
3.4400	47.111
3.4378	47.016
3.4355	46.861
3.4332	46.790
3.4309	46.792
3.4287	46.665
3.4264	46.527
3.4241	46.455
3.4219	46.367
3.4196	46.302
3.4174	46.179
3.4151	46.089
3.4129	46.071
3.4106	46.002
3.4084	45.978
3.4061	45.963
3.4039	45.930
3.4017	45.946
3.3994	45.905
3.3972	45.851
3.3950	45.836
3.3928	45.824
3.3906	45.806
3.3883	45.747
3.3861	45.666
3.3839	45.698
3.3817	45.669
3.3795	45.518
3.3773	45.488
3.3751	45.506
3.3729	45.465
3.3707	45.381
3.3685	45.350
3.3663	45.367
3.3641	45.342
3.3620	45.288
3.3598	45.275
3.3576	45.219
3.3554	45.172
3.3533	45.099
3.3511	45.032
3.3489	45.005
3.3468	45.014
3.3446	44.977
3.3425	44.882
3.3403	44.819
3.3382	44.713
3.3360	44.619
3.3339	44.634
3.3317	44.648
3.3296	44.533
3.3274	44.397
3.3253	44.310
3.3232	44.237
3.3210	44.188
3.3189	44.058
3.3168	44.001
3.3147	43.954
3.3126	43.842
3.3104	43.855
3.3083	43.799
3.3062	43.670
3.3041	43.601
3.3020	43.599
3.2999	43.476
3.2978	43.327
3.2957	43.240
3.2936	43.197
3.2915	43.155
3.2894	43.077
3.2874	42.974
3.2853	42.875
3.2832	42.756
3.2811	42.693
3.2790	42.658
3.2770	42.572
3.2749	42.424
3.2728	42.299
3.2708	42.260
3.2687	42.180
3.2666	42.054
3.2646	41.984
3.2625	41.911
3.2605	41.812
3.2584	41.687
3.2564	41.589
3.2543	41.532
3.2523	41.432
3.2503	41.331
3.2482	41.183
3.2462	41.080
3.2442	41.019
3.2421	40.928
3.2401	40.765
3.2381	40.673
3.2361	40.575
3.2340	40.455
3.2320	40.383
3.2300	40.294
3.2280	40.132
3.2260	39.925
3.2240	39.787
3.2220	39.746
3.2200	39.629
3.2180	39.496
3.2160	39.403
3.2140	39.235
3.2120	39.121
3.2100	39.032
3.2080	38.910
3.2060	38.756
3.2040	38.660
3.2021	38.594
3.2001	38.480
3.1981	38.375
3.1961	38.300
3.1942	38.126
3.1922	37.971
3.1902	37.860
3.1883	37.758
3.1863	37.708
3.1844	37.631
3.1824	37.440
3.1805	37.252
3.1785	37.178
3.1766	37.134
3.1746	36.989
3.1727	36.839
3.1707	36.736
3.1688	36.620
3.1669	36.518
3.1649	36.361
3.1630	36.209
3.1611	36.178
3.1591	36.130
3.1572	36.053
3.1553	35.878
3.1534	35.702
3.1515	35.643
3.1495	35.536
3.1476	35.361
3.1457	35.216
3.1438	35.109
3.1419	35.062
3.1400	34.957
3.1381	34.827
3.1362	34.749
3.1343	34.674
3.1324	34.527
3.1305	34.436
3.1286	34.352
3.1268	34.226
3.1249	34.146
3.1230	34.099
3.1211	34.003
3.1192	33.848
3.1174	33.717
3.1155	33.636
3.1136	33.502
3.1117	33.464
3.1099	33.399
3.1080	33.292
3.1061	33.189
3.1043	33.100
3.1024	33.011
3.1006	32.931
3.0987	32.812
3.0969	32.743
3.0950	32.737
3.0932	32.659
3.0913	32.493
3.0895	32.360
3.0876	32.343
3.0858	32.334
3.0840	32.276
3.0821	32.235
3.0803	32.192
3.0785	32.188
3.0766	32.114
3.0748	32.003
3.0730	31.942
3.0712	31.872
3.0694	31.852
3.0675	31.820
3.0657	31.714
3.0639	31.715
3.0621	31.717
3.0603	31.614
3.0585	31.606
3.0567	31.567
3.0549	31.431
3.0531	31.439
3.0513	31.463
3.0495	31.459
3.0477	31.406
3.0459	31.305
3.0441	31.220
3.0423	31.224
3.0406	31.153
3.0388	31.067
3.0370	30.966
3.0352	31.018
3.0334	31.077
3.0317	31.067
3.0299	30.964
3.0281	30.938
3.0264	30.815
3.0246	30.701
3.0228	30.675
3.0211	30.649
3.0193	30.553
3.0176	30.510
3.0158	30.547
3.0140	30.524
3.0123	30.494
3.0105	30.406
3.0088	30.308
3.0070	30.247
3.0053	30.136
3.0036	30.162
3.0018	30.130
3.0001	30.081
2.9984	30.103
2.9966	30.005
2.9949	29.947
2.9932	29.999
2.9914	29.962
2.9897	29.811
2.9880	29.660
2.9863	29.633
2.9845	29.625
2.9828	29.601
2.9811	29.663
2.9794	29.589
2.9777	29.405
2.9760	29.403
2.9743	29.377
2.9726	29.248
2.9709	29.200
2.9692	29.200
2.9675	29.198
2.9658	29.144
2.9641	29.059
2.9624	29.039
2.9607	28.969
2.9590	28.895
2.9573	28.825
2.9556	28.937
2.9539	29.018
2.9523	29.007
2.9506	28.913
2.9489	28.849
2.9472	28.865
2.9455	28.801
2.9439	28.755
2.9422	28.787
2.9405	28.862
2.9389	28.781
2.9372	28.741
2.9355	28.815
2.9339	28.793
2.9322	28.760
2.9306	28.763
2.9289	28.796
2.9272	28.840
2.9256	28.868
2.9239	28.816
2.9223	28.779
2.9207	28.813
2.9190	28.882
2.9174	28.828
2.9157	28.834
2.9141	28.926
2.9124	28.998
2.9108	29.007
2.9092	29.022
2.9075	29.083
2.9059	29.123
2.9043	29.149
2.9027	29.202
2.9010	29.157
2.8994	29.179
2.8978	29.321
2.8962	29.402
2.8946	29.375
2.8929	29.452
2.8913	29.503
2.8897	29.503
2.8881	29.559
2.8865	29.546
2.8849	29.639
2.8833	29.706
2.8817	29.704
2.8801	29.756
2.8785	29.870
2.8769	29.931
2.8753	30.043
2.8737	30.083
2.8721	30.088
2.8705	30.222
2.8689	30.221
2.8673	30.231
2.8658	30.352
2.8642	30.463
2.8626	30.466
2.8610	30.489
2.8594	30.653
2.8579	30.781
2.8563	30.936
2.8547	31.046
2.8531	31.005
2.8516	31.032
2.8500	31.094
2.8484	31.198
2.8469	31.281
2.8453	31.303
2.8437	31.414
2.8422	31.549
2.8406	31.628
2.8391	31.743
2.8375	31.862
2.8360	31.941
2.8344	31.961
2.8329	32.106
2.8313	32.195
2.8298	32.102
2.8282	32.086
2.8267	32.312
2.8252	32.394
2.8236	32.479
2.8221	32.619
2.8205	32.613
2.8190	32.701
2.8175	32.875
2.8159	32.902
2.8144	32.963
2.8129	33.092
2.8114	33.133
2.8098	33.250
2.8083	33.370
2.8068	33.448
2.8053	33.540
2.8038	33.637
2.8022	33.737
2.8007	33.855
2.7992	33.922
2.7977	34.037
2.7962	34.151
2.7947	34.263
2.7932	34.394
2.7917	34.482
2.7902	34.596
2.7887	34.628
2.7872	34.709
2.7857	34.837
2.7842	35.002
2.7827	35.096
2.7812	35.205
2.7797	35.317
2.7782	35.412
2.7767	35.409
2.7752	35.432
2.7738	35.459
2.7723	35.346
2.7708	35.104
2.7693	34.913
2.7678	34.592
2.7664	33.897
2.7649	32.650
2.7634	31.300
2.7619	31.049
2.7605	32.031
2.7590	33.450
2.7575	35.044
2.7561	36.385
2.7546	37.336
2.7531	37.950
2.7517	38.162
2.7502	38.286
2.7488	38.606
2.7473	38.952
2.7458	39.231
2.7444	39.443
2.7429	39.707
2.7415	39.889
2.7400	40.250
2.7386	40.872
2.7371	41.316
2.7357	41.743
2.7343	42.383
2.7328	43.028
2.7314	43.655
2.7299	44.143
2.7285	44.509
2.7271	44.822
2.7256	45.148
2.7242	45.426
2.7228	45.664
2.7213	46.009
2.7199	46.376
2.7185	46.742
2.7171	47.209
2.7156	47.658
2.7142	47.984
2.7128	48.297
2.7114	48.683
2.7100	48.952
2.7085	49.235
2.7071	49.500
2.7057	49.706
2.7043	49.984
2.7029	50.237
2.7015	50.496
2.7001	50.723
2.6987	50.947
2.6973	51.100
2.6959	51.195
2.6945	51.249
2.6931	51.366
2.6917	51.500
2.6903	51.602
2.6889	51.695
2.6875	51.698
2.6861	51.747
2.6847	51.756
2.6833	51.757
2.6819	51.825
2.6805	52.003
2.6791	52.083
2.6778	52.067
2.6764	52.047
2.6750	52.146
2.6736	52.178
2.6722	52.251
2.6709	52.312
2.6695	52.504
2.6681	52.915
2.6667	53.157
2.6654	53.242
2.6640	53.425
2.6626	53.545
2.6613	53.533
2.6599	53.540
2.6585	53.648
2.6572	53.743
2.6558	53.765
2.6545	53.740
2.6531	53.723
2.6517	53.772
2.6504	53.898
2.6490	53.960
2.6477	53.910
2.6463	53.912
2.6450	54.013
2.6436	54.002
2.6423	53.942
2.6409	53.925
2.6396	53.932
2.6382	54.055
2.6369	54.094
2.6356	54.011
2.6342	54.060
2.6329	54.034
2.6315	54.037
2.6302	54.017
2.6289	54.052
2.6275	54.045
2.6262	54.129
2.6249	54.222
2.6236	54.191
2.6222	54.072
2.6209	54.014
2.6196	54.059
2.6183	54.133
2.6169	54.210
2.6156	54.164
2.6143	54.100
2.6130	54.132
2.6117	54.162
2.6103	54.186
2.6090	54.098
2.6077	54.111
2.6064	54.235
2.6051	54.302
2.6038	54.277
2.6025	54.309
2.6012	54.346
2.5999	54.276
2.5986	54.306
2.5973	54.285
2.5960	54.189
2.5947	54.169
2.5934	54.231
2.5921	54.272
2.5908	54.309
2.5895	54.353
2.5882	54.287
2.5869	54.249
2.5856	54.242
2.5843	54.223
2.5830	54.298
2.5817	54.319
2.5805	54.272
2.5792	54.232
2.5779	54.190
2.5766	54.143
2.5753	54.133
2.5741	54.218
2.5728	54.321
2.5715	54.313
2.5702	54.308
2.5690	54.316
2.5677	54.342
2.5664	54.410
2.5651	54.276
2.5639	54.287
2.5626	54.312
2.5613	54.167
2.5601	54.255
2.5588	54.340
2.5575	54.282
2.5563	54.230
2.5550	54.330
2.5538	54.388
2.5525	54.321
2.5513	54.298
2.5500	54.329
2.5487	54.215
2.5475	54.169
2.5462	54.298
2.5450	54.277
2.5437	54.287
2.5425	54.335
2.5413	54.328
2.5400	54.362
2.5388	54.364
2.5375	54.402
2.5363	54.471
2.5350	54.342
2.5338	54.250
2.5326	54.197
2.5313	54.236
2.5301	54.289
2.5289	54.288
2.5276	54.257
2.5264	54.289
2.5252	54.253
2.5239	54.224
2.5227	54.292
2.5215	54.321
2.5202	54.286
2.5190	54.253
2.5178	54.221
2.5166	54.199
2.5154	54.315
2.5141	54.396
2.5129	54.304
2.5117	54.325
2.5105	54.469
2.5093	54.505
2.5081	54.415
2.5068	54.368
2.5056	54.448
2.5044	54.377
2.5032	54.308
2.5020	54.381
2.5008	54.300
2.4996	54.339
2.4984	54.418
2.4972	54.427
2.4960	54.377
2.4948	54.304
2.4936	54.407
2.4924	54.422
2.4912	54.302
2.4900	54.400
2.4888	54.570
2.4876	54.564
2.4864	54.465
2.4852	54.456
2.4840	54.401
2.4828	54.427
2.4816	54.483
2.4805	54.512
2.4793	54.447
2.4781	54.576
2.4769	54.532
2.4757	54.424
2.4745	54.428
2.4734	54.595
2.4722	54.672
2.4710	54.600
2.4698	54.469
2.4686	54.385
2.4675	54.437
2.4663	54.574
2.4651	54.487
2.4640	54.420
2.4628	54.484
2.4616	54.625
2.4604	54.636
2.4593	54.573
2.4581	54.580
2.4569	54.652
2.4558	54.698
2.4546	54.612
2.4535	54.587
2.4523	54.589
2.4511	54.493
2.4500	54.581
2.4488	54.608
2.4477	54.617
2.4465	54.646
2.4454	54.626
2.4442	54.516
2.4431	54.465
2.4419	54.471
2.4408	54.530
2.4396	54.529
2.4385	54.544
2.4373	54.551
2.4362	54.479
2.4350	54.510
2.4339	54.692
2.4327	54.730
2.4316	54.527
2.4305	54.422
2.4293	54.422
2.4282	54.471
2.4270	54.479
2.4259	54.413
2.4248	54.401
2.4236	54.353
2.4225	54.362
2.4214	54.421
2.4202	54.589
2.4191	54.574
2.4180	54.412
2.4169	54.441
2.4157	54.562
2.4146	54.463
2.4135	54.351
2.4124	54.387
2.4112	54.505
2.4101	54.533
2.4090	54.473
2.4079	54.426
2.4068	54.557
2.4056	54.662
2.4045	54.625
2.4034	54.570
2.4023	54.613
2.4012	54.570
2.4001	54.532
2.3990	54.611
2.3979	54.720
2.3967	54.677
2.3956	54.692
2.3945	54.609
2.3934	54.445
2.3923	54.540
2.3912	54.651
2.3901	54.734
2.3890	54.754
2.3879	54.644
2.3868	54.673
2.3857	54.728
2.3846	54.702
2.3835	54.694
2.3824	54.637
2.3813	54.602
2.3802	54.742
2.3791	54.839
2.3781	54.760
2.3770	54.584
2.3759	54.681
2.3748	54.726
2.3737	54.548
2.3726	54.467
2.3715	54.712
2.3704	54.870
2.3694	54.760
2.3683	54.647
2.3672	54.617
2.3661	54.595
2.3650	54.688
2.3640	54.638
2.3629	54.638
2.3618	54.623
2.3607	54.604
2.3597	54.570
2.3586	54.542
2.3575	54.636
2.3564	54.688
2.3554	54.604
2.3543	54.377
2.3532	54.309
2.3522	54.508
2.3511	54.508
2.3500	54.372
2.3490	54.150
2.3479	54.105
2.3468	54.087
2.3458	54.217
2.3447	54.234
2.3436	54.086
2.3426	54.056
2.3415	54.085
2.3405	54.079
2.3394	54.158
2.3384	54.296
2.3373	54.287
2.3363	54.148
2.3352	54.278
2.3342	54.343
2.3331	54.385
2.3321	54.299
2.3310	54.272
2.3300	54.306
2.3289	54.225
2.3279	54.188
2.3268	54.306
2.3258	54.276
2.3247	54.285
2.3237	54.340
2.3226	54.359
2.3216	54.375
2.3206	54.422
2.3195	54.500
2.3185	54.510
2.3175	54.612
2.3164	54.604
2.3154	54.560
2.3144	54.587
2.3133	54.679
2.3123	54.633
2.3113	54.547
2.3102	54.595
2.3092	54.601
2.3082	54.620
2.3071	54.645
2.3061	54.675
2.3051	54.718
2.3041	54.724
2.3030	54.627
2.3020	54.607
2.3010	54.653
2.3000	54.711
2.2990	54.607
2.2979	54.605
2.2969	54.590
2.2959	54.565
2.2949	54.739
2.2939	54.695
2.2929	54.602
2.2918	54.701
2.2908	54.662
2.2898	54.606
2.2888	54.617
2.2878	54.652
2.2868	54.652
2.2858	54.637
2.2848	54.706
2.2838	54.645
2.2828	54.631
2.2818	54.621
2.2808	54.641
2.2798	54.640
2.2787	54.492
2.2777	54.589
2.2767	54.670
2.2757	54.620
2.2747	54.710
2.2738	54.819
2.2728	54.746
2.2718	54.731
2.2708	54.740
2.2698	54.756
2.2688	54.668
2.2678	54.620
2.2668	54.678
2.2658	54.674
2.2648	54.575
2.2638	54.549
2.2628	54.476
2.2618	54.509
2.2609	54.672
2.2599	54.719
2.2589	54.675
2.2579	54.533
2.2569	54.551
2.2559	54.655
2.2550	54.646
2.2540	54.765
2.2530	54.715
2.2520	54.592
2.2510	54.601
2.2501	54.701
2.2491	54.710
2.2481	54.652
2.2471	54.738
2.2462	54.675
2.2452	54.600
2.2442	54.506
2.2433	54.471
2.2423	54.507
2.2413	54.555
2.2403	54.551
2.2394	54.542
2.2384	54.585
2.2374	54.660
2.2365	54.770
2.2355	54.634
2.2345	54.502
2.2336	54.614
2.2326	54.617
2.2317	54.620
2.2307	54.686
2.2297	54.567
2.2288	54.583
2.2278	54.583
2.2269	54.567
2.2259	54.654
2.2250	54.542
2.2240	54.358
2.2231	54.415
2.2221	54.554
2.2211	54.535
2.2202	54.446
2.2192	54.582
2.2183	54.675
2.2173	54.604
2.2164	54.597
2.2155	54.659
2.2145	54.647
2.2136	54.569
2.2126	54.620
2.2117	54.607
2.2107	54.547
2.2098	54.516
2.2088	54.662
2.2079	54.654
2.2070	54.467
2.2060	54.552
2.2051	54.589
2.2041	54.488
2.2032	54.491
2.2023	54.572
2.2013	54.566
2.2004	54.513
2.1995	54.497
2.1985	54.580
2.1976	54.784
2.1967	54.735
2.1957	54.608
2.1948	54.570
2.1939	54.590
2.1930	54.538
2.1920	54.485
2.1911	54.445
2.1902	54.455
2.1893	54.613
2.1883	54.729
2.1874	54.646
2.1865	54.651
2.1856	54.552
2.1846	54.419
2.1837	54.544
2.1828	54.576
2.1819	54.529
2.1810	54.522
2.1800	54.609
2.1791	54.642
2.1782	54.594
2.1773	54.597
2.1764	54.664
2.1755	54.610
2.1746	54.635
2.1736	54.652
2.1727	54.716
2.1718	54.735
2.1709	54.774
2.1700	54.851
2.1691	54.791
2.1682	54.730
2.1673	54.783
2.1664	54.778
2.1655	54.709
2.1646	54.586
2.1637	54.434
2.1628	54.483
2.1619	54.387
2.1610	54.414
2.1601	54.470
2.1592	54.699
2.1583	54.751
2.1574	54.671
2.1565	54.604
2.1556	54.698
2.1547	54.763
2.1538	54.645
2.1529	54.590
2.1520	54.559
2.1511	54.509
2.1502	54.538
2.1493	54.654
2.1484	54.548
2.1475	54.455
2.1466	54.540
2.1458	54.673
2.1449	54.527
2.1440	54.513
2.1431	54.639
2.1422	54.586
2.1413	54.573
2.1404	54.680
2.1396	54.664
2.1387	54.634
2.1378	54.504
2.1369	54.377
2.1360	54.416
2.1352	54.557
2.1343	54.625
2.1334	54.600
2.1325	54.604
2.1316	54.547
2.1308	54.553
2.1299	54.490
2.1290	54.473
2.1281	54.487
2.1273	54.433
2.1264	54.519
2.1255	54.659
2.1247	54.592
2.1238	54.429
2.1229	54.444
2.1220	54.434
2.1212	54.495
2.1203	54.623
2.1194	54.724
2.1186	54.698
2.1177	54.559
2.1168	54.515
2.1160	54.464
2.1151	54.517
2.1143	54.555
2.1134	54.665
2.1125	54.610
2.1117	54.645
2.1108	54.586
2.1100	54.465
2.1091	54.507
2.1082	54.515
2.1074	54.596
2.1065	54.709
2.1057	54.568
2.1048	54.449
2.1040	54.488
2.1031	54.518
2.1023	54.456
2.1014	54.445
2.1005	54.488
2.0997	54.508
2.0988	54.457
2.0980	54.492
2.0971	54.563
2.0963	54.557
2.0955	54.473
2.0946	54.491
2.0938	54.481
2.0929	54.392
2.0921	54.345
2.0912	54.496
2.0904	54.560
2.0895	54.500
2.0887	54.455
2.0879	54.440
2.0870	54.337
2.0862	54.343
2.0853	54.473
2.0845	54.454
2.0837	54.309
2.0828	54.234
2.0820	54.372
2.0812	54.436
2.0803	54.406
2.0795	54.315
2.0760	54.315
2.0720	54.531
2.0680	54.448
2.0640	54.633
2.0600	54.448
2.0560	54.841
2.0520	54.304
2.0480	54.151
2.0440	53.794
2.0400	53.834
2.0360	53.765
2.0320	53.593
2.0280	53.673
2.0240	53.593
2.0200	53.172
2.0160	53.081
2.0120	52.621
2.0080	52.899
2.0040	52.833
2.0000	52.821
1.9960	53.002
1.9920	52.911
1.9880	52.380
1.9840	51.930
1.9800	51.622
1.9760	51.817
1.9720	51.759
1.9680	51.683
1.9640	51.645
1.9600	51.645
1.9560	51.668
1.9520	51.912
1.9480	51.936
1.9440	52.129
1.9400	52.086
1.9360	51.934
1.9320	51.611
1.9280	51.581
1.9240	51.150
1.9200	50.982
1.9160	50.888
1.9120	50.888
1.9080	50.774
1.9040	50.501
1.9000	50.275
1.8960	50.467
1.8920	50.691
1.8880	50.833
1.8840	50.769
1.8800	50.833
1.8760	50.732
1.8720	50.400
1.8680	50.275
1.8640	50.412
1.8600	50.832
1.8560	50.838
1.8520	50.477
1.8480	50.387
1.8440	49.899
1.8400	49.649
1.8360	49.560
1.8320	49.293
1.8280	49.863
1.8240	50.342
1.8200	50.234
1.8160	50.038
1.8120	50.186
1.8080	50.284
1.8040	50.179
1.8000	50.003
1.7960	50.188
1.7920	50.198
1.7880	50.179
1.7840	50.038
1.7800	49.597
1.7760	49.738
1.7720	49.950
1.7680	49.950
1.7640	49.915
1.7600	49.862
1.7560	49.915
1.7520	50.128
1.7480	49.720
1.7440	49.614
1.7400	49.862
1.7360	49.827
1.7320	49.507
1.7280	49.329
1.7240	49.150
1.7200	49.329
1.7160	49.525
1.7120	49.685
1.7080	49.501
1.7040	49.420
1.7000	49.385
1.6960	49.209
1.6920	49.174
1.6880	49.420
1.6840	49.174
1.6800	49.051
1.6760	49.209
1.6720	49.067
1.6680	49.155
1.6640	49.032
1.6600	48.733
1.6560	48.445
1.6520	48.616
1.6480	48.705
1.6440	48.739
1.6400	48.547
1.6360	48.542
1.6320	48.425
1.6280	48.439
1.6240	48.606
1.6200	48.528
1.6160	48.194
1.6120	47.950
1.6080	48.018
1.6040	48.023
1.6000	48.201
1.5960	48.099
1.5920	47.888
1.5880	47.719
1.5840	47.585
1.5800	47.694
1.5760	47.686
1.5720	47.585
1.5680	47.497
1.5640	47.442
1.5600	47.652
1.5560	47.431
1.5520	47.343
1.5480	47.387
1.5440	47.387
1.5400	47.442
1.5360	47.255
1.5320	47.255
1.5280	47.034
1.5240	47.034
1.5200	47.177
1.5160	46.880
1.5120	46.783
1.5080	46.695
1.5040	46.737
1.5000	46.644
1.4960	46.607
1.4920	46.311
1.4880	46.072
1.4840	46.016
1.4800	45.971
1.4760	46.048
1.4720	46.048
1.4680	45.763
1.4640	45.732
1.4600	45.669
1.4560	45.939
1.4520	45.954
1.4480	45.809
1.4440	45.848
1.4400	45.589
1.4360	45.684
1.4320	45.773
1.4280	45.599
1.4240	45.656
1.4200	45.801
1.4160	45.865
1.4120	45.765
1.4080	45.381
1.4040	45.045
1.4000	45.234
1.3960	44.960
1.3920	44.867
1.3880	44.871
1.3840	45.202
1.3800	44.790
1.3760	44.786
1.3720	45.004
1.3680	44.683
1.3640	44.547
1.3600	44.554
1.3560	44.644
1.3520	44.449
1.3480	44.378
1.3440	44.375
1.3400	44.150
1.3360	44.152
1.3320	43.832
1.3280	43.802
1.3240	43.861
1.3200	43.952
1.3160	43.984
1.3120	43.771
1.3080	43.860
1.3040	43.802
1.3000	43.567
1.2960	43.420
1.2920	43.243
1.2880	43.331
1.2840	43.212
1.2800	43.062
1.2760	43.181
1.2720	43.330
1.2680	43.092
1.2640	42.797
1.2600	42.768
1.2560	42.797
1.2520	42.687
1.2480	42.535
1.2440	42.593
1.2400	42.620
1.2360	42.539
1.2320	42.337
1.2280	42.299
1.2240	42.295
1.2200	42.122
1.2160	42.118
1.2120	41.716
1.2080	41.576
1.2040	41.609
1.2000	41.670
1.1960	41.586
1.1920	41.480
1.1880	41.337
1.1840	41.194
1.1800	40.925
1.1760	41.052
1.1720	41.079
1.1680	40.749
1.1640	40.830
1.1600	40.795
1.1560	40.638
1.1520	40.514
1.1480	40.425
1.1440	40.196
1.1400	40.114
1.1360	40.544
1.1320	40.204
1.1280	40.409
1.1240	39.930
1.1200	39.893
1.1160	39.726
1.1120	39.700
1.1080	39.381
1.1040	39.318
1.1000	39.725
1.0960	39.647
1.0920	39.407
1.0880	39.267
1.0840	39.318
1.0800	39.151
1.0760	39.037
1.0720	39.075
1.0680	39.037
1.0640	38.948
1.0600	38.910
1.0560	38.822
1.0520	38.986
1.0480	38.695
1.0440	38.646
1.0400	38.433
1.0360	38.444
1.0320	38.543
1.0280	38.263
1.0240	38.451
1.0200	38.189
1.0160	38.125
1.0120	38.076
1.0080	38.101
1.0040	37.849
1.0000	37.904
0.9960	37.993
0.9920	37.818
0.9880	37.827
0.9840	37.747
0.9800	37.505
0.9760	37.559
0.9720	37.287
0.9680	37.270
0.9640	37.294
0.9600	37.222
0.9560	37.229
0.9520	37.117
0.9480	37.117
0.9440	36.851
0.9400	36.770
0.9360	36.817
0.9320	36.747
0.9280	36.741
0.9240	36.700
0.9200	36.612
0.9160	36.612
0.9120	36.348
0.9080	36.542
0.9040	36.371
0.9000	36.337
0.8960	36.407
0.8920	36.319
0.8880	36.300
0.8840	36.276
0.8800	36.345
0.8760	36.168
0.8720	36.102
0.8680	36.014
0.8640	35.971
0.8600	35.932
0.8560	35.820
0.8520	35.731
0.8480	35.754
0.8440	35.530
0.8400	35.284
0.8360	35.330
0.8320	35.239
0.8280	35.173
0.8240	35.128
0.8200	35.018
0.8160	34.929
0.8120	34.841
0.8080	34.797
0.8040	34.710
0.8000	34.580
0.7990	34.580
0.7980	34.580
0.7970	34.752
0.7960	34.680
0.7950	34.580
0.7940	34.484
0.7930	34.831
0.7920	34.888
0.7910	34.607
0.7900	34.739
0.7890	34.389
0.7880	34.448
0.7870	34.548
0.7860	34.669
0.7850	34.671
0.7840	34.803
0.7830	35.048
0.7820	34.573
0.7810	34.274
0.7800	34.467
0.7790	34.215
0.7780	34.448
0.7770	34.414
0.7760	34.418
0.7750	34.544
0.7740	34.480
0.7730	34.318
0.7720	34.027
0.7710	34.094
0.7700	34.499
0.7690	34.559
0.7680	34.396
0.7670	34.115
0.7660	34.174
0.7650	34.057
0.7640	34.366
0.7630	34.271
0.7620	34.211
0.7610	34.182
0.7600	33.990
0.7590	33.828
0.7580	34.293
0.7570	34.234
0.7560	34.115
0.7550	34.086
0.7540	34.061
0.7530	34.174
0.7520	34.234
0.7510	34.271
0.7500	33.823
0.7490	34.204
0.7480	33.961
0.7470	33.932
0.7460	33.990
0.7450	33.915
0.7440	34.137
0.7430	34.419
0.7420	33.828
0.7410	34.101
0.7400	33.878
0.7390	33.812
0.7380	33.415
0.7370	33.781
0.7360	33.930
0.7350	33.849
0.7340	33.752
0.7330	33.482
0.7320	33.482
0.7310	33.791
0.7300	33.879
0.7290	33.598
0.7280	33.745
0.7270	33.927
0.7260	34.027
0.7250	33.781
0.7240	33.938
0.7230	33.930
0.7220	33.775
0.7210	33.582
0.7200	33.783
0.7190	33.695
0.7180	33.816
0.7170	33.723
0.7160	33.791
0.7150	33.812
0.7140	33.627
0.7130	33.685
0.7120	33.783
0.7110	33.834
0.7100	33.802
0.7090	33.560
0.7080	33.242
0.7070	33.838
0.7060	33.456
0.7050	33.640
0.7040	33.582
0.7030	33.729
0.7020	33.755
0.7010	33.723
0.7000	33.886
0.6990	33.818
0.6980	34.318
0.6970	34.232
0.6960	34.141
0.6950	34.349
0.6940	34.746
0.6930	34.547
0.6920	34.417
0.6910	34.224
0.6900	34.323
0.6890	34.224
0.6880	34.149
0.6870	34.324
0.6860	34.516
0.6850	34.318
0.6840	34.096
0.6830	33.799
0.6820	34.261
0.6810	33.928
0.6800	34.359
0.6790	34.298
0.6780	34.002
0.6770	34.224
0.6760	34.385
0.6750	34.416
0.6740	34.640
0.6730	34.541
0.6720	34.217
0.6710	34.118
0.6700	33.988
0.6690	34.087
0.6680	34.224
0.6670	34.088
0.6660	34.124
0.6650	33.964
0.6640	34.180
0.6630	34.341
0.6620	34.279
0.6610	34.279
0.6600	34.080
0.6590	33.820
0.6580	33.820
0.6570	34.118
0.6560	34.026
0.6550	34.217
0.6540	34.118
0.6530	33.828
0.6520	34.043
0.6510	34.635
0.6500	34.672
0.6490	34.180
0.6480	34.019
0.6470	34.118
0.6460	34.049
0.6450	34.050
0.6440	34.149
0.6430	34.118
0.6420	34.124
0.6410	34.080
0.6400	34.279
0.6390	34.373
0.6380	34.242
0.6370	33.919
0.6360	34.179
0.6350	34.248
0.6340	34.416
0.6330	34.515
0.6320	34.646
0.6310	34.484
0.6300	34.447
0.6290	34.473
0.6280	34.578
0.6270	34.373
0.6260	34.435
0.6250	34.435
0.6240	34.572
0.6230	34.604
0.6220	34.635
0.6210	34.803
0.6200	35.103
0.6190	34.635
0.6180	34.730
0.6170	34.767
0.6160	34.835
0.6150	34.373
0.6140	34.404
0.6130	34.541
0.6120	34.541
0.6110	34.704
0.6100	34.735
0.6090	34.561
0.6080	34.266
0.6070	34.435
0.6060	34.467
0.6050	34.366
0.6040	34.329
0.6030	34.461
0.6020	34.360
0.6010	34.160
0.6000	34.518
0.5990	34.348
0.5980	34.209
0.5970	34.171
0.5960	34.272
0.5950	34.742
0.5940	34.774
0.5930	34.742
0.5920	34.839
0.5910	34.635
0.5900	34.737
0.5890	34.974
0.5880	34.941
0.5870	34.839
0.5860	34.569
0.5850	34.474
0.5840	34.737
0.5830	35.313
0.5820	35.149
0.5810	35.185
0.5800	34.954
0.5790	35.189
0.5780	35.055
0.5770	34.986
0.5760	34.881
0.5750	35.185
0.5740	35.290
0.5730	35.232
0.5720	35.271
0.5710	35.271
0.5700	35.239
0.5690	35.338
0.5680	35.342
0.5670	35.435
0.5660	35.565
0.5650	35.565
0.5640	35.468
0.5630	35.666
0.5620	35.698
0.5610	35.530
0.5600	35.661
0.5590	35.626
0.5580	35.626
0.5570	35.979
0.5560	35.700
0.5550	35.604
0.5540	35.799
0.5530	35.765
0.5520	35.694
0.5510	35.655
0.5500	36.021
0.5490	35.947
0.5480	35.929
0.5470	35.847
0.5460	36.071
0.5450	36.042
0.5440	36.161
0.5430	36.063
0.5420	35.870
0.5410	35.957
0.5400	35.548
0.5390	35.831
0.5380	36.016
0.5370	35.936
0.5360	36.063
0.5350	36.114
0.5340	36.244
0.5330	36.244
0.5320	35.961
0.5310	36.049
0.5300	36.079
0.5290	36.108
0.5280	35.981
0.5270	35.539
0.5260	35.735
0.5250	35.981
0.5240	36.018
0.5230	35.968
0.5220	35.979
0.5210	36.174
0.5200	35.976
0.5190	35.899
0.5180	35.508
0.5170	35.510
0.5160	35.863
0.5150	36.020
0.5140	35.774
0.5130	35.735
0.5120	35.471
0.5110	35.635
0.5100	35.452
0.5090	35.706
0.5080	35.486
0.5070	35.671
0.5060	35.758
0.5050	35.931
0.5040	36.014
0.5030	35.689
0.5020	35.612
0.5010	35.731
0.5000	35.463
0.4990	35.660
0.4980	35.544
0.4970	35.279
0.4960	35.221
0.4950	35.126
0.4940	35.053
0.4930	35.497
0.4920	35.486
0.4910	35.193
0.4900	35.281
0.4890	35.058
0.4880	35.281
0.4870	35.546
0.4860	35.270
0.4850	35.058
0.4840	35.156
0.4830	35.467
0.4820	35.128
0.4810	35.058
0.4800	35.089
0.4790	35.058
0.4780	34.977
0.4770	34.949
0.4760	34.851
0.4750	34.462
0.4740	34.784
0.4730	34.617
0.4720	34.169
0.4710	34.365
0.4700	34.267
0.4690	34.365
0.4680	34.113
0.4670	34.196
0.4660	34.100
0.4650	33.930
0.4640	33.932
0.4630	34.073
0.4620	33.796
0.4610	33.601
0.4600	33.825
0.4590	34.331
0.4580	34.520
0.4570	34.611
0.4560	34.539
0.4550	34.766
0.4540	34.639
0.4530	34.566
0.4520	34.576
0.4510	34.676
0.4500	34.759
0.4490	34.721
0.4480	34.731
0.4470	34.456
0.4460	34.032
0.4450	34.011
0.4440	34.116
0.4430	34.143
0.4420	33.847
0.4410	33.754
0.4400	33.830
0.4390	33.601
0.4380	33.477
0.4370	33.505
0.4360	33.505
0.4350	33.406
0.4340	33.631
0.4330	33.274
0.4320	33.480
0.4310	33.506
0.4300	33.428
0.4290	33.324
0.4280	32.914
0.4270	33.065
0.4260	32.862
0.4250	33.019
0.4240	32.709
0.4230	32.989
0.4220	32.449
0.4210	32.242
0.4200	32.291
0.4190	32.167
0.4180	32.169
0.4170	32.143
0.4160	32.077
0.4150	31.817
0.4140	31.973
0.4130	32.068
0.4120	31.841
0.4110	31.623
0.4100	31.668
0.4090	31.567
0.4080	31.567
0.4070	31.658
0.4060	31.523
0.4050	31.478
0.4040	31.546
0.4030	31.320
0.4020	31.161
0.4010	30.999
0.4000	30.335
