Name: Green Slate
Type:  Rocks
Class:  Metamorphic 
Subclass: Slate
Particle Size:  0-75 Micrometer
Sample No.:   slate2.doc
Owner:  JHU
Wavelength Range:  All
Origin:  Sample No. 461, The Hunt and Salisbury Collection at the U.S. 
Geological Survey, Denver, Co.
Description: This is a medium-grained sample dissected by thin veins.  
Microscopically it consists of about equal amounts of actinolite and recrystallized 
albite lathes.  The groundmass also consists of some chlorite, and carbonate, 
which is especially prominent in the veins, along with scattered pyrite.  Modes 
were 59.3% amphibole, 25.7% albite, 10.8% chlorite, 3% calcite and 1% pyrite.

Measurement:  Directional (10 Degree) Hemispherical Reflectance
First Column:  X
Second Column:  Y  
X Units:  Wavelength (micrometers)
Y Units:  Reflectance (percent)
First X Value: 14.0112	
Last X Value:  0.4
Number of X Values: 2844
Additional Information:  None

14.983	1.4005
14.940	1.4657
14.897	1.5931
14.854	1.7231
14.812	1.8197
14.770	1.8564
14.728	1.8370
14.686	1.7877
14.645	1.7472
14.603	1.7299
14.562	1.7342
14.521	1.7584
14.481	1.7991
14.441	1.8367
14.400	1.8630
14.361	1.8813
14.321	1.9028
14.281	1.9334
14.242	1.9743
14.203	2.0229
14.164	2.0717
14.126	2.1060
14.087	2.1176
14.049	2.1070
14.011	2.0840
13.973	2.0563
13.936	2.0276
13.899	2.0004
13.861	1.9774
13.824	1.9575
13.788	1.9409
13.751	1.9296
13.715	1.9258
13.679	1.9265
13.643	1.9251
13.607	1.9182
13.571	1.9061
13.536	1.8891
13.500	1.8699
13.465	1.8500
13.430	1.8294
13.396	1.8057
13.361	1.7764
13.327	1.7413
13.293	1.7034
13.259	1.6674
13.225	1.6378
13.191	1.6182
13.158	1.6115
13.124	1.6205
13.091	1.6471
13.058	1.6899
13.026	1.7458
12.993	1.8088
12.960	1.8711
12.928	1.9251
12.896	1.9663
12.864	1.9935
12.832	2.0087
12.800	2.0151
12.769	2.0184
12.737	2.0269
12.706	2.0492
12.675	2.0946
12.644	2.1704
12.614	2.2775
12.583	2.4122
12.552	2.5650
12.522	2.7265
12.492	2.8889
12.462	3.0478
12.432	3.2020
12.402	3.3498
12.373	3.4878
12.343	3.6114
12.314	3.7159
12.285	3.8009
12.256	3.8684
12.227	3.9240
12.198	3.9738
12.169	4.0195
12.141	4.0585
12.113	4.0860
12.084	4.0983
12.056	4.0943
12.028	4.0754
12.000	4.0474
11.973	4.0152
11.945	3.9816
11.918	3.9463
11.890	3.9086
11.863	3.8679
11.836	3.8229
11.809	3.7746
11.782	3.7246
11.755	3.6740
11.729	3.6238
11.702	3.5759
11.676	3.5316
11.650	3.4916
11.624	3.4570
11.598	3.4284
11.572	3.4061
11.546	3.3886
11.520	3.3758
11.495	3.3675
11.469	3.3640
11.444	3.3640
11.419	3.3663
11.394	3.3697
11.369	3.3711
11.344	3.3678
11.319	3.3578
11.294	3.3401
11.270	3.3164
11.245	3.2889
11.221	3.2593
11.197	3.2290
11.173	3.1982
11.149	3.1658
11.125	3.1283
11.101	3.0843
11.077	3.0341
11.054	2.9787
11.030	2.9197
11.007	2.8605
10.983	2.8044
10.960	2.7537
10.937	2.7094
10.914	2.6732
10.891	2.6462
10.868	2.6277
10.846	2.6166
10.823	2.6111
10.800	2.6107
10.778	2.6135
10.755	2.6189
10.733	2.6272
10.711	2.6391
10.689	2.6526
10.667	2.6675
10.645	2.6841
10.623	2.7023
10.602	2.7210
10.580	2.7411
10.558	2.7632
10.537	2.7866
10.516	2.8096
10.494	2.8304
10.473	2.8482
10.452	2.8605
10.431	2.8657
10.410	2.8662
10.389	2.8655
10.368	2.8659
10.348	2.8697
10.327	2.8787
10.306	2.8939
10.286	2.9133
10.266	2.9351
10.245	2.9583
10.225	2.9820
10.205	3.0054
10.185	3.0270
10.165	3.0457
10.145	3.0599
10.125	3.0675
10.106	3.0663
10.086	3.0566
10.066	3.0400
10.047	3.0187
10.027	2.9945
10.008	2.9680
9.9887	2.9391
9.9695	2.9067
9.9504	2.8707
9.9313	2.8316
9.9123	2.7918
9.8934	2.7532
9.8746	2.7165
9.8558	2.6822
9.8371	2.6497
9.8185	2.6201
9.7999	2.5950
9.7814	2.5766
9.7630	2.5661
9.7447	2.5647
9.7264	2.5728
9.7082	2.5889
9.6900	2.6104
9.6719	2.6336
9.6539	2.6545
9.6360	2.6675
9.6181	2.6677
9.6003	2.6530
9.5825	2.6251
9.5649	2.5872
9.5472	2.5432
9.5297	2.4977
9.5122	2.4551
9.4948	2.4181
9.4774	2.3869
9.4601	2.3622
9.4429	2.3450
9.4257	2.3341
9.4086	2.3267
9.3916	2.3222
9.3746	2.3194
9.3577	2.3168
9.3408	2.3132
9.3240	2.3075
9.3073	2.2995
9.2906	2.2886
9.2740	2.2737
9.2574	2.2557
9.2409	2.2348
9.2245	2.2119
9.2081	2.1865
9.1918	2.1590
9.1755	2.1313
9.1593	2.1051
9.1431	2.0818
9.1270	2.0629
9.1110	2.0482
9.0950	2.0376
9.0791	2.0295
9.0632	2.0234
9.0474	2.0203
9.0316	2.0217
9.0159	2.0283
9.0003	2.0380
8.9847	2.0473
8.9691	2.0527
8.9536	2.0527
8.9382	2.0482
8.9228	2.0442
8.9075	2.0468
8.8922	2.0598
8.8770	2.0837
8.8618	2.1159
8.8467	2.1522
8.8316	2.1875
8.8166	2.2187
8.8016	2.2450
8.7867	2.2668
8.7718	2.2850
8.7570	2.3011
8.7422	2.3156
8.7275	2.3274
8.7129	2.3338
8.6982	2.3326
8.6837	2.3234
8.6692	2.3087
8.6547	2.2917
8.6403	2.2772
8.6259	2.2682
8.6116	2.2649
8.5973	2.2649
8.5830	2.2649
8.5688	2.2637
8.5547	2.2623
8.5406	2.2623
8.5266	2.2661
8.5126	2.2756
8.4986	2.2907
8.4847	2.3108
8.4708	2.3348
8.4570	2.3627
8.4432	2.3947
8.4295	2.4304
8.4158	2.4705
8.4022	2.5145
8.3886	2.5612
8.3750	2.6092
8.3615	2.6583
8.3481	2.7075
8.3347	2.7575
8.3213	2.8077
8.3079	2.8586
8.2946	2.9102
8.2814	2.9607
8.2682	3.0069
8.2550	3.0476
8.2419	3.0836
8.2288	3.1148
8.2158	3.1421
8.2028	3.1665
8.1898	3.1890
8.1769	3.2086
8.1640	3.2240
8.1512	3.2351
8.1384	3.2434
8.1256	3.2503
8.1129	3.2572
8.1002	3.2666
8.0876	3.2825
8.0750	3.3067
8.0624	3.3405
8.0499	3.3853
8.0374	3.4407
8.0250	3.5056
8.0126	3.5762
8.0002	3.6500
7.9879	3.7265
7.9756	3.8044
7.9634	3.8838
7.9512	3.9655
7.9390	4.0498
7.9268	4.1369
7.9147	4.2253
7.9027	4.3162
7.8906	4.4100
7.8786	4.5073
7.8667	4.6096
7.8548	4.7167
7.8429	4.8291
7.8310	4.9466
7.8192	5.0695
7.8075	5.1998
7.7957	5.3369
7.7840	5.4799
7.7723	5.6272
7.7607	5.7766
7.7491	5.9263
7.7375	6.0748
7.7260	6.2221
7.7145	6.3685
7.7031	6.5136
7.6916	6.6569
7.6802	6.7987
7.6689	6.9404
7.6575	7.0813
7.6462	7.2212
7.6350	7.3598
7.6238	7.4971
7.6126	7.6319
7.6014	7.7642
7.5903	7.8959
7.5792	8.0278
7.5681	8.1595
7.5571	8.2902
7.5461	8.4190
7.5351	8.5462
7.5242	8.6705
7.5133	8.7925
7.5024	8.9114
7.4916	9.0260
7.4807	9.1342
7.4700	9.2353
7.4592	9.3310
7.4485	9.4253
7.4378	9.5221
7.4272	9.6254
7.4165	9.7350
7.4059	9.8485
7.3954	9.9602
7.3848	10.067
7.3743	10.167
7.3639	10.262
7.3534	10.355
7.3430	10.448
7.3326	10.540
7.3223	10.631
7.3119	10.718
7.3016	10.800
7.2914	10.880
7.2811	10.956
7.2709	11.029
7.2607	11.100
7.2506	11.167
7.2404	11.228
7.2303	11.281
7.2203	11.325
7.2102	11.358
7.2002	11.383
7.1902	11.402
7.1803	11.424
7.1703	11.455
7.1604	11.504
7.1506	11.574
7.1407	11.664
7.1309	11.769
7.1211	11.879
7.1113	11.984
7.1016	12.076
7.0919	12.149
7.0822	12.205
7.0725	12.249
7.0629	12.288
7.0533	12.330
7.0437	12.377
7.0341	12.426
7.0246	12.474
7.0151	12.517
7.0056	12.552
6.9962	12.583
6.9867	12.614
6.9773	12.649
6.9679	12.691
6.9586	12.736
6.9493	12.782
6.9400	12.825
6.9307	12.864
6.9214	12.898
6.9122	12.934
6.9030	12.971
6.8938	13.014
6.8847	13.066
6.8755	13.131
6.8664	13.208
6.8573	13.295
6.8483	13.389
6.8393	13.486
6.8302	13.578
6.8213	13.662
6.8123	13.739
6.8034	13.814
6.7944	13.892
6.7855	13.978
6.7767	14.075
6.7678	14.183
6.7590	14.299
6.7502	14.421
6.7414	14.546
6.7327	14.670
6.7239	14.795
6.7152	14.922
6.7065	15.051
6.6979	15.183
6.6892	15.317
6.6806	15.451
6.6720	15.579
6.6634	15.698
6.6549	15.809
6.6464	15.913
6.6378	16.014
6.6294	16.115
6.6209	16.218
6.6124	16.323
6.6040	16.426
6.5956	16.525
6.5872	16.619
6.5789	16.709
6.5705	16.795
6.5622	16.879
6.5539	16.964
6.5456	17.047
6.5374	17.127
6.5292	17.199
6.5209	17.261
6.5128	17.313
6.5046	17.361
6.4964	17.413
6.4883	17.479
6.4802	17.559
6.4721	17.651
6.4640	17.740
6.4560	17.814
6.4480	17.860
6.4399	17.874
6.4320	17.861
6.4240	17.831
6.4160	17.794
6.4081	17.755
6.4002	17.712
6.3923	17.659
6.3844	17.591
6.3766	17.506
6.3687	17.407
6.3609	17.302
6.3531	17.197
6.3454	17.097
6.3376	17.002
6.3299	16.910
6.3221	16.821
6.3144	16.734
6.3068	16.648
6.2991	16.567
6.2914	16.491
6.2838	16.421
6.2762	16.358
6.2686	16.302
6.2611	16.254
6.2535	16.216
6.2460	16.188
6.2385	16.170
6.2310	16.159
6.2235	16.156
6.2160	16.162
6.2086	16.176
6.2011	16.201
6.1937	16.242
6.1863	16.300
6.1790	16.373
6.1716	16.462
6.1643	16.563
6.1570	16.669
6.1496	16.775
6.1424	16.878
6.1351	16.978
6.1278	17.075
6.1206	17.172
6.1134	17.271
6.1062	17.372
6.0990	17.469
6.0918	17.558
6.0847	17.635
6.0776	17.698
6.0704	17.747
6.0633	17.789
6.0563	17.829
6.0492	17.872
6.0421	17.918
6.0351	17.962
6.0281	17.999
6.0211	18.021
6.0141	18.026
6.0071	18.015
6.0002	17.996
5.9932	17.976
5.9863	17.960
5.9794	17.951
5.9725	17.946
5.9657	17.943
5.9588	17.938
5.9520	17.935
5.9451	17.945
5.9383	17.974
5.9315	18.026
5.9247	18.099
5.9180	18.186
5.9112	18.277
5.9045	18.368
5.8978	18.458
5.8911	18.554
5.8844	18.662
5.8777	18.784
5.8711	18.915
5.8644	19.047
5.8578	19.169
5.8512	19.276
5.8446	19.366
5.8380	19.444
5.8314	19.518
5.8249	19.594
5.8184	19.673
5.8118	19.751
5.8053	19.823
5.7988	19.883
5.7923	19.927
5.7859	19.957
5.7794	19.980
5.7730	20.002
5.7666	20.026
5.7602	20.052
5.7538	20.080
5.7474	20.107
5.7410	20.128
5.7347	20.144
5.7283	20.158
5.7220	20.173
5.7157	20.194
5.7094	20.221
5.7031	20.258
5.6969	20.305
5.6906	20.357
5.6844	20.413
5.6782	20.472
5.6719	20.535
5.6657	20.602
5.6596	20.674
5.6534	20.756
5.6472	20.847
5.6411	20.946
5.6349	21.050
5.6288	21.154
5.6227	21.250
5.6166	21.331
5.6106	21.389
5.6045	21.420
5.5984	21.425
5.5924	21.411
5.5864	21.397
5.5804	21.404
5.5744	21.455
5.5684	21.565
5.5624	21.740
5.5564	21.972
5.5505	22.242
5.5445	22.528
5.5386	22.809
5.5327	23.069
5.5268	23.300
5.5209	23.505
5.5151	23.689
5.5092	23.856
5.5033	24.013
5.4975	24.164
5.4917	24.311
5.4859	24.454
5.4801	24.597
5.4743	24.741
5.4685	24.886
5.4628	25.032
5.4570	25.175
5.4513	25.312
5.4455	25.439
5.4398	25.551
5.4341	25.650
5.4284	25.737
5.4228	25.817
5.4171	25.890
5.4114	25.959
5.4058	26.020
5.4002	26.069
5.3945	26.106
5.3889	26.128
5.3833	26.140
5.3778	26.147
5.3722	26.155
5.3666	26.171
5.3611	26.200
5.3555	26.244
5.3500	26.305
5.3445	26.378
5.3390	26.461
5.3335	26.549
5.3280	26.641
5.3225	26.732
5.3171	26.821
5.3116	26.906
5.3062	26.987
5.3008	27.063
5.2954	27.139
5.2900	27.222
5.2846	27.318
5.2792	27.431
5.2738	27.562
5.2684	27.710
5.2631	27.867
5.2578	28.025
5.2524	28.179
5.2471	28.327
5.2418	28.467
5.2365	28.597
5.2312	28.718
5.2260	28.830
5.2207	28.934
5.2154	29.028
5.2102	29.113
5.2050	29.191
5.1998	29.264
5.1945	29.335
5.1893	29.406
5.1842	29.481
5.1790	29.561
5.1738	29.647
5.1686	29.737
5.1635	29.831
5.1584	29.930
5.1532	30.032
5.1481	30.137
5.1430	30.245
5.1379	30.356
5.1328	30.469
5.1277	30.583
5.1227	30.699
5.1176	30.817
5.1126	30.935
5.1075	31.055
5.1025	31.174
5.0975	31.293
5.0925	31.412
5.0875	31.531
5.0825	31.649
5.0775	31.763
5.0726	31.873
5.0676	31.977
5.0627	32.075
5.0577	32.167
5.0528	32.255
5.0479	32.340
5.0430	32.423
5.0380	32.507
5.0332	32.590
5.0283	32.675
5.0234	32.763
5.0185	32.855
5.0137	32.953
5.0088	33.054
5.0040	33.157
4.9992	33.259
4.9944	33.359
4.9896	33.458
4.9848	33.558
4.9800	33.662
4.9752	33.772
4.9704	33.891
4.9657	34.020
4.9609	34.157
4.9562	34.301
4.9514	34.450
4.9467	34.600
4.9420	34.750
4.9373	34.895
4.9326	35.035
4.9279	35.171
4.9232	35.304
4.9186	35.438
4.9139	35.572
4.9092	35.708
4.9046	35.845
4.9000	35.979
4.8953	36.110
4.8907	36.239
4.8861	36.368
4.8815	36.505
4.8769	36.656
4.8723	36.825
4.8678	37.015
4.8632	37.225
4.8586	37.448
4.8541	37.678
4.8495	37.908
4.8450	38.131
4.8405	38.342
4.8360	38.539
4.8315	38.721
4.8270	38.888
4.8225	39.041
4.8180	39.185
4.8135	39.325
4.8090	39.463
4.8046	39.604
4.8001	39.751
4.7957	39.907
4.7913	40.074
4.7868	40.254
4.7824	40.452
4.7780	40.670
4.7736	40.910
4.7692	41.169
4.7648	41.446
4.7605	41.734
4.7561	42.027
4.7517	42.318
4.7474	42.601
4.7431	42.874
4.7387	43.137
4.7344	43.389
4.7301	43.634
4.7258	43.871
4.7215	44.100
4.7172	44.320
4.7129	44.531
4.7086	44.733
4.7043	44.926
4.7000	45.113
4.6958	45.295
4.6915	45.475
4.6873	45.655
4.6831	45.837
4.6788	46.020
4.6746	46.202
4.6704	46.382
4.6662	46.556
4.6620	46.727
4.6578	46.895
4.6536	47.065
4.6495	47.240
4.6453	47.421
4.6411	47.609
4.6370	47.801
4.6328	47.995
4.6287	48.190
4.6246	48.385
4.6205	48.581
4.6163	48.781
4.6122	48.987
4.6081	49.202
4.6040	49.423
4.6000	49.649
4.5959	49.877
4.5918	50.105
4.5877	50.331
4.5837	50.554
4.5796	50.776
4.5756	50.997
4.5716	51.215
4.5675	51.431
4.5635	51.640
4.5595	51.841
4.5555	52.030
4.5515	52.208
4.5475	52.377
4.5435	52.538
4.5395	52.696
4.5356	52.853
4.5316	53.009
4.5276	53.165
4.5237	53.317
4.5197	53.464
4.5158	53.606
4.5119	53.742
4.5080	53.872
4.5040	53.998
4.5001	54.119
4.4962	54.237
4.4923	54.354
4.4884	54.473
4.4846	54.593
4.4807	54.715
4.4768	54.838
4.4730	54.961
4.4691	55.083
4.4652	55.203
4.4614	55.322
4.4576	55.444
4.4537	55.567
4.4499	55.692
4.4461	55.816
4.4423	55.937
4.4385	56.056
4.4347	56.171
4.4309	56.283
4.4271	56.394
4.4233	56.505
4.4196	56.616
4.4158	56.726
4.4120	56.835
4.4083	56.941
4.4045	57.043
4.4008	57.143
4.3971	57.239
4.3934	57.333
4.3896	57.426
4.3859	57.519
4.3822	57.612
4.3785	57.705
4.3748	57.799
4.3711	57.891
4.3674	57.980
4.3638	58.065
4.3601	58.147
4.3564	58.226
4.3528	58.305
4.3491	58.384
4.3455	58.463
4.3418	58.543
4.3382	58.622
4.3346	58.699
4.3310	58.772
4.3273	58.840
4.3237	58.905
4.3201	58.967
4.3165	59.029
4.3129	59.092
4.3094	59.159
4.3058	59.229
4.3022	59.301
4.2986	59.373
4.2951	59.443
4.2915	59.509
4.2880	59.573
4.2844	59.634
4.2809	59.694
4.2774	59.753
4.2738	59.810
4.2703	59.866
4.2668	59.919
4.2633	59.970
4.2598	60.020
4.2563	60.072
4.2528	60.126
4.2493	60.181
4.2458	60.238
4.2424	60.293
4.2389	60.346
4.2354	60.395
4.2320	60.442
4.2285	60.490
4.2251	60.541
4.2216	60.594
4.2182	60.648
4.2148	60.701
4.2113	60.751
4.2079	60.797
4.2045	60.840
4.2011	60.882
4.1977	60.926
4.1943	60.973
4.1909	61.022
4.1875	61.070
4.1841	61.116
4.1808	61.158
4.1774	61.196
4.1740	61.231
4.1707	61.267
4.1673	61.302
4.1640	61.339
4.1606	61.376
4.1573	61.413
4.1540	61.449
4.1506	61.486
4.1473	61.523
4.1440	61.560
4.1407	61.596
4.1374	61.632
4.1341	61.667
4.1308	61.701
4.1275	61.732
4.1242	61.763
4.1209	61.791
4.1177	61.817
4.1144	61.841
4.1111	61.862
4.1079	61.883
4.1046	61.903
4.1014	61.923
4.0981	61.944
4.0949	61.966
4.0917	61.990
4.0884	62.015
4.0852	62.039
4.0820	62.061
4.0788	62.079
4.0756	62.092
4.0724	62.102
4.0692	62.110
4.0660	62.117
4.0628	62.122
4.0596	62.125
4.0565	62.121
4.0533	62.106
4.0501	62.077
4.0470	62.035
4.0438	61.981
4.0406	61.920
4.0375	61.855
4.0344	61.790
4.0312	61.726
4.0281	61.659
4.0250	61.583
4.0218	61.492
4.0187	61.378
4.0156	61.235
4.0125	61.058
4.0094	60.848
4.0063	60.606
4.0032	60.339
4.0001	60.057
3.9970	59.772
3.9940	59.502
3.9909	59.263
3.9878	59.071
3.9847	58.938
3.9817	58.868
3.9786	58.856
3.9756	58.895
3.9725	58.974
3.9695	59.085
3.9665	59.222
3.9634	59.387
3.9604	59.581
3.9574	59.803
3.9544	60.051
3.9513	60.315
3.9483	60.581
3.9453	60.832
3.9423	61.051
3.9393	61.226
3.9363	61.354
3.9333	61.439
3.9304	61.492
3.9274	61.526
3.9244	61.552
3.9214	61.578
3.9185	61.604
3.9155	61.629
3.9126	61.651
3.9096	61.669
3.9067	61.682
3.9037	61.690
3.9008	61.694
3.8979	61.695
3.8949	61.693
3.8920	61.691
3.8891	61.690
3.8862	61.693
3.8833	61.697
3.8804	61.702
3.8775	61.702
3.8746	61.696
3.8717	61.683
3.8688	61.668
3.8659	61.654
3.8630	61.644
3.8601	61.639
3.8573	61.637
3.8544	61.635
3.8515	61.632
3.8487	61.629
3.8458	61.628
3.8430	61.634
3.8401	61.646
3.8373	61.665
3.8344	61.688
3.8316	61.712
3.8288	61.735
3.8259	61.757
3.8231	61.780
3.8203	61.805
3.8175	61.830
3.8147	61.855
3.8119	61.879
3.8091	61.901
3.8063	61.918
3.8035	61.932
3.8007	61.943
3.7979	61.950
3.7951	61.953
3.7924	61.953
3.7896	61.949
3.7868	61.942
3.7841	61.930
3.7813	61.916
3.7785	61.899
3.7758	61.880
3.7730	61.858
3.7703	61.834
3.7676	61.805
3.7648	61.770
3.7621	61.727
3.7594	61.678
3.7566	61.624
3.7539	61.569
3.7512	61.517
3.7485	61.471
3.7458	61.428
3.7431	61.387
3.7404	61.348
3.7377	61.310
3.7350	61.271
3.7323	61.233
3.7296	61.194
3.7269	61.154
3.7242	61.112
3.7216	61.067
3.7189	61.022
3.7162	60.978
3.7136	60.934
3.7109	60.892
3.7083	60.850
3.7056	60.809
3.7030	60.767
3.7003	60.724
3.6977	60.679
3.6950	60.630
3.6924	60.577
3.6898	60.523
3.6872	60.469
3.6845	60.419
3.6819	60.374
3.6793	60.334
3.6767	60.294
3.6741	60.250
3.6715	60.201
3.6689	60.144
3.6663	60.082
3.6637	60.021
3.6611	59.964
3.6585	59.913
3.6560	59.866
3.6534	59.820
3.6508	59.772
3.6482	59.721
3.6457	59.665
3.6431	59.605
3.6406	59.543
3.6380	59.480
3.6355	59.416
3.6329	59.354
3.6304	59.292
3.6278	59.231
3.6253	59.171
3.6227	59.109
3.6202	59.044
3.6177	58.974
3.6152	58.901
3.6127	58.824
3.6101	58.749
3.6076	58.678
3.6051	58.612
3.6026	58.551
3.6001	58.489
3.5976	58.422
3.5951	58.348
3.5926	58.268
3.5901	58.185
3.5876	58.103
3.5852	58.024
3.5827	57.947
3.5802	57.870
3.5777	57.790
3.5753	57.707
3.5728	57.622
3.5704	57.536
3.5679	57.450
3.5654	57.364
3.5630	57.280
3.5605	57.196
3.5581	57.114
3.5557	57.035
3.5532	56.958
3.5508	56.876
3.5484	56.791
3.5459	56.700
3.5435	56.607
3.5411	56.511
3.5387	56.416
3.5363	56.321
3.5338	56.220
3.5314	56.106
3.5290	55.978
3.5266	55.839
3.5242	55.692
3.5218	55.542
3.5195	55.396
3.5171	55.254
3.5147	55.113
3.5123	54.968
3.5099	54.820
3.5075	54.670
3.5052	54.521
3.5028	54.375
3.5004	54.235
3.4981	54.099
3.4957	53.965
3.4934	53.832
3.4910	53.702
3.4887	53.578
3.4863	53.463
3.4840	53.361
3.4816	53.274
3.4793	53.205
3.4770	53.154
3.4746	53.122
3.4723	53.108
3.4700	53.109
3.4677	53.117
3.4653	53.123
3.4630	53.116
3.4607	53.091
3.4584	53.046
3.4561	52.984
3.4538	52.909
3.4515	52.828
3.4492	52.743
3.4469	52.655
3.4446	52.566
3.4423	52.475
3.4400	52.382
3.4378	52.287
3.4355	52.188
3.4332	52.084
3.4309	51.971
3.4287	51.851
3.4264	51.724
3.4241	51.591
3.4219	51.456
3.4196	51.325
3.4174	51.200
3.4151	51.085
3.4129	50.983
3.4106	50.893
3.4084	50.811
3.4061	50.734
3.4039	50.659
3.4017	50.581
3.3994	50.499
3.3972	50.412
3.3950	50.322
3.3928	50.228
3.3906	50.130
3.3883	50.029
3.3861	49.925
3.3839	49.817
3.3817	49.705
3.3795	49.590
3.3773	49.474
3.3751	49.358
3.3729	49.243
3.3707	49.132
3.3685	49.023
3.3663	48.915
3.3641	48.804
3.3620	48.688
3.3598	48.566
3.3576	48.439
3.3554	48.313
3.3533	48.196
3.3511	48.095
3.3489	48.014
3.3468	47.954
3.3446	47.913
3.3425	47.883
3.3403	47.855
3.3382	47.820
3.3360	47.770
3.3339	47.702
3.3317	47.619
3.3296	47.523
3.3274	47.424
3.3253	47.324
3.3232	47.226
3.3210	47.129
3.3189	47.030
3.3168	46.927
3.3147	46.817
3.3126	46.701
3.3104	46.581
3.3083	46.459
3.3062	46.335
3.3041	46.212
3.3020	46.089
3.2999	45.964
3.2978	45.836
3.2957	45.708
3.2936	45.578
3.2915	45.445
3.2894	45.310
3.2874	45.173
3.2853	45.035
3.2832	44.896
3.2811	44.762
3.2790	44.634
3.2770	44.513
3.2749	44.395
3.2728	44.275
3.2708	44.147
3.2687	44.010
3.2666	43.861
3.2646	43.705
3.2625	43.546
3.2605	43.388
3.2584	43.232
3.2564	43.080
3.2543	42.932
3.2523	42.787
3.2503	42.644
3.2482	42.500
3.2462	42.350
3.2442	42.191
3.2421	42.022
3.2401	41.848
3.2381	41.671
3.2361	41.497
3.2340	41.326
3.2320	41.158
3.2300	40.989
3.2280	40.814
3.2260	40.630
3.2240	40.437
3.2220	40.236
3.2200	40.028
3.2180	39.817
3.2160	39.604
3.2140	39.390
3.2120	39.175
3.2100	38.961
3.2080	38.747
3.2060	38.534
3.2040	38.321
3.2021	38.107
3.2001	37.892
3.1981	37.674
3.1961	37.453
3.1942	37.230
3.1922	37.004
3.1902	36.780
3.1883	36.556
3.1863	36.335
3.1844	36.117
3.1824	35.903
3.1805	35.690
3.1785	35.479
3.1766	35.270
3.1746	35.064
3.1727	34.859
3.1707	34.656
3.1688	34.452
3.1669	34.244
3.1649	34.030
3.1630	33.809
3.1611	33.581
3.1591	33.349
3.1572	33.117
3.1553	32.888
3.1534	32.661
3.1515	32.436
3.1495	32.209
3.1476	31.978
3.1457	31.740
3.1438	31.497
3.1419	31.249
3.1400	30.997
3.1381	30.739
3.1362	30.476
3.1343	30.210
3.1324	29.942
3.1305	29.674
3.1286	29.407
3.1268	29.139
3.1249	28.867
3.1230	28.590
3.1211	28.310
3.1192	28.029
3.1174	27.754
3.1155	27.486
3.1136	27.224
3.1117	26.964
3.1099	26.703
3.1080	26.440
3.1061	26.176
3.1043	25.918
3.1024	25.667
3.1006	25.424
3.0987	25.182
3.0969	24.939
3.0950	24.692
3.0932	24.440
3.0913	24.186
3.0895	23.936
3.0876	23.693
3.0858	23.456
3.0840	23.224
3.0821	22.999
3.0803	22.781
3.0785	22.569
3.0766	22.363
3.0748	22.163
3.0730	21.966
3.0712	21.767
3.0694	21.567
3.0675	21.366
3.0657	21.167
3.0639	20.974
3.0621	20.790
3.0603	20.618
3.0585	20.458
3.0567	20.306
3.0549	20.160
3.0531	20.013
3.0513	19.861
3.0495	19.703
3.0477	19.540
3.0459	19.376
3.0441	19.218
3.0423	19.068
3.0406	18.928
3.0388	18.793
3.0370	18.659
3.0352	18.522
3.0334	18.383
3.0317	18.242
3.0299	18.102
3.0281	17.963
3.0264	17.823
3.0246	17.678
3.0228	17.525
3.0211	17.365
3.0193	17.198
3.0176	17.028
3.0158	16.854
3.0140	16.675
3.0123	16.494
3.0105	16.309
3.0088	16.124
3.0070	15.939
3.0053	15.756
3.0036	15.574
3.0018	15.390
3.0001	15.205
2.9984	15.022
2.9966	14.845
2.9949	14.679
2.9932	14.523
2.9914	14.373
2.9897	14.224
2.9880	14.072
2.9863	13.918
2.9845	13.766
2.9828	13.625
2.9811	13.498
2.9794	13.385
2.9777	13.284
2.9760	13.191
2.9743	13.105
2.9726	13.024
2.9709	12.952
2.9692	12.892
2.9675	12.840
2.9658	12.792
2.9641	12.744
2.9624	12.697
2.9607	12.653
2.9590	12.616
2.9573	12.591
2.9556	12.581
2.9539	12.581
2.9523	12.588
2.9506	12.596
2.9489	12.603
2.9472	12.611
2.9455	12.623
2.9439	12.642
2.9422	12.668
2.9405	12.703
2.9389	12.740
2.9372	12.776
2.9355	12.807
2.9339	12.833
2.9322	12.860
2.9306	12.893
2.9289	12.938
2.9272	12.997
2.9256	13.068
2.9239	13.143
2.9223	13.214
2.9207	13.274
2.9190	13.322
2.9174	13.361
2.9157	13.397
2.9141	13.436
2.9124	13.482
2.9108	13.535
2.9092	13.593
2.9075	13.652
2.9059	13.713
2.9043	13.775
2.9027	13.839
2.9010	13.904
2.8994	13.972
2.8978	14.042
2.8962	14.109
2.8946	14.171
2.8929	14.226
2.8913	14.274
2.8897	14.313
2.8881	14.347
2.8865	14.375
2.8849	14.400
2.8833	14.421
2.8817	14.438
2.8801	14.449
2.8785	14.456
2.8769	14.460
2.8753	14.465
2.8737	14.472
2.8721	14.483
2.8705	14.499
2.8689	14.518
2.8673	14.538
2.8658	14.559
2.8642	14.576
2.8626	14.592
2.8610	14.602
2.8594	14.604
2.8579	14.599
2.8563	14.588
2.8547	14.571
2.8531	14.551
2.8516	14.529
2.8500	14.506
2.8484	14.479
2.8469	14.446
2.8453	14.405
2.8437	14.356
2.8422	14.302
2.8406	14.247
2.8391	14.193
2.8375	14.146
2.8360	14.104
2.8344	14.062
2.8329	14.017
2.8313	13.964
2.8298	13.905
2.8282	13.844
2.8267	13.791
2.8252	13.754
2.8236	13.735
2.8221	13.735
2.8205	13.747
2.8190	13.765
2.8175	13.786
2.8159	13.813
2.8144	13.855
2.8129	13.919
2.8114	14.009
2.8098	14.128
2.8083	14.269
2.8068	14.426
2.8053	14.596
2.8038	14.780
2.8022	14.981
2.8007	15.203
2.7992	15.450
2.7977	15.726
2.7962	16.030
2.7947	16.364
2.7932	16.727
2.7917	17.117
2.7902	17.521
2.7887	17.917
2.7872	18.274
2.7857	18.560
2.7842	18.750
2.7827	18.841
2.7812	18.859
2.7797	18.849
2.7782	18.865
2.7767	18.946
2.7752	19.099
2.7738	19.299
2.7723	19.503
2.7708	19.665
2.7693	19.747
2.7678	19.729
2.7664	19.614
2.7649	19.416
2.7634	19.156
2.7619	18.877
2.7605	18.649
2.7590	18.549
2.7575	18.640
2.7561	18.932
2.7546	19.361
2.7531	19.781
2.7517	20.009
2.7502	19.908
2.7488	19.481
2.7473	18.902
2.7458	18.462
2.7444	18.445
2.7429	18.960
2.7415	19.862
2.7400	20.789
2.7386	21.338
2.7371	21.298
2.7357	20.792
2.7343	20.244
2.7328	20.157
2.7314	20.815
2.7299	22.133
2.7285	23.704
2.7271	25.030
2.7256	25.820
2.7242	26.176
2.7228	26.539
2.7213	27.418
2.7199	29.101
2.7185	31.532
2.7171	34.362
2.7156	37.133
2.7142	39.492
2.7128	41.338
2.7114	42.783
2.7100	44.018
2.7085	45.205
2.7071	46.434
2.7057	47.724
2.7043	49.048
2.7029	50.374
2.7015	51.692
2.7001	52.996
2.6987	54.274
2.6973	55.509
2.6959	56.694
2.6945	57.822
2.6931	58.889
2.6917	59.894
2.6903	60.832
2.6889	61.694
2.6875	62.471
2.6861	63.152
2.6847	63.734
2.6833	64.221
2.6819	64.622
2.6805	64.955
2.6791	65.243
2.6778	65.507
2.6764	65.758
2.6750	65.999
2.6736	66.234
2.6722	66.460
2.6709	66.675
2.6695	66.879
2.6681	67.079
2.6667	67.282
2.6654	67.483
2.6640	67.676
2.6626	67.856
2.6613	68.019
2.6599	68.155
2.6585	68.270
2.6572	68.371
2.6558	68.467
2.6545	68.564
2.6531	68.663
2.6517	68.763
2.6504	68.859
2.6490	68.943
2.6477	69.016
2.6463	69.077
2.6450	69.134
2.6436	69.191
2.6423	69.254
2.6409	69.318
2.6396	69.377
2.6382	69.423
2.6369	69.449
2.6356	69.455
2.6342	69.449
2.6329	69.444
2.6315	69.451
2.6302	69.476
2.6289	69.518
2.6275	69.570
2.6262	69.623
2.6249	69.668
2.6236	69.700
2.6222	69.724
2.6209	69.741
2.6196	69.759
2.6183	69.789
2.6169	69.835
2.6156	69.897
2.6143	69.966
2.6130	70.028
2.6117	70.072
2.6103	70.088
2.6090	70.080
2.6077	70.065
2.6064	70.067
2.6051	70.098
2.6038	70.154
2.6025	70.220
2.6012	70.274
2.5999	70.295
2.5986	70.275
2.5973	70.235
2.5960	70.205
2.5947	70.203
2.5934	70.233
2.5921	70.285
2.5908	70.341
2.5895	70.378
2.5882	70.388
2.5869	70.381
2.5856	70.371
2.5843	70.368
2.5830	70.379
2.5817	70.402
2.5805	70.431
2.5792	70.457
2.5779	70.476
2.5766	70.487
2.5753	70.498
2.5741	70.513
2.5728	70.540
2.5715	70.580
2.5702	70.629
2.5690	70.678
2.5677	70.715
2.5664	70.733
2.5651	70.734
2.5639	70.726
2.5626	70.719
2.5613	70.723
2.5601	70.742
2.5588	70.773
2.5575	70.807
2.5563	70.841
2.5550	70.872
2.5538	70.899
2.5525	70.922
2.5513	70.941
2.5500	70.954
2.5487	70.955
2.5475	70.947
2.5462	70.935
2.5450	70.927
2.5437	70.928
2.5425	70.945
2.5413	70.972
2.5400	71.001
2.5388	71.023
2.5375	71.035
2.5363	71.033
2.5350	71.023
2.5338	71.012
2.5326	71.006
2.5313	71.008
2.5301	71.015
2.5289	71.026
2.5276	71.037
2.5264	71.044
2.5252	71.048
2.5239	71.051
2.5227	71.055
2.5215	71.060
2.5202	71.068
2.5190	71.081
2.5178	71.100
2.5166	71.125
2.5154	71.155
2.5141	71.187
2.5129	71.215
2.5117	71.232
2.5105	71.239
2.5093	71.236
2.5081	71.230
2.5068	71.228
2.5056	71.239
2.5044	71.268
2.5032	71.311
2.5020	71.364
2.5008	71.416
2.4996	71.461
2.4984	71.493
2.4972	71.510
2.4960	71.520
2.4948	71.529
2.4936	71.546
2.4924	71.577
2.4912	71.626
2.4900	71.691
2.4888	71.762
2.4876	71.827
2.4864	71.878
2.4852	71.910
2.4840	71.927
2.4828	71.941
2.4816	71.963
2.4805	72.001
2.4793	72.053
2.4781	72.111
2.4769	72.167
2.4757	72.214
2.4745	72.252
2.4734	72.286
2.4722	72.326
2.4710	72.377
2.4698	72.437
2.4686	72.500
2.4675	72.561
2.4663	72.613
2.4651	72.655
2.4640	72.688
2.4628	72.715
2.4616	72.742
2.4604	72.771
2.4593	72.805
2.4581	72.845
2.4569	72.892
2.4558	72.944
2.4546	72.999
2.4535	73.055
2.4523	73.107
2.4511	73.154
2.4500	73.192
2.4488	73.223
2.4477	73.246
2.4465	73.264
2.4454	73.278
2.4442	73.283
2.4431	73.278
2.4419	73.262
2.4408	73.235
2.4396	73.204
2.4385	73.178
2.4373	73.161
2.4362	73.153
2.4350	73.148
2.4339	73.138
2.4327	73.117
2.4316	73.079
2.4305	73.026
2.4293	72.960
2.4282	72.886
2.4270	72.808
2.4259	72.729
2.4248	72.651
2.4236	72.573
2.4225	72.494
2.4214	72.408
2.4202	72.313
2.4191	72.207
2.4180	72.090
2.4169	71.965
2.4157	71.836
2.4146	71.708
2.4135	71.587
2.4124	71.474
2.4112	71.371
2.4101	71.275
2.4090	71.182
2.4079	71.087
2.4068	70.987
2.4056	70.882
2.4045	70.778
2.4034	70.684
2.4023	70.603
2.4012	70.536
2.4001	70.485
2.3990	70.443
2.3979	70.407
2.3967	70.376
2.3956	70.356
2.3945	70.353
2.3934	70.367
2.3923	70.398
2.3912	70.442
2.3901	70.492
2.3890	70.541
2.3879	70.591
2.3868	70.647
2.3857	70.711
2.3846	70.785
2.3835	70.865
2.3824	70.943
2.3813	71.006
2.3802	71.046
2.3791	71.057
2.3781	71.040
2.3770	70.998
2.3759	70.939
2.3748	70.870
2.3737	70.793
2.3726	70.704
2.3715	70.601
2.3704	70.479
2.3694	70.336
2.3683	70.174
2.3672	69.997
2.3661	69.809
2.3650	69.611
2.3640	69.405
2.3629	69.189
2.3618	68.965
2.3607	68.732
2.3597	68.492
2.3586	68.247
2.3575	68.002
2.3564	67.761
2.3554	67.528
2.3543	67.303
2.3532	67.085
2.3522	66.877
2.3511	66.681
2.3500	66.505
2.3490	66.356
2.3479	66.240
2.3468	66.152
2.3458	66.082
2.3447	66.017
2.3436	65.948
2.3426	65.874
2.3415	65.802
2.3405	65.743
2.3394	65.704
2.3384	65.688
2.3373	65.688
2.3363	65.697
2.3352	65.710
2.3342	65.721
2.3331	65.732
2.3321	65.745
2.3310	65.765
2.3300	65.795
2.3289	65.839
2.3279	65.902
2.3268	65.985
2.3258	66.086
2.3247	66.200
2.3237	66.318
2.3226	66.435
2.3216	66.549
2.3206	66.659
2.3195	66.768
2.3185	66.882
2.3175	67.002
2.3164	67.132
2.3154	67.266
2.3144	67.403
2.3133	67.539
2.3123	67.671
2.3113	67.796
2.3102	67.916
2.3092	68.036
2.3082	68.165
2.3071	68.309
2.3061	68.472
2.3051	68.655
2.3041	68.854
2.3030	69.063
2.3020	69.273
2.3010	69.480
2.3000	69.683
2.2990	69.885
2.2979	70.095
2.2969	70.316
2.2959	70.554
2.2949	70.807
2.2939	71.068
2.2929	71.329
2.2918	71.579
2.2908	71.812
2.2898	72.025
2.2888	72.220
2.2878	72.400
2.2868	72.568
2.2858	72.726
2.2848	72.875
2.2838	73.012
2.2828	73.140
2.2818	73.259
2.2808	73.369
2.2798	73.465
2.2787	73.543
2.2777	73.598
2.2767	73.628
2.2757	73.637
2.2747	73.631
2.2738	73.618
2.2728	73.603
2.2718	73.584
2.2708	73.560
2.2698	73.522
2.2688	73.469
2.2678	73.402
2.2668	73.320
2.2658	73.227
2.2648	73.122
2.2638	73.013
2.2628	72.903
2.2618	72.799
2.2609	72.713
2.2599	72.653
2.2589	72.618
2.2579	72.606
2.2569	72.614
2.2559	72.643
2.2550	72.690
2.2540	72.758
2.2530	72.853
2.2520	72.976
2.2510	73.122
2.2501	73.289
2.2491	73.478
2.2481	73.685
2.2471	73.906
2.2462	74.138
2.2452	74.381
2.2442	74.630
2.2433	74.874
2.2423	75.109
2.2413	75.329
2.2403	75.528
2.2394	75.702
2.2384	75.856
2.2374	76.000
2.2365	76.141
2.2355	76.277
2.2345	76.407
2.2336	76.524
2.2326	76.621
2.2317	76.693
2.2307	76.749
2.2297	76.798
2.2288	76.847
2.2278	76.905
2.2269	76.971
2.2259	77.044
2.2250	77.116
2.2240	77.181
2.2231	77.237
2.2221	77.281
2.2211	77.312
2.2202	77.332
2.2192	77.346
2.2183	77.356
2.2173	77.365
2.2164	77.374
2.2155	77.387
2.2145	77.401
2.2136	77.416
2.2126	77.435
2.2117	77.456
2.2107	77.480
2.2098	77.505
2.2088	77.531
2.2079	77.557
2.2070	77.578
2.2060	77.595
2.2051	77.610
2.2041	77.624
2.2032	77.635
2.2023	77.646
2.2013	77.662
2.2004	77.681
2.1995	77.701
2.1985	77.722
2.1976	77.745
2.1967	77.770
2.1957	77.800
2.1948	77.841
2.1939	77.899
2.1930	77.972
2.1920	78.045
2.1911	78.106
2.1902	78.145
2.1893	78.161
2.1883	78.165
2.1874	78.170
2.1865	78.193
2.1856	78.239
2.1846	78.301
2.1837	78.368
2.1828	78.428
2.1819	78.473
2.1810	78.501
2.1800	78.510
2.1791	78.507
2.1782	78.497
2.1773	78.488
2.1764	78.487
2.1755	78.500
2.1746	78.527
2.1736	78.565
2.1727	78.607
2.1718	78.646
2.1709	78.676
2.1700	78.697
2.1691	78.705
2.1682	78.699
2.1673	78.678
2.1664	78.644
2.1655	78.606
2.1646	78.570
2.1637	78.545
2.1628	78.540
2.1619	78.557
2.1610	78.586
2.1601	78.619
2.1592	78.644
2.1583	78.653
2.1574	78.640
2.1565	78.610
2.1556	78.578
2.1547	78.559
2.1538	78.559
2.1529	78.578
2.1520	78.607
2.1511	78.630
2.1502	78.630
2.1493	78.606
2.1484	78.571
2.1475	78.542
2.1466	78.532
2.1458	78.547
2.1449	78.581
2.1440	78.615
2.1431	78.632
2.1422	78.624
2.1413	78.595
2.1404	78.553
2.1396	78.508
2.1387	78.466
2.1378	78.434
2.1369	78.410
2.1360	78.392
2.1352	78.386
2.1343	78.392
2.1334	78.411
2.1325	78.439
2.1316	78.471
2.1308	78.500
2.1299	78.514
2.1290	78.507
2.1281	78.483
2.1273	78.450
2.1264	78.419
2.1255	78.401
2.1247	78.407
2.1238	78.438
2.1229	78.482
2.1220	78.528
2.1212	78.563
2.1203	78.578
2.1194	78.569
2.1186	78.538
2.1177	78.497
2.1168	78.457
2.1160	78.428
2.1151	78.423
2.1143	78.449
2.1134	78.506
2.1125	78.583
2.1117	78.660
2.1108	78.720
2.1100	78.751
2.1091	78.750
2.1082	78.734
2.1074	78.724
2.1065	78.734
2.1057	78.768
2.1048	78.817
2.1040	78.862
2.1031	78.890
2.1023	78.891
2.1014	78.873
2.1005	78.844
2.0997	78.809
2.0988	78.774
2.0980	78.746
2.0971	78.730
2.0963	78.731
2.0955	78.755
2.0946	78.798
2.0938	78.847
2.0929	78.885
2.0921	78.899
2.0912	78.888
2.0904	78.865
2.0895	78.844
2.0887	78.833
2.0879	78.839
2.0870	78.852
2.0862	78.861
2.0853	78.864
2.0845	78.851
2.0837	78.831
2.0828	78.829
2.0820	78.785
2.0812	78.800
2.0803	78.824
2.0795	78.681
2.0760	78.681
2.0720	78.586
2.0680	78.425
2.0640	78.330
2.0600	78.454
2.0560	78.520
2.0520	78.548
2.0480	78.256
2.0440	78.096
2.0400	78.031
2.0360	77.741
2.0320	76.951
2.0280	76.666
2.0240	76.823
2.0200	76.857
2.0160	76.793
2.0120	76.696
2.0080	76.104
2.0040	75.607
2.0000	75.544
1.9960	75.266
1.9920	75.328
1.9880	75.297
1.9840	75.297
1.9800	75.173
1.9760	75.265
1.9720	75.020
1.9680	74.683
1.9640	74.195
1.9600	74.284
1.9560	74.252
1.9520	74.008
1.9480	73.856
1.9440	73.672
1.9400	73.640
1.9360	73.511
1.9320	73.468
1.9280	73.498
1.9240	73.400
1.9200	73.680
1.9160	73.712
1.9120	73.899
1.9080	74.085
1.9040	73.931
1.9000	74.008
1.8960	73.684
1.8920	73.387
1.8880	73.491
1.8840	73.256
1.8800	73.419
1.8760	73.556
1.8720	73.632
1.8680	73.382
1.8640	73.202
1.8600	73.034
1.8560	72.875
1.8520	73.120
1.8480	73.278
1.8440	73.386
1.8400	73.799
1.8360	73.795
1.8320	73.739
1.8280	73.482
1.8240	73.102
1.8200	72.246
1.8160	72.279
1.8120	72.376
1.8080	72.229
1.8040	72.042
1.8000	72.221
1.7960	71.757
1.7920	71.692
1.7880	71.390
1.7840	71.121
1.7800	71.414
1.7760	71.480
1.7720	71.188
1.7680	70.854
1.7640	70.497
1.7600	70.238
1.7560	69.826
1.7520	69.572
1.7480	69.641
1.7440	70.073
1.7400	70.272
1.7360	70.684
1.7320	70.582
1.7280	70.604
1.7240	70.514
1.7200	70.221
1.7160	69.494
1.7120	69.639
1.7080	69.807
1.7040	69.365
1.7000	68.656
1.6960	68.729
1.6920	68.567
1.6880	68.586
1.6840	67.678
1.6800	68.272
1.6760	68.684
1.6720	68.336
1.6680	67.246
1.6640	67.299
1.6600	67.441
1.6560	67.336
1.6520	66.806
1.6480	66.963
1.6440	67.438
1.6400	66.510
1.6360	66.331
1.6320	66.487
1.6280	66.383
1.6240	66.279
1.6200	66.086
1.6160	65.435
1.6120	65.028
1.6080	65.423
1.6040	65.410
1.6000	65.102
1.5960	64.949
1.5920	64.923
1.5880	64.154
1.5840	64.025
1.5800	64.226
1.5760	63.694
1.5720	63.414
1.5680	63.217
1.5640	62.963
1.5600	62.543
1.5560	62.181
1.5520	62.284
1.5480	62.032
1.5440	61.806
1.5400	61.480
1.5360	61.909
1.5320	61.605
1.5280	61.474
1.5240	61.510
1.5200	60.963
1.5160	60.691
1.5120	60.654
1.5080	60.989
1.5040	60.915
1.5000	60.667
1.4960	59.942
1.4920	59.338
1.4880	59.154
1.4840	59.063
1.4800	58.614
1.4760	58.346
1.4720	58.212
1.4680	58.484
1.4640	58.485
1.4600	57.855
1.4560	57.631
1.4520	57.318
1.4480	56.918
1.4440	56.735
1.4400	56.514
1.4360	56.331
1.4320	56.238
1.4280	56.061
1.4240	55.662
1.4200	55.349
1.4160	54.810
1.4120	54.210
1.4080	53.860
1.4040	53.250
1.4000	52.620
1.3960	52.570
1.3920	52.316
1.3880	52.165
1.3840	52.125
1.3800	52.519
1.3760	52.632
1.3720	52.043
1.3680	52.125
1.3640	52.043
1.3600	51.888
1.3560	51.261
1.3520	50.945
1.3480	50.682
1.3440	50.695
1.3400	50.328
1.3360	49.960
1.3320	49.650
1.3280	49.368
1.3240	48.967
1.3200	48.816
1.3160	48.431
1.3120	48.217
1.3080	47.770
1.3040	47.342
1.3000	47.075
1.2960	46.808
1.2920	46.465
1.2880	46.087
1.2840	45.990
1.2800	45.779
1.2760	45.623
1.2720	45.168
1.2680	44.815
1.2640	44.616
1.2600	44.708
1.2560	44.458
1.2520	44.185
1.2480	44.061
1.2440	43.682
1.2400	43.238
1.2360	42.907
1.2320	42.485
1.2280	42.521
1.2240	42.122
1.2200	41.729
1.2160	41.790
1.2120	41.426
1.2080	41.034
1.2040	40.673
1.2000	40.492
1.1960	40.110
1.1920	39.843
1.1880	39.383
1.1840	39.175
1.1800	39.057
1.1760	38.794
1.1720	38.650
1.1680	38.471
1.1640	38.034
1.1600	37.747
1.1560	37.702
1.1520	37.458
1.1480	37.402
1.1440	37.157
1.1400	37.183
1.1360	36.750
1.1320	36.491
1.1280	36.426
1.1240	36.323
1.1200	35.968
1.1160	35.722
1.1120	35.509
1.1080	35.393
1.1040	35.474
1.1000	35.391
1.0960	35.368
1.0920	35.218
1.0880	35.202
1.0840	35.078
1.0800	34.626
1.0760	34.699
1.0720	34.339
1.0680	34.140
1.0640	33.993
1.0600	34.088
1.0560	33.810
1.0520	33.674
1.0480	33.360
1.0440	33.411
1.0400	33.346
1.0360	33.734
1.0320	33.461
1.0280	33.369
1.0240	33.234
1.0200	32.871
1.0160	33.076
1.0120	32.556
1.0080	32.736
1.0040	32.781
1.0000	32.488
0.99600	32.118
0.99200	32.085
0.98800	32.085
0.98400	31.782
0.98000	31.759
0.97600	31.667
0.97200	31.538
0.96800	31.328
0.96400	31.323
0.96000	31.057
0.95600	30.897
0.95200	30.654
0.94800	30.384
0.94400	30.384
0.94000	30.073
0.93600	30.032
0.93200	29.963
0.92800	29.842
0.92400	29.763
0.92000	29.574
0.91600	29.545
0.91200	29.436
0.90800	29.296
0.90400	29.168
0.90000	29.117
0.89600	29.098
0.89200	28.919
0.88800	28.938
0.88400	28.798
0.88000	28.699
0.87600	28.846
0.87200	28.892
0.86800	28.763
0.86400	28.640
0.86000	28.843
0.85600	28.737
0.85200	28.665
0.84800	28.870
0.84400	28.724
0.84000	28.724
0.83600	28.821
0.83200	28.575
0.82800	28.646
0.82400	28.679
0.82000	28.977
0.81600	28.720
0.81200	28.444
0.80800	28.662
0.80400	28.894
0.80000	28.836
0.79900	28.836
0.79800	28.836
0.79700	28.815
0.79600	28.761
0.79500	28.761
0.79400	28.834
0.79300	28.815
0.79200	28.544
0.79100	28.520
0.79000	28.856
0.78900	28.544
0.78800	28.404
0.78700	28.426
0.78600	28.265
0.78500	28.252
0.78400	28.444
0.78300	28.444
0.78200	28.244
0.78100	28.047
0.78000	28.153
0.77900	28.216
0.77800	28.174
0.77700	27.937
0.77600	27.780
0.77500	27.930
0.77400	27.833
0.77300	27.736
0.77200	27.712
0.77100	27.619
0.77000	27.465
0.76900	27.517
0.76800	27.712
0.76700	27.837
0.76600	27.643
0.76500	27.443
0.76400	27.651
0.76300	27.428
0.76200	27.293
0.76100	27.519
0.76000	27.269
0.75900	27.209
0.75800	27.016
0.75700	27.016
0.75600	26.999
0.75500	26.982
0.75400	27.192
0.75300	26.842
0.75200	26.862
0.75100	26.765
0.75000	26.629
0.74900	26.708
0.74800	26.708
0.74700	26.514
0.74600	26.475
0.74500	26.708
0.74400	26.682
0.74300	26.301
0.74200	26.662
0.74100	26.783
0.74000	26.590
0.73900	26.301
0.73800	26.106
0.73700	26.030
0.73600	26.353
0.73500	26.223
0.73400	26.301
0.73300	26.179
0.73200	26.313
0.73100	26.292
0.73000	26.043
0.72900	25.965
0.72800	26.121
0.72700	26.101
0.72600	26.160
0.72500	26.160
0.72400	26.082
0.72300	25.984
0.72200	26.021
0.72100	25.907
0.72000	25.812
0.71900	26.120
0.71800	25.943
0.71700	26.021
0.71600	25.942
0.71500	26.021
0.71400	26.021
0.71300	25.964
0.71200	25.979
0.71100	25.825
0.71000	25.903
0.70900	25.942
0.70800	25.883
0.70700	25.669
0.70600	25.610
0.70500	25.727
0.70400	25.883
0.70300	25.823
0.70200	25.823
0.70100	25.729
0.70000	25.824
0.69900	26.099
0.69800	25.940
0.69700	26.020
0.69600	25.840
0.69500	25.780
0.69400	25.780
0.69300	25.860
0.69200	25.801
0.69100	26.080
0.69000	25.860
0.68900	26.020
0.68800	25.880
0.68700	25.880
0.68600	25.880
0.68500	25.920
0.68400	25.880
0.68300	25.880
0.68200	25.860
0.68100	25.960
0.68000	25.920
0.67900	26.040
0.67800	26.020
0.67700	25.780
0.67600	26.080
0.67500	26.241
0.67400	26.040
0.67300	26.141
0.67200	25.960
0.67100	26.282
0.67000	26.363
0.66900	26.081
0.66800	25.959
0.66700	26.161
0.66600	26.241
0.66500	26.221
0.66400	25.860
0.66300	25.840
0.66200	26.221
0.66100	26.020
0.66000	26.081
0.65900	26.487
0.65800	26.487
0.65700	26.343
0.65600	26.442
0.65500	26.262
0.65400	26.321
0.65300	26.280
0.65200	26.280
0.65100	26.240
0.65000	26.100
0.64900	26.040
0.64800	26.238
0.64700	26.362
0.64600	26.689
0.64500	26.587
0.64400	26.689
0.64300	26.748
0.64200	26.944
0.64100	26.522
0.64000	26.668
0.63900	26.829
0.63800	26.564
0.63700	26.560
0.63600	26.698
0.63500	26.760
0.63400	26.781
0.63300	26.660
0.63200	26.440
0.63100	26.743
0.63000	26.781
0.62900	26.839
0.62800	26.619
0.62700	26.719
0.62600	27.039
0.62500	27.246
0.62400	27.425
0.62300	26.960
0.62200	26.818
0.62100	27.096
0.62000	27.167
0.61900	27.419
0.61800	27.223
0.61700	27.259
0.61600	27.296
0.61500	27.253
0.61400	27.167
0.61300	27.081
0.61200	27.353
0.61100	27.397
0.61000	27.375
0.60900	27.656
0.60800	27.634
0.60700	27.533
0.60600	27.373
0.60500	27.554
0.60400	27.453
0.60300	27.599
0.60200	27.665
0.60100	27.672
0.60000	27.600
0.59900	27.564
0.59800	27.623
0.59700	27.734
0.59600	27.698
0.59500	27.603
0.59400	27.461
0.59300	27.536
0.59200	27.805
0.59100	27.886
0.59000	27.986
0.58900	28.024
0.58800	28.219
0.58700	28.173
0.58600	28.219
0.58500	28.331
0.58400	28.033
0.58300	28.082
0.58200	28.387
0.58100	28.467
0.58000	28.540
0.57900	28.586
0.57800	28.356
0.57700	28.264
0.57600	28.470
0.57500	28.596
0.57400	28.755
0.57300	28.613
0.57200	28.711
0.57100	28.804
0.57000	28.711
0.56900	28.687
0.56800	28.789
0.56700	28.982
0.56600	29.007
0.56500	29.085
0.56400	29.038
0.56300	29.132
0.56200	29.007
0.56100	29.108
0.56000	29.411
0.55900	29.196
0.55800	28.043
0.55700	28.294
0.55600	28.350
0.55500	28.405
0.55400	28.350
0.55300	28.447
0.55200	28.416
0.55100	28.184
0.55000	28.052
0.54900	28.483
0.54800	28.349
0.54700	28.228
0.54600	28.438
0.54500	28.683
0.54400	28.593
0.54300	28.628
0.54200	28.851
0.54100	28.550
0.54000	28.450
0.53900	28.708
0.53800	28.732
0.53700	28.663
0.53600	28.663
0.53500	28.640
0.53400	28.584
0.53300	28.360
0.53200	28.206
0.53100	28.184
0.53000	28.128
0.52900	28.039
0.52800	28.270
0.52700	28.248
0.52600	28.448
0.52500	28.348
0.52400	28.392
0.52300	28.627
0.52200	28.550
0.52100	28.427
0.52000	28.358
0.51900	28.335
0.51800	28.270
0.51700	28.191
0.51600	28.370
0.51500	28.336
0.51400	28.169
0.51300	28.291
0.51200	28.160
0.51100	27.939
0.51000	28.025
0.50900	27.882
0.50800	28.090
0.50700	28.120
0.50600	27.793
0.50500	27.729
0.50400	27.671
0.50300	27.879
0.50200	27.795
0.50100	27.984
0.50000	28.004
0.49900	27.587
0.49800	27.326
0.49700	27.347
0.49600	27.063
0.49500	27.326
0.49400	26.983
0.49300	27.145
0.49200	27.148
0.49100	27.253
0.49000	27.148
0.48900	27.147
0.48800	27.064
0.48700	26.942
0.48600	26.881
0.48500	26.635
0.48400	26.841
0.48300	26.800
0.48200	26.699
0.48100	26.497
0.48000	26.265
0.47900	26.509
0.47800	26.466
0.47700	26.148
0.47600	26.124
0.47500	26.085
0.47400	26.202
0.47300	25.752
0.47200	25.612
0.47100	25.556
0.47000	25.454
0.46900	25.324
0.46800	25.435
0.46700	25.158
0.46600	24.771
0.46500	24.938
0.46400	25.046
0.46300	24.861
0.46200	24.813
0.46100	24.620
0.46000	24.227
0.45900	24.889
0.45800	25.100
0.45700	24.846
0.45600	24.881
0.45500	24.622
0.45400	24.499
0.45300	24.535
0.45200	24.397
0.45100	24.124
0.45000	24.209
0.44900	24.466
0.44800	24.103
0.44700	24.017
0.44600	23.804
0.44500	23.490
0.44400	23.907
0.44300	23.586
0.44200	23.230
0.44100	23.538
0.44000	23.530
0.43900	23.354
0.43800	23.730
0.43700	23.605
0.43600	23.610
0.43500	23.642
0.43400	23.533
0.43300	23.094
0.43200	22.900
0.43100	22.946
0.43000	23.081
0.42900	22.911
0.42800	22.550
0.42700	22.448
0.42600	22.416
0.42500	22.063
0.42400	22.196
0.42300	22.067
0.42200	21.767
0.42100	21.788
0.42000	21.784
0.41900	21.497
0.41800	21.444
0.41700	21.275
0.41600	21.059
0.41500	21.157
0.41400	20.891
0.41300	20.731
0.41200	20.569
0.41100	20.405
0.41000	20.190
0.40900	20.229
0.40800	20.263
0.40700	20.274
0.40600	19.866
0.40500	19.739
0.40400	19.771
0.40300	19.771
0.40200	19.782
0.40100	19.700
0.40000	19.814
