Name: Nepheline Syenite
Type: Rocks
Class: Igneous
Subclass: Intermediate
Particle Size: 0-75 micrometers
Sample No.: Syenite.H2
Owner: JHU
Wavelength range: All
Origin: Blue Mountain, Methuen Twp., Ontario, via Ward's Scientific (Cat. 
No. W-17)
Description: Sample from which powder was derived is a medium-grained 
leucocratic rock showing some foliation, consisting of plagioclase, nepheline 
and biotite.



Measurement: Directional (10 degree) hemispherical reflectance
First Column: X
Second Column: Y
X Units: Wavelength (micrometers)
Y Units: Reflectance (percent)
First X Value: 14.0112
Last X Value: 0.4000
Number of X Values: 2844
Additional information: syenit2a.txt

14.011	1.6237
13.973	0.8925
13.936	0.0000
13.899	0.0000
13.861	1.4475
13.824	0.9075
13.788	0.8625
13.751	1.7850
13.715	0.6825
13.679	0.1013
13.643	1.7194
13.607	2.6794
13.571	2.6268
13.536	2.4150
13.500	1.9912
13.465	1.4363
13.430	1.1738
13.396	1.3538
13.361	1.0912
13.327	1.5581
13.293	1.4587
13.259	1.0472
13.225	1.0013
13.191	1.5909
13.158	2.0194
13.124	1.3997
13.091	1.8084
13.058	2.5059
13.026	2.0550
12.993	2.5200
12.960	2.4366
12.928	1.7756
12.896	1.4512
12.864	1.5694
12.832	1.9444
12.800	2.0381
12.769	2.0925
12.737	2.1600
12.706	2.2013
12.675	2.2392
12.644	2.1797
12.614	2.5374
12.583	3.0417
12.552	3.5367
12.522	4.0880
12.492	4.6940
12.462	5.3053
12.432	5.8509
12.402	6.1763
12.373	6.5372
12.343	6.9618
12.314	7.3509
12.285	7.5590
12.256	8.0747
12.227	8.7998
12.198	9.1612
12.169	9.4893
12.141	9.5868
12.113	9.6206
12.084	9.9989
12.056	10.354
12.028	10.321
12.000	10.370
11.973	10.450
11.945	10.580
11.918	10.658
11.890	10.573
11.863	10.634
11.836	10.566
11.809	10.412
11.782	10.439
11.755	10.519
11.729	10.435
11.702	10.334
11.676	10.299
11.650	10.178
11.624	10.066
11.598	10.033
11.572	9.9567
11.546	9.8841
11.520	9.8761
11.495	9.9436
11.469	9.8283
11.444	9.7308
11.419	9.6787
11.394	9.6876
11.369	9.5535
11.344	9.4031
11.319	9.4223
11.294	9.3605
11.270	9.2582
11.245	9.1397
11.221	9.0311
11.197	8.8306
11.173	8.6580
11.149	8.4792
11.125	8.2758
11.101	8.1773
11.077	7.9969
11.054	7.8246
11.030	7.7890
11.007	7.7250
10.983	7.5340
10.960	7.3387
10.937	7.2070
10.914	7.0350
10.891	6.8402
10.868	6.7542
10.846	6.5460
10.823	6.3516
10.800	6.2665
10.778	6.1596
10.755	5.9657
10.733	5.7349
10.711	5.5600
10.689	5.3428
10.667	5.1276
10.645	5.0632
10.623	4.9418
10.602	4.7555
10.580	4.6369
10.558	4.5410
10.537	4.4015
10.516	4.3013
10.494	4.2488
10.473	4.1317
10.452	3.9902
10.431	3.8670
10.410	3.7716
10.389	3.8116
10.368	3.8995
10.348	3.9553
10.327	3.9933
10.306	3.9178
10.286	3.8917
10.266	3.9537
10.245	4.0584
10.225	4.0764
10.205	4.1149
10.185	4.2907
10.165	4.3579
10.145	4.3959
10.125	4.4423
10.106	4.5106
10.086	4.6498
10.066	4.7964
10.047	4.7875
10.027	4.7486
10.008	4.7231
9.9887	4.8340
9.9695	4.8712
9.9504	4.8787
9.9313	4.8361
9.9123	4.7768
9.8934	4.7955
9.8746	4.7909
9.8558	4.6802
9.8371	4.5228
9.8185	4.4238
9.7999	4.3760
9.7814	4.3406
9.7630	4.3092
9.7447	4.3727
9.7264	4.4805
9.7082	4.4843
9.6900	4.5047
9.6719	4.5631
9.6539	4.5396
9.6360	4.5431
9.6181	4.5958
9.6003	4.5945
9.5825	4.5900
9.5649	4.5335
9.5472	4.4147
9.5297	4.3045
9.5122	4.1196
9.4948	3.8948
9.4774	3.8789
9.4601	3.7807
9.4429	3.6176
9.4257	3.5559
9.4086	3.4205
9.3916	3.3103
9.3746	3.2730
9.3577	3.2083
9.3408	3.2112
9.3240	3.2789
9.3073	3.2296
9.2906	3.1524
9.2740	3.2587
9.2574	3.4153
9.2409	3.4481
9.2245	3.3340
9.2081	3.2873
9.1918	3.4013
9.1755	3.4938
9.1593	3.3443
9.1431	3.3180
9.1270	3.2784
9.1110	3.1896
9.0950	3.0075
9.0791	2.8699
9.0632	2.8104
9.0474	2.8137
9.0316	2.8045
9.0159	2.7689
9.0003	2.7743
8.9847	2.7977
8.9691	2.7891
8.9536	2.8680
8.9382	2.8945
8.9228	2.9320
8.9075	3.0150
8.8922	3.0351
8.8770	3.0904
8.8618	3.0774
8.8467	3.1315
8.8316	3.2922
8.8166	3.3166
8.8016	3.3288
8.7867	3.3740
8.7718	3.4701
8.7570	3.5112
8.7422	3.5599
8.7275	3.6797
8.7129	3.7743
8.6982	3.8187
8.6837	3.8104
8.6692	3.8960
8.6547	3.9621
8.6403	3.9478
8.6259	3.9778
8.6116	3.9958
8.5973	3.9799
8.5830	3.9937
8.5688	4.0385
8.5547	4.0432
8.5406	3.9689
8.5266	3.9572
8.5126	3.9778
8.4986	3.9755
8.4847	3.9684
8.4708	4.0406
8.4570	4.0425
8.4432	4.0332
8.4295	4.1081
8.4158	4.1353
8.4022	4.0945
8.3886	4.0613
8.3750	4.0842
8.3615	4.0551
8.3481	4.0021
8.3347	3.9234
8.3213	3.8582
8.3079	3.7997
8.2946	3.7340
8.2814	3.6774
8.2682	3.5756
8.2550	3.4776
8.2419	3.4083
8.2288	3.3138
8.2158	3.2020
8.2028	3.0853
8.1898	2.8690
8.1769	2.6852
8.1640	2.5652
8.1512	2.4818
8.1384	2.3351
8.1256	2.1872
8.1129	2.0977
8.1002	1.9631
8.0876	1.8010
8.0750	1.7428
8.0624	1.7058
8.0499	1.5912
8.0374	1.4813
8.0250	1.3725
8.0126	1.2816
8.0002	1.2258
7.9879	1.1738
7.9756	1.0823
7.9634	1.0312
7.9512	1.0143
7.9390	0.9987
7.9268	0.9841
7.9147	0.9828
7.9027	0.9462
7.8906	0.8714
7.8786	0.8602
7.8667	0.8901
7.8548	0.9220
7.8429	0.9431
7.8310	0.9413
7.8192	0.9140
7.8075	0.9637
7.7957	1.0026
7.7840	1.0122
7.7723	1.0280
7.7607	1.0643
7.7491	1.1008
7.7375	1.0980
7.7260	1.1290
7.7145	1.1855
7.7031	1.2567
7.6916	1.3029
7.6802	1.3645
7.6689	1.4250
7.6575	1.4452
7.6462	1.4995
7.6350	1.6080
7.6238	1.6828
7.6126	1.7161
7.6014	1.7818
7.5903	1.8665
7.5792	1.9524
7.5681	2.0046
7.5571	2.0590
7.5461	2.1253
7.5351	2.2172
7.5242	2.3147
7.5133	2.3892
7.5024	2.4511
7.4916	2.5429
7.4807	2.6192
7.4700	2.7037
7.4592	2.8041
7.4485	2.9037
7.4378	2.9515
7.4272	2.9953
7.4165	3.0543
7.4059	3.0795
7.3954	3.1524
7.3848	3.2179
7.3743	3.2747
7.3639	3.3363
7.3534	3.4156
7.3430	3.4449
7.3326	3.5325
7.3223	3.6251
7.3119	3.6759
7.3016	3.7236
7.2914	3.7992
7.2811	3.8374
7.2709	3.8292
7.2607	3.8709
7.2506	3.9553
7.2404	4.0106
7.2303	4.0252
7.2203	4.0760
7.2102	4.1662
7.2002	4.1981
7.1902	4.2192
7.1803	4.2708
7.1703	4.3924
7.1604	4.5206
7.1506	4.6163
7.1407	4.7109
7.1309	4.8374
7.1211	4.9645
7.1113	5.0688
7.1016	5.1806
7.0919	5.3224
7.0822	5.4569
7.0725	5.6198
7.0629	5.7501
7.0533	5.8332
7.0437	5.9742
7.0341	6.1078
7.0246	6.1725
7.0151	6.2569
7.0056	6.3371
6.9962	6.3314
6.9867	6.3670
6.9773	6.4413
6.9679	6.5166
6.9586	6.6389
6.9493	6.7908
6.9400	6.9035
6.9307	6.9710
6.9214	7.0978
6.9122	7.2013
6.9030	7.2940
6.8938	7.4034
6.8847	7.4667
6.8755	7.5351
6.8664	7.6080
6.8573	7.6003
6.8483	7.5665
6.8393	7.5445
6.8302	7.5249
6.8213	7.4943
6.8123	7.5028
6.8034	7.5023
6.7944	7.4501
6.7855	7.4306
6.7767	7.3992
6.7678	7.3997
6.7590	7.4602
6.7502	7.4868
6.7414	7.5351
6.7327	7.6181
6.7239	7.7245
6.7152	7.8647
6.7065	8.0095
6.6979	8.0774
6.6892	8.1366
6.6806	8.1998
6.6720	8.2139
6.6634	8.2068
6.6549	8.2985
6.6464	8.4150
6.6378	8.5117
6.6294	8.6221
6.6209	8.7778
6.6124	8.9264
6.6040	9.0722
6.5956	9.2517
6.5872	9.4579
6.5789	9.6131
6.5705	9.8325
6.5622	10.065
6.5539	10.245
6.5456	10.393
6.5374	10.522
6.5292	10.649
6.5209	10.797
6.5128	10.910
6.5046	10.999
6.4964	11.134
6.4883	11.208
6.4802	11.254
6.4721	11.344
6.4640	11.444
6.4560	11.499
6.4480	11.539
6.4399	11.533
6.4320	11.523
6.4240	11.502
6.4160	11.481
6.4081	11.438
6.4002	11.352
6.3923	11.264
6.3844	11.206
6.3766	11.110
6.3687	11.013
6.3609	10.941
6.3531	10.851
6.3454	10.793
6.3376	10.739
6.3299	10.701
6.3221	10.657
6.3144	10.630
6.3068	10.657
6.2991	10.632
6.2914	10.600
6.2838	10.653
6.2762	10.717
6.2686	10.735
6.2611	10.712
6.2535	10.680
6.2460	10.689
6.2385	10.672
6.2310	10.659
6.2235	10.662
6.2160	10.624
6.2086	10.575
6.2011	10.516
6.1937	10.428
6.1863	10.390
6.1790	10.337
6.1716	10.207
6.1643	10.054
6.1570	9.9600
6.1496	9.9436
6.1424	9.9642
6.1351	9.9628
6.1278	9.9867
6.1206	10.070
6.1134	10.221
6.1062	10.399
6.0990	10.617
6.0918	10.862
6.0847	11.067
6.0776	11.248
6.0704	11.380
6.0633	11.479
6.0563	11.631
6.0492	11.800
6.0421	11.818
6.0351	11.848
6.0281	11.999
6.0211	12.066
6.0141	12.112
6.0071	12.227
6.0002	12.300
5.9932	12.354
5.9863	12.447
5.9794	12.512
5.9725	12.571
5.9657	12.643
5.9588	12.649
5.9520	12.640
5.9451	12.693
5.9383	12.714
5.9315	12.634
5.9247	12.611
5.9180	12.632
5.9112	12.660
5.9045	12.718
5.8978	12.776
5.8911	12.763
5.8844	12.778
5.8777	12.815
5.8711	12.833
5.8644	12.949
5.8578	13.048
5.8512	13.097
5.8446	13.199
5.8380	13.262
5.8314	13.323
5.8249	13.367
5.8184	13.395
5.8118	13.401
5.8053	13.386
5.7988	13.357
5.7923	13.344
5.7859	13.334
5.7794	13.342
5.7730	13.329
5.7666	13.308
5.7602	13.293
5.7538	13.298
5.7474	13.249
5.7410	13.255
5.7347	13.299
5.7283	13.271
5.7220	13.254
5.7157	13.314
5.7094	13.370
5.7031	13.377
5.6969	13.402
5.6906	13.447
5.6844	13.476
5.6782	13.497
5.6719	13.486
5.6657	13.517
5.6596	13.548
5.6534	13.566
5.6472	13.669
5.6411	13.827
5.6349	13.963
5.6288	14.083
5.6227	14.267
5.6166	14.466
5.6106	14.551
5.6045	14.629
5.5984	14.715
5.5924	14.724
5.5864	14.659
5.5804	14.663
5.5744	14.687
5.5684	14.663
5.5624	14.776
5.5564	14.992
5.5505	15.211
5.5445	15.465
5.5386	15.809
5.5327	16.218
5.5268	16.624
5.5209	17.006
5.5151	17.405
5.5092	17.797
5.5033	18.138
5.4975	18.441
5.4917	18.710
5.4859	18.942
5.4801	19.154
5.4743	19.332
5.4685	19.496
5.4628	19.645
5.4570	19.795
5.4513	19.989
5.4455	20.218
5.4398	20.411
5.4341	20.652
5.4284	20.871
5.4228	21.139
5.4171	21.463
5.4114	21.784
5.4058	22.131
5.4002	22.472
5.3945	22.796
5.3889	23.111
5.3833	23.401
5.3778	23.629
5.3722	23.845
5.3666	24.066
5.3611	24.260
5.3555	24.460
5.3500	24.651
5.3445	24.780
5.3390	24.879
5.3335	24.976
5.3280	25.011
5.3225	25.082
5.3171	25.129
5.3116	25.141
5.3062	25.177
5.3008	25.187
5.2954	25.193
5.2900	25.213
5.2846	25.251
5.2792	25.311
5.2738	25.353
5.2684	25.357
5.2631	25.354
5.2578	25.281
5.2524	25.177
5.2471	25.095
5.2418	25.037
5.2365	25.039
5.2312	25.057
5.2260	25.102
5.2207	25.246
5.2154	25.406
5.2102	25.608
5.2050	25.775
5.1998	25.879
5.1945	26.015
5.1893	26.160
5.1842	26.287
5.1790	26.465
5.1738	26.691
5.1686	26.886
5.1635	27.053
5.1584	27.215
5.1532	27.374
5.1481	27.521
5.1430	27.638
5.1379	27.757
5.1328	27.920
5.1277	28.190
5.1227	28.379
5.1176	28.573
5.1126	28.878
5.1075	29.198
5.1025	29.471
5.0975	29.787
5.0925	30.144
5.0875	30.473
5.0825	30.798
5.0775	31.105
5.0726	31.416
5.0676	31.663
5.0627	31.827
5.0577	31.978
5.0528	32.112
5.0479	32.247
5.0430	32.367
5.0380	32.527
5.0332	32.750
5.0283	32.975
5.0234	33.207
5.0185	33.364
5.0137	33.467
5.0088	33.577
5.0040	33.685
4.9992	33.808
4.9944	33.954
4.9896	34.178
4.9848	34.500
4.9800	34.873
4.9752	35.218
4.9704	35.592
4.9657	35.909
4.9609	36.189
4.9562	36.428
4.9514	36.540
4.9467	36.550
4.9420	36.570
4.9373	36.552
4.9326	36.397
4.9279	36.194
4.9232	35.966
4.9186	35.715
4.9139	35.422
4.9092	35.239
4.9046	35.112
4.9000	35.119
4.8953	35.229
4.8907	35.375
4.8861	35.615
4.8815	35.851
4.8769	36.041
4.8723	36.298
4.8678	36.530
4.8632	36.739
4.8586	36.974
4.8541	37.170
4.8495	37.433
4.8450	37.732
4.8405	37.933
4.8360	38.117
4.8315	38.225
4.8270	38.247
4.8225	38.263
4.8180	38.233
4.8135	38.144
4.8090	38.019
4.8046	37.910
4.8001	37.722
4.7957	37.504
4.7913	37.295
4.7868	37.120
4.7824	37.058
4.7780	37.089
4.7736	37.163
4.7692	37.346
4.7648	37.596
4.7605	37.875
4.7561	38.198
4.7517	38.527
4.7474	38.854
4.7431	39.136
4.7387	39.469
4.7344	39.745
4.7301	39.948
4.7258	40.129
4.7215	40.320
4.7172	40.474
4.7129	40.566
4.7086	40.640
4.7043	40.785
4.7000	40.923
4.6958	41.047
4.6915	41.148
4.6873	41.237
4.6831	41.339
4.6788	41.497
4.6746	41.615
4.6704	41.701
4.6662	41.837
4.6620	41.981
4.6578	42.101
4.6536	42.187
4.6495	42.301
4.6453	42.532
4.6411	42.822
4.6370	43.077
4.6328	43.376
4.6287	43.681
4.6246	43.984
4.6205	44.315
4.6163	44.640
4.6122	44.898
4.6081	45.153
4.6040	45.448
4.6000	45.648
4.5959	45.757
4.5918	45.981
4.5877	46.254
4.5837	46.455
4.5796	46.652
4.5756	46.827
4.5716	47.055
4.5675	47.363
4.5635	47.699
4.5595	47.953
4.5555	48.179
4.5515	48.443
4.5475	48.742
4.5435	49.009
4.5395	49.228
4.5356	49.495
4.5316	49.780
4.5276	50.078
4.5237	50.315
4.5197	50.565
4.5158	50.812
4.5119	51.074
4.5080	51.358
4.5040	51.644
4.5001	51.916
4.4962	52.223
4.4923	52.525
4.4884	52.745
4.4846	52.933
4.4807	53.208
4.4768	53.539
4.4730	53.754
4.4691	53.966
4.4652	54.226
4.4614	54.438
4.4576	54.637
4.4537	54.819
4.4499	55.033
4.4461	55.204
4.4423	55.285
4.4385	55.377
4.4347	55.547
4.4309	55.692
4.4271	55.747
4.4233	55.882
4.4196	56.041
4.4158	56.192
4.4120	56.342
4.4083	56.449
4.4045	56.551
4.4008	56.674
4.3971	56.834
4.3934	57.000
4.3896	57.183
4.3859	57.354
4.3822	57.502
4.3785	57.638
4.3748	57.776
4.3711	57.960
4.3674	58.124
4.3638	58.219
4.3601	58.316
4.3564	58.496
4.3528	58.611
4.3491	58.690
4.3455	58.849
4.3418	59.063
4.3382	59.238
4.3346	59.405
4.3310	59.543
4.3273	59.676
4.3237	59.827
4.3201	60.069
4.3165	60.248
4.3129	60.399
4.3094	60.577
4.3058	60.701
4.3022	60.870
4.2986	61.053
4.2951	61.166
4.2915	61.248
4.2880	61.361
4.2844	61.618
4.2809	61.784
4.2774	61.831
4.2738	61.927
4.2703	62.083
4.2668	62.256
4.2633	62.447
4.2598	62.577
4.2563	62.687
4.2528	62.779
4.2493	62.844
4.2458	62.884
4.2424	62.924
4.2389	62.979
4.2354	63.064
4.2320	63.164
4.2285	63.266
4.2251	63.379
4.2216	63.475
4.2182	63.618
4.2148	63.818
4.2113	63.940
4.2079	64.002
4.2045	64.053
4.2011	64.141
4.1977	64.223
4.1943	64.254
4.1909	64.311
4.1875	64.380
4.1841	64.373
4.1808	64.365
4.1774	64.388
4.1740	64.426
4.1707	64.446
4.1673	64.409
4.1640	64.340
4.1606	64.289
4.1573	64.203
4.1540	64.137
4.1506	64.049
4.1473	63.939
4.1440	63.838
4.1407	63.811
4.1374	63.783
4.1341	63.713
4.1308	63.626
4.1275	63.603
4.1242	63.611
4.1209	63.668
4.1177	63.756
4.1144	63.880
4.1111	63.890
4.1079	63.897
4.1046	63.946
4.1014	63.930
4.0981	63.917
4.0949	63.908
4.0917	63.918
4.0884	63.992
4.0852	64.007
4.0820	64.066
4.0788	64.085
4.0756	64.064
4.0724	64.056
4.0692	64.098
4.0660	64.057
4.0628	63.973
4.0596	63.972
4.0565	63.980
4.0533	63.945
4.0501	63.883
4.0470	63.866
4.0438	63.874
4.0406	63.898
4.0375	64.032
4.0344	64.052
4.0312	64.028
4.0281	64.054
4.0250	64.064
4.0218	64.081
4.0187	64.130
4.0156	64.192
4.0125	64.219
4.0094	64.223
4.0063	64.279
4.0032	64.226
4.0001	64.138
3.9970	64.081
3.9940	64.111
3.9909	64.141
3.9878	64.141
3.9847	64.155
3.9817	64.162
3.9786	64.175
3.9756	64.188
3.9725	64.214
3.9695	64.222
3.9665	64.226
3.9634	64.255
3.9604	64.290
3.9574	64.321
3.9544	64.377
3.9513	64.496
3.9483	64.569
3.9453	64.599
3.9423	64.677
3.9393	64.758
3.9363	64.816
3.9333	64.839
3.9304	64.821
3.9274	64.876
3.9244	64.908
3.9214	64.956
3.9185	65.012
3.9155	65.115
3.9126	65.230
3.9096	65.326
3.9067	65.447
3.9037	65.544
3.9008	65.604
3.8979	65.675
3.8949	65.693
3.8920	65.688
3.8891	65.720
3.8862	65.734
3.8833	65.762
3.8804	65.822
3.8775	65.827
3.8746	65.809
3.8717	65.812
3.8688	65.840
3.8659	65.848
3.8630	65.793
3.8601	65.642
3.8573	65.512
3.8544	65.461
3.8515	65.422
3.8487	65.394
3.8458	65.362
3.8430	65.318
3.8401	65.328
3.8373	65.399
3.8344	65.463
3.8316	65.454
3.8288	65.504
3.8259	65.631
3.8231	65.717
3.8203	65.778
3.8175	65.795
3.8147	65.852
3.8119	65.923
3.8091	65.967
3.8063	65.988
3.8035	66.011
3.8007	66.075
3.7979	66.063
3.7951	66.065
3.7924	66.101
3.7896	66.134
3.7868	66.160
3.7841	66.155
3.7813	66.133
3.7785	66.148
3.7758	66.147
3.7730	66.174
3.7703	66.192
3.7676	66.171
3.7648	66.149
3.7621	66.200
3.7594	66.217
3.7566	66.202
3.7539	66.176
3.7512	66.168
3.7485	66.197
3.7458	66.224
3.7431	66.257
3.7404	66.244
3.7377	66.213
3.7350	66.243
3.7323	66.203
3.7296	66.109
3.7269	66.097
3.7242	66.160
3.7216	66.143
3.7189	66.093
3.7162	66.110
3.7136	66.055
3.7109	66.005
3.7083	66.019
3.7056	65.956
3.7030	65.977
3.7003	65.990
3.6977	65.917
3.6950	65.843
3.6924	65.841
3.6898	65.840
3.6872	65.818
3.6845	65.761
3.6819	65.762
3.6793	65.717
3.6767	65.637
3.6741	65.577
3.6715	65.557
3.6689	65.572
3.6663	65.524
3.6637	65.435
3.6611	65.434
3.6585	65.414
3.6560	65.328
3.6534	65.226
3.6508	65.161
3.6482	65.109
3.6457	65.018
3.6431	64.888
3.6406	64.783
3.6380	64.673
3.6355	64.537
3.6329	64.395
3.6304	64.305
3.6278	64.217
3.6253	64.161
3.6227	64.095
3.6202	64.103
3.6177	64.215
3.6152	64.238
3.6127	64.208
3.6101	64.187
3.6076	64.145
3.6051	64.072
3.6026	64.062
3.6001	64.055
3.5976	63.957
3.5951	63.948
3.5926	63.929
3.5901	63.808
3.5876	63.699
3.5852	63.689
3.5827	63.625
3.5802	63.556
3.5777	63.478
3.5753	63.312
3.5728	63.238
3.5704	63.202
3.5679	63.147
3.5654	63.089
3.5630	63.005
3.5605	62.858
3.5581	62.752
3.5557	62.725
3.5532	62.674
3.5508	62.526
3.5484	62.391
3.5459	62.306
3.5435	62.218
3.5411	62.115
3.5387	62.042
3.5363	61.983
3.5338	61.900
3.5314	61.776
3.5290	61.658
3.5266	61.596
3.5242	61.496
3.5218	61.340
3.5195	61.173
3.5171	61.028
3.5147	60.902
3.5123	60.695
3.5099	60.612
3.5075	60.596
3.5052	60.513
3.5028	60.359
3.5004	60.226
3.4981	60.153
3.4957	60.098
3.4934	60.015
3.4910	59.987
3.4887	59.942
3.4863	59.822
3.4840	59.787
3.4816	59.749
3.4793	59.628
3.4770	59.507
3.4746	59.417
3.4723	59.312
3.4700	59.355
3.4677	59.333
3.4653	59.152
3.4630	59.067
3.4607	59.070
3.4584	58.970
3.4561	58.861
3.4538	58.852
3.4515	58.805
3.4492	58.674
3.4469	58.620
3.4446	58.566
3.4423	58.480
3.4400	58.439
3.4378	58.377
3.4355	58.295
3.4332	58.182
3.4309	58.103
3.4287	58.006
3.4264	57.844
3.4241	57.703
3.4219	57.597
3.4196	57.508
3.4174	57.365
3.4151	57.213
3.4129	57.109
3.4106	57.067
3.4084	57.058
3.4061	56.985
3.4039	56.861
3.4017	56.826
3.3994	56.740
3.3972	56.641
3.3950	56.547
3.3928	56.478
3.3906	56.397
3.3883	56.353
3.3861	56.266
3.3839	56.133
3.3817	56.068
3.3795	55.938
3.3773	55.768
3.3751	55.700
3.3729	55.669
3.3707	55.569
3.3685	55.416
3.3663	55.377
3.3641	55.326
3.3620	55.172
3.3598	55.072
3.3576	54.911
3.3554	54.771
3.3533	54.655
3.3511	54.535
3.3489	54.408
3.3468	54.335
3.3446	54.258
3.3425	54.159
3.3403	54.000
3.3382	53.850
3.3360	53.806
3.3339	53.780
3.3317	53.652
3.3296	53.515
3.3274	53.394
3.3253	53.291
3.3232	53.184
3.3210	53.029
3.3189	52.898
3.3168	52.833
3.3147	52.727
3.3126	52.672
3.3104	52.586
3.3083	52.390
3.3062	52.219
3.3041	52.144
3.3020	52.096
3.2999	52.016
3.2978	51.872
3.2957	51.711
3.2936	51.564
3.2915	51.441
3.2894	51.323
3.2874	51.155
3.2853	51.011
3.2832	50.931
3.2811	50.839
3.2790	50.650
3.2770	50.527
3.2749	50.473
3.2728	50.405
3.2708	50.250
3.2687	50.108
3.2666	49.944
3.2646	49.859
3.2625	49.790
3.2605	49.640
3.2584	49.482
3.2564	49.360
3.2543	49.275
3.2523	49.186
3.2503	49.023
3.2482	48.878
3.2462	48.802
3.2442	48.693
3.2421	48.632
3.2401	48.526
3.2381	48.420
3.2361	48.349
3.2340	48.258
3.2320	48.217
3.2300	48.150
3.2280	48.016
3.2260	47.926
3.2240	47.877
3.2220	47.796
3.2200	47.650
3.2180	47.560
3.2160	47.445
3.2140	47.420
3.2120	47.416
3.2100	47.344
3.2080	47.260
3.2060	47.138
3.2040	47.027
3.2021	47.009
3.2001	46.874
3.1981	46.702
3.1961	46.679
3.1942	46.625
3.1922	46.526
3.1902	46.463
3.1883	46.338
3.1863	46.168
3.1844	46.079
3.1824	46.069
3.1805	46.036
3.1785	45.883
3.1766	45.720
3.1746	45.563
3.1727	45.513
3.1707	45.399
3.1688	45.297
3.1669	45.196
3.1649	45.096
3.1630	44.995
3.1611	44.898
3.1591	44.735
3.1572	44.680
3.1553	44.594
3.1534	44.426
3.1515	44.339
3.1495	44.238
3.1476	44.060
3.1457	43.957
3.1438	43.848
3.1419	43.679
3.1400	43.540
3.1381	43.436
3.1362	43.321
3.1343	43.155
3.1324	43.057
3.1305	42.914
3.1286	42.822
3.1268	42.716
3.1249	42.559
3.1230	42.467
3.1211	42.370
3.1192	42.246
3.1174	42.052
3.1155	41.848
3.1136	41.797
3.1117	41.738
3.1099	41.544
3.1080	41.414
3.1061	41.368
3.1043	41.204
3.1024	41.051
3.1006	40.929
3.0987	40.684
3.0969	40.583
3.0950	40.500
3.0932	40.228
3.0913	39.993
3.0895	39.879
3.0876	39.748
3.0858	39.484
3.0840	39.225
3.0821	39.126
3.0803	39.031
3.0785	38.799
3.0766	38.586
3.0748	38.355
3.0730	38.137
3.0712	37.874
3.0694	37.596
3.0675	37.354
3.0657	37.146
3.0639	36.897
3.0621	36.562
3.0603	36.296
3.0585	36.087
3.0567	35.911
3.0549	35.739
3.0531	35.458
3.0513	35.249
3.0495	35.161
3.0477	34.954
3.0459	34.735
3.0441	34.618
3.0423	34.607
3.0406	34.588
3.0388	34.670
3.0370	34.801
3.0352	34.862
3.0334	34.990
3.0317	35.257
3.0299	35.383
3.0281	35.557
3.0264	35.776
3.0246	35.997
3.0228	36.239
3.0211	36.429
3.0193	36.543
3.0176	36.705
3.0158	36.853
3.0140	36.884
3.0123	37.045
3.0105	37.198
3.0088	37.237
3.0070	37.250
3.0053	37.368
3.0036	37.491
3.0018	37.468
3.0001	37.492
2.9984	37.555
2.9966	37.704
2.9949	37.724
2.9932	37.651
2.9914	37.586
2.9897	37.572
2.9880	37.554
2.9863	37.611
2.9845	37.572
2.9828	37.570
2.9811	37.553
2.9794	37.500
2.9777	37.526
2.9760	37.521
2.9743	37.457
2.9726	37.506
2.9709	37.484
2.9692	37.365
2.9675	37.381
2.9658	37.399
2.9641	37.249
2.9624	37.251
2.9607	37.312
2.9590	37.283
2.9573	37.261
2.9556	37.238
2.9539	37.277
2.9523	37.348
2.9506	37.238
2.9489	37.159
2.9472	37.240
2.9455	37.173
2.9439	37.146
2.9422	37.195
2.9405	37.217
2.9389	37.149
2.9372	37.003
2.9355	36.853
2.9339	36.846
2.9322	36.871
2.9306	36.795
2.9289	36.736
2.9272	36.767
2.9256	36.771
2.9239	36.663
2.9223	36.559
2.9207	36.578
2.9190	36.584
2.9174	36.489
2.9157	36.476
2.9141	36.473
2.9124	36.428
2.9108	36.424
2.9092	36.317
2.9075	36.223
2.9059	36.308
2.9043	36.275
2.9027	36.177
2.9010	36.119
2.8994	36.052
2.8978	36.030
2.8962	36.100
2.8946	36.070
2.8929	35.974
2.8913	35.882
2.8897	35.805
2.8881	35.752
2.8865	35.747
2.8849	35.674
2.8833	35.593
2.8817	35.562
2.8801	35.505
2.8785	35.480
2.8769	35.487
2.8753	35.425
2.8737	35.360
2.8721	35.337
2.8705	35.376
2.8689	35.359
2.8673	35.256
2.8658	35.226
2.8642	35.223
2.8626	35.162
2.8610	35.069
2.8594	34.927
2.8579	34.931
2.8563	34.970
2.8547	34.931
2.8531	34.832
2.8516	34.707
2.8500	34.572
2.8484	34.473
2.8469	34.409
2.8453	34.409
2.8437	34.295
2.8422	34.131
2.8406	33.969
2.8391	33.894
2.8375	33.799
2.8360	33.644
2.8344	33.567
2.8329	33.566
2.8313	33.477
2.8298	33.427
2.8282	33.381
2.8267	33.363
2.8252	33.370
2.8236	33.464
2.8221	33.557
2.8205	33.525
2.8190	33.468
2.8175	33.556
2.8159	33.526
2.8144	33.568
2.8129	33.624
2.8114	33.628
2.8098	33.654
2.8083	33.757
2.8068	33.795
2.8053	33.889
2.8038	33.881
2.8022	33.923
2.8007	34.027
2.7992	33.986
2.7977	33.874
2.7962	33.724
2.7947	33.632
2.7932	33.448
2.7917	33.170
2.7902	32.903
2.7887	32.621
2.7872	32.392
2.7857	32.153
2.7842	31.927
2.7827	31.700
2.7812	31.712
2.7797	31.813
2.7782	31.860
2.7767	31.972
2.7752	31.948
2.7738	32.014
2.7723	32.200
2.7708	32.332
2.7693	32.462
2.7678	32.484
2.7664	32.608
2.7649	32.873
2.7634	33.037
2.7619	33.157
2.7605	33.331
2.7590	33.553
2.7575	33.879
2.7561	34.115
2.7546	34.348
2.7531	34.740
2.7517	35.112
2.7502	35.374
2.7488	35.846
2.7473	36.306
2.7458	36.663
2.7444	37.110
2.7429	37.560
2.7415	37.914
2.7400	38.321
2.7386	38.735
2.7371	39.075
2.7357	39.478
2.7343	40.021
2.7328	40.505
2.7314	41.137
2.7299	41.845
2.7285	42.766
2.7271	43.904
2.7256	45.169
2.7242	46.562
2.7228	48.025
2.7213	49.405
2.7199	50.708
2.7185	51.895
2.7171	53.025
2.7156	54.065
2.7142	54.987
2.7128	55.890
2.7114	56.916
2.7100	57.896
2.7085	58.719
2.7071	59.540
2.7057	60.305
2.7043	61.097
2.7029	61.852
2.7015	62.462
2.7001	62.931
2.6987	63.385
2.6973	63.844
2.6959	64.204
2.6945	64.459
2.6931	64.761
2.6917	64.975
2.6903	65.132
2.6889	65.290
2.6875	65.635
2.6861	66.038
2.6847	66.335
2.6833	66.561
2.6819	66.709
2.6805	67.023
2.6791	67.380
2.6778	67.517
2.6764	67.619
2.6750	67.906
2.6736	68.111
2.6722	68.366
2.6709	68.674
2.6695	68.937
2.6681	69.225
2.6667	69.497
2.6654	69.721
2.6640	69.898
2.6626	70.036
2.6613	69.991
2.6599	70.009
2.6585	70.228
2.6572	70.434
2.6558	70.599
2.6545	70.843
2.6531	70.925
2.6517	70.960
2.6504	71.104
2.6490	71.127
2.6477	71.188
2.6463	71.374
2.6450	71.470
2.6436	71.459
2.6423	71.455
2.6409	71.481
2.6396	71.596
2.6382	71.786
2.6369	71.865
2.6356	71.829
2.6342	71.887
2.6329	71.949
2.6315	72.106
2.6302	72.133
2.6289	72.218
2.6275	72.409
2.6262	72.454
2.6249	72.340
2.6236	72.324
2.6222	72.350
2.6209	72.452
2.6196	72.546
2.6183	72.572
2.6169	72.595
2.6156	72.670
2.6143	72.682
2.6130	72.551
2.6117	72.561
2.6103	72.658
2.6090	72.623
2.6077	72.603
2.6064	72.738
2.6051	72.771
2.6038	72.721
2.6025	72.730
2.6012	72.719
2.5999	72.648
2.5986	72.683
2.5973	72.694
2.5960	72.665
2.5947	72.652
2.5934	72.694
2.5921	72.660
2.5908	72.627
2.5895	72.667
2.5882	72.617
2.5869	72.647
2.5856	72.678
2.5843	72.681
2.5830	72.731
2.5817	72.692
2.5805	72.670
2.5792	72.756
2.5779	72.756
2.5766	72.557
2.5753	72.551
2.5741	72.671
2.5728	72.634
2.5715	72.609
2.5702	72.673
2.5690	72.732
2.5677	72.650
2.5664	72.574
2.5651	72.542
2.5639	72.657
2.5626	72.660
2.5613	72.538
2.5601	72.512
2.5588	72.443
2.5575	72.433
2.5563	72.530
2.5550	72.439
2.5538	72.335
2.5525	72.322
2.5513	72.268
2.5500	72.246
2.5487	72.178
2.5475	72.183
2.5462	72.361
2.5450	72.211
2.5437	72.133
2.5425	72.205
2.5413	72.200
2.5400	72.244
2.5388	72.354
2.5375	72.256
2.5363	72.232
2.5350	72.229
2.5338	72.252
2.5326	72.182
2.5313	72.085
2.5301	72.190
2.5289	72.220
2.5276	72.240
2.5264	72.293
2.5252	72.335
2.5239	72.392
2.5227	72.382
2.5215	72.381
2.5202	72.497
2.5190	72.492
2.5178	72.388
2.5166	72.379
2.5154	72.326
2.5141	72.362
2.5129	72.411
2.5117	72.499
2.5105	72.465
2.5093	72.538
2.5081	72.580
2.5068	72.495
2.5056	72.489
2.5044	72.508
2.5032	72.587
2.5020	72.583
2.5008	72.484
2.4996	72.550
2.4984	72.525
2.4972	72.561
2.4960	72.645
2.4948	72.655
2.4936	72.587
2.4924	72.401
2.4912	72.375
2.4900	72.563
2.4888	72.607
2.4876	72.551
2.4864	72.512
2.4852	72.574
2.4840	72.571
2.4828	72.649
2.4816	72.808
2.4805	72.799
2.4793	72.606
2.4781	72.673
2.4769	72.586
2.4757	72.658
2.4745	72.713
2.4734	72.750
2.4722	72.859
2.4710	72.735
2.4698	72.702
2.4686	72.684
2.4675	72.744
2.4663	72.962
2.4651	72.940
2.4640	72.823
2.4628	72.892
2.4616	72.955
2.4604	72.880
2.4593	72.911
2.4581	72.979
2.4569	72.991
2.4558	73.020
2.4546	73.066
2.4535	73.069
2.4523	73.052
2.4511	73.025
2.4500	73.040
2.4488	73.045
2.4477	73.041
2.4465	73.240
2.4454	73.399
2.4442	73.228
2.4431	72.953
2.4419	73.018
2.4408	73.108
2.4396	73.075
2.4385	73.151
2.4373	73.159
2.4362	73.204
2.4350	73.231
2.4339	73.271
2.4327	73.398
2.4316	73.266
2.4305	73.216
2.4293	73.292
2.4282	73.455
2.4270	73.566
2.4259	73.565
2.4248	73.554
2.4236	73.437
2.4225	73.549
2.4214	73.725
2.4202	73.853
2.4191	73.781
2.4180	73.760
2.4169	73.790
2.4157	73.890
2.4146	74.003
2.4135	74.010
2.4124	74.077
2.4112	74.172
2.4101	74.128
2.4090	74.194
2.4079	74.262
2.4068	74.364
2.4056	74.544
2.4045	74.599
2.4034	74.475
2.4023	74.579
2.4012	74.738
2.4001	74.727
2.3990	74.651
2.3979	74.749
2.3967	74.845
2.3956	74.813
2.3945	74.748
2.3934	74.766
2.3923	74.826
2.3912	74.837
2.3901	74.948
2.3890	75.052
2.3879	75.039
2.3868	75.123
2.3857	75.055
2.3846	74.886
2.3835	74.932
2.3824	75.056
2.3813	75.034
2.3802	75.000
2.3791	75.020
2.3781	75.128
2.3770	75.049
2.3759	74.955
2.3748	74.885
2.3737	74.884
2.3726	74.842
2.3715	74.907
2.3704	74.962
2.3694	74.953
2.3683	74.925
2.3672	75.054
2.3661	75.182
2.3650	75.195
2.3640	74.959
2.3629	74.803
2.3618	74.835
2.3607	74.996
2.3597	74.991
2.3586	74.905
2.3575	75.026
2.3564	75.037
2.3554	74.974
2.3543	74.979
2.3532	75.095
2.3522	75.294
2.3511	75.257
2.3500	75.197
2.3490	75.173
2.3479	75.293
2.3468	75.290
2.3458	75.342
2.3447	75.484
2.3436	75.617
2.3426	75.653
2.3415	75.622
2.3405	75.547
2.3394	75.560
2.3384	75.797
2.3373	75.906
2.3363	75.650
2.3352	75.702
2.3342	75.825
2.3331	75.964
2.3321	75.998
2.3310	75.960
2.3300	75.870
2.3289	75.861
2.3279	75.975
2.3268	75.949
2.3258	75.904
2.3247	75.956
2.3237	76.132
2.3226	76.168
2.3216	76.131
2.3206	76.130
2.3195	76.189
2.3185	76.213
2.3175	76.165
2.3164	76.125
2.3154	76.164
2.3144	76.220
2.3133	76.299
2.3123	76.226
2.3113	76.169
2.3102	76.250
2.3092	76.179
2.3082	76.084
2.3071	76.067
2.3061	76.087
2.3051	76.290
2.3041	76.342
2.3030	76.180
2.3020	76.151
2.3010	76.253
2.3000	76.353
2.2990	76.223
2.2979	76.125
2.2969	76.195
2.2959	76.163
2.2949	76.044
2.2939	76.050
2.2929	76.046
2.2918	76.143
2.2908	76.116
2.2898	76.024
2.2888	76.073
2.2878	76.074
2.2868	76.057
2.2858	76.089
2.2848	76.001
2.2838	76.003
2.2828	75.952
2.2818	75.917
2.2808	76.047
2.2798	76.093
2.2787	75.984
2.2777	76.032
2.2767	76.035
2.2757	75.895
2.2747	75.868
2.2738	75.962
2.2728	75.904
2.2718	75.778
2.2708	75.819
2.2698	75.759
2.2688	75.606
2.2678	75.573
2.2668	75.541
2.2658	75.546
2.2648	75.429
2.2638	75.195
2.2628	75.177
2.2618	75.205
2.2609	75.401
2.2599	75.539
2.2589	75.416
2.2579	75.253
2.2569	75.291
2.2559	75.486
2.2550	75.542
2.2540	75.609
2.2530	75.543
2.2520	75.511
2.2510	75.535
2.2501	75.693
2.2491	75.802
2.2481	75.865
2.2471	76.019
2.2462	75.845
2.2452	75.717
2.2442	75.805
2.2433	75.709
2.2423	75.679
2.2413	75.906
2.2403	76.019
2.2394	75.931
2.2384	75.863
2.2374	75.951
2.2365	76.087
2.2355	76.130
2.2345	76.078
2.2336	76.100
2.2326	76.053
2.2317	75.988
2.2307	76.110
2.2297	76.097
2.2288	76.127
2.2278	76.125
2.2269	76.055
2.2259	76.100
2.2250	76.114
2.2240	76.086
2.2231	76.038
2.2221	76.059
2.2211	76.049
2.2202	76.057
2.2192	76.005
2.2183	75.871
2.2173	75.883
2.2164	75.879
2.2155	75.921
2.2145	75.928
2.2136	75.900
2.2126	75.798
2.2117	75.645
2.2107	75.678
2.2098	75.521
2.2088	75.498
2.2079	75.640
2.2070	75.767
2.2060	75.679
2.2051	75.414
2.2041	75.311
2.2032	75.333
2.2023	75.339
2.2013	75.303
2.2004	75.346
2.1995	75.351
2.1985	75.357
2.1976	75.402
2.1967	75.223
2.1957	75.188
2.1948	75.381
2.1939	75.302
2.1930	75.256
2.1920	75.335
2.1911	75.395
2.1902	75.406
2.1893	75.503
2.1883	75.570
2.1874	75.519
2.1865	75.543
2.1856	75.635
2.1846	75.512
2.1837	75.509
2.1828	75.671
2.1819	75.720
2.1810	75.656
2.1800	75.641
2.1791	75.660
2.1782	75.687
2.1773	75.744
2.1764	75.830
2.1755	75.775
2.1746	75.702
2.1736	75.831
2.1727	75.906
2.1718	75.862
2.1709	75.846
2.1700	75.778
2.1691	75.718
2.1682	75.769
2.1673	75.932
2.1664	75.808
2.1655	75.669
2.1646	75.669
2.1637	75.683
2.1628	75.904
2.1619	75.812
2.1610	75.725
2.1601	75.751
2.1592	75.952
2.1583	75.939
2.1574	75.693
2.1565	75.603
2.1556	75.796
2.1547	75.874
2.1538	75.798
2.1529	75.692
2.1520	75.558
2.1511	75.491
2.1502	75.630
2.1493	75.758
2.1484	75.697
2.1475	75.718
2.1466	75.752
2.1458	75.618
2.1449	75.518
2.1440	75.593
2.1431	75.790
2.1422	75.856
2.1413	75.799
2.1404	75.800
2.1396	75.740
2.1387	75.766
2.1378	75.827
2.1369	75.821
2.1360	75.657
2.1352	75.655
2.1343	75.646
2.1334	75.722
2.1325	75.785
2.1316	75.785
2.1308	75.766
2.1299	75.598
2.1290	75.408
2.1281	75.465
2.1273	75.570
2.1264	75.602
2.1255	75.615
2.1247	75.333
2.1238	75.214
2.1229	75.404
2.1220	75.467
2.1212	75.434
2.1203	75.496
2.1194	75.538
2.1186	75.454
2.1177	75.439
2.1168	75.380
2.1160	75.366
2.1151	75.436
2.1143	75.353
2.1134	75.383
2.1125	75.356
2.1117	75.491
2.1108	75.394
2.1100	75.331
2.1091	75.399
2.1082	75.387
2.1074	75.447
2.1065	75.395
2.1057	75.293
2.1048	75.292
2.1040	75.211
2.1031	75.274
2.1023	75.360
2.1014	75.234
2.1005	75.304
2.0997	75.342
2.0988	75.217
2.0980	75.172
2.0971	75.163
2.0963	75.236
2.0955	75.373
2.0946	75.380
2.0938	75.293
2.0929	75.135
2.0921	75.062
2.0912	75.166
2.0904	75.210
2.0895	75.151
2.0887	75.030
2.0879	74.958
2.0870	74.994
2.0862	75.064
2.0853	75.009
2.0845	75.035
2.0837	75.131
2.0828	75.047
2.0820	75.046
2.0812	75.045
2.0803	75.135
2.0795	74.943
2.0760	74.943
2.0720	74.849
2.0680	74.356
2.0640	74.264
2.0600	74.356
2.0560	74.755
2.0520	74.880
2.0480	74.146
2.0440	73.934
2.0400	74.086
2.0360	73.754
2.0320	73.452
2.0280	73.571
2.0240	73.269
2.0200	72.915
2.0160	73.188
2.0120	72.904
2.0080	72.824
2.0040	72.137
2.0000	71.980
1.9960	72.162
1.9920	71.798
1.9880	71.683
1.9840	71.284
1.9800	71.228
1.9760	71.660
1.9720	71.478
1.9680	71.364
1.9640	70.765
1.9600	70.314
1.9560	70.301
1.9520	70.253
1.9480	70.149
1.9440	69.882
1.9400	69.577
1.9360	69.074
1.9320	68.860
1.9280	68.714
1.9240	68.031
1.9200	67.185
1.9160	67.080
1.9120	66.711
1.9080	66.364
1.9040	66.197
1.9000	66.526
1.8960	67.156
1.8920	67.738
1.8880	68.397
1.8840	69.189
1.8800	68.842
1.8760	69.043
1.8720	69.304
1.8680	68.708
1.8640	68.644
1.8600	68.416
1.8560	68.487
1.8520	68.753
1.8480	68.753
1.8440	68.995
1.8400	69.157
1.8360	69.336
1.8320	69.332
1.8280	69.386
1.8240	68.904
1.8200	68.832
1.8160	68.583
1.8120	68.590
1.8080	68.424
1.8040	68.177
1.8000	68.001
1.7960	68.237
1.7920	67.982
1.7880	67.736
1.7840	67.700
1.7800	67.439
1.7760	67.560
1.7720	67.524
1.7680	67.524
1.7640	67.733
1.7600	67.786
1.7560	67.733
1.7520	67.875
1.7480	67.928
1.7440	67.681
1.7400	67.431
1.7360	67.642
1.7320	67.605
1.7280	67.605
1.7240	67.605
1.7200	67.338
1.7160	66.700
1.7120	66.545
1.7080	66.577
1.7040	66.552
1.7000	66.236
1.6960	66.148
1.6920	66.009
1.6880	65.934
1.6840	65.744
1.6800	65.694
1.6760	65.619
1.6720	65.404
1.6680	65.316
1.6640	65.354
1.6600	65.215
1.6560	64.999
1.6520	64.896
1.6480	64.808
1.6440	64.858
1.6400	64.620
1.6360	64.361
1.6320	64.217
1.6280	64.277
1.6240	64.355
1.6200	64.277
1.6160	64.178
1.6120	63.815
1.6080	63.825
1.6040	64.220
1.6000	64.309
1.5960	63.894
1.5920	63.579
1.5880	63.247
1.5840	63.053
1.5800	62.957
1.5760	63.198
1.5720	63.053
1.5680	62.965
1.5640	62.866
1.5600	62.797
1.5560	62.518
1.5520	62.371
1.5480	62.473
1.5440	62.120
1.5400	61.985
1.5360	61.843
1.5320	61.755
1.5280	61.944
1.5240	61.767
1.5200	61.632
1.5160	61.409
1.5120	61.181
1.5080	61.005
1.5040	60.750
1.5000	60.857
1.4960	59.951
1.4920	60.432
1.4880	60.428
1.4840	60.386
1.4800	60.355
1.4760	60.344
1.4720	60.169
1.4680	60.046
1.4640	59.825
1.4600	59.560
1.4560	59.432
1.4520	59.615
1.4480	59.572
1.4440	59.400
1.4400	59.269
1.4360	59.228
1.4320	59.139
1.4280	58.836
1.4240	58.614
1.4200	58.392
1.4160	58.214
1.4120	58.125
1.4080	58.124
1.4040	57.724
1.4000	57.811
1.3960	57.678
1.3920	57.457
1.3880	57.499
1.3840	57.677
1.3800	57.585
1.3760	57.452
1.3720	57.328
1.3680	57.122
1.3640	57.290
1.3600	57.106
1.3560	57.195
1.3520	56.989
1.3480	56.870
1.3440	56.830
1.3400	56.543
1.3360	56.407
1.3320	56.150
1.3280	55.760
1.3240	55.756
1.3200	56.006
1.3160	56.173
1.3120	56.061
1.3080	56.010
1.3040	55.700
1.3000	55.565
1.2960	55.342
1.2920	55.289
1.2880	55.148
1.2840	55.089
1.2800	54.987
1.2760	54.671
1.2720	54.789
1.2680	54.582
1.2640	54.116
1.2600	54.075
1.2560	54.383
1.2520	54.385
1.2480	54.460
1.2440	54.453
1.2400	54.259
1.2360	53.998
1.2320	53.714
1.2280	53.664
1.2240	53.517
1.2200	53.558
1.2160	53.679
1.2120	53.147
1.2080	52.860
1.2040	52.516
1.2000	52.477
1.1960	52.360
1.1920	52.243
1.1880	52.078
1.1840	51.913
1.1800	51.809
1.1760	51.837
1.1720	51.875
1.1680	51.721
1.1640	51.747
1.1600	51.470
1.1560	51.533
1.1520	51.609
1.1480	51.343
1.1440	51.214
1.1400	51.480
1.1360	51.710
1.1320	51.480
1.1280	51.429
1.1240	51.214
1.1200	51.201
1.1160	51.176
1.1120	51.050
1.1080	51.009
1.1040	50.958
1.1000	51.122
1.0960	50.920
1.0920	50.780
1.0880	50.705
1.0840	50.691
1.0800	50.701
1.0760	50.575
1.0720	50.501
1.0680	50.575
1.0640	50.406
1.0600	50.479
1.0560	50.391
1.0520	50.767
1.0480	50.730
1.0440	50.391
1.0400	50.208
1.0360	50.178
1.0320	50.324
1.0280	50.524
1.0240	50.672
1.0200	50.413
1.0160	50.273
1.0120	50.199
1.0080	50.236
1.0040	50.174
1.0000	49.991
0.9960	49.991
0.9920	49.768
0.9880	49.736
0.9840	49.616
0.9800	49.564
0.9760	49.517
0.9720	49.373
0.9680	49.304
0.9640	49.340
0.9600	49.056
0.9560	49.111
0.9520	49.163
0.9480	48.986
0.9440	48.721
0.9400	48.692
0.9360	48.675
0.9320	48.657
0.9280	48.516
0.9240	48.410
0.9200	48.498
0.9160	48.322
0.9120	48.410
0.9080	48.665
0.9040	48.269
0.9000	48.311
0.8960	48.417
0.8920	48.417
0.8880	48.346
0.8840	48.311
0.8800	48.379
0.8760	48.290
0.8720	48.326
0.8680	48.414
0.8640	48.308
0.8600	48.344
0.8560	48.308
0.8520	48.308
0.8480	48.255
0.8440	48.273
0.8400	48.077
0.8360	48.237
0.8320	48.096
0.8280	48.131
0.8240	48.237
0.8200	48.290
0.8160	48.061
0.8120	48.185
0.8080	48.115
0.8040	48.238
0.8000	48.116
0.7990	48.116
0.7980	48.116
0.7970	48.157
0.7960	48.694
0.7950	48.403
0.7940	48.403
0.7930	48.481
0.7920	48.490
0.7910	48.276
0.7900	48.198
0.7890	48.212
0.7880	48.290
0.7870	48.102
0.7860	48.233
0.7850	48.399
0.7840	48.130
0.7830	48.325
0.7820	48.329
0.7810	48.443
0.7800	48.347
0.7790	48.268
0.7780	47.907
0.7770	47.960
0.7760	48.060
0.7750	47.907
0.7740	47.825
0.7730	47.864
0.7720	48.051
0.7710	48.203
0.7700	47.977
0.7690	47.959
0.7680	48.094
0.7670	48.073
0.7660	48.151
0.7650	47.899
0.7640	48.121
0.7630	47.767
0.7620	47.689
0.7610	47.554
0.7600	47.650
0.7590	47.593
0.7580	47.991
0.7570	47.556
0.7560	47.401
0.7550	47.459
0.7540	47.233
0.7530	47.478
0.7520	47.556
0.7510	47.478
0.7500	47.521
0.7490	47.681
0.7480	47.516
0.7470	47.382
0.7460	47.363
0.7450	47.517
0.7440	47.556
0.7430	47.645
0.7420	47.017
0.7410	47.413
0.7400	47.305
0.7390	47.606
0.7380	46.979
0.7370	47.498
0.7360	47.472
0.7350	47.170
0.7340	47.459
0.7330	47.229
0.7320	47.324
0.7310	47.451
0.7300	47.663
0.7290	47.382
0.7280	47.645
0.7270	47.662
0.7260	47.472
0.7250	47.209
0.7240	47.356
0.7230	47.472
0.7220	47.395
0.7210	47.395
0.7200	47.182
0.7190	47.067
0.7180	47.293
0.7170	47.132
0.7160	47.067
0.7150	47.221
0.7140	47.036
0.7130	47.112
0.7120	47.086
0.7110	47.279
0.7100	46.976
0.7090	46.978
0.7080	47.036
0.7070	47.449
0.7060	47.260
0.7050	47.279
0.7040	46.913
0.7030	47.202
0.7020	47.626
0.7010	47.390
0.7000	47.351
0.6990	47.513
0.6980	47.443
0.6970	47.401
0.6960	47.578
0.6950	47.881
0.6940	47.980
0.6930	48.179
0.6920	47.939
0.6910	48.114
0.6900	48.213
0.6890	47.916
0.6880	47.979
0.6870	47.719
0.6860	47.740
0.6850	47.443
0.6840	47.382
0.6830	47.679
0.6820	47.834
0.6810	47.719
0.6800	48.032
0.6790	47.556
0.6780	47.458
0.6770	47.520
0.6760	47.898
0.6750	48.137
0.6740	48.401
0.6730	48.102
0.6720	48.037
0.6710	48.137
0.6700	47.700
0.6690	47.699
0.6680	47.817
0.6670	47.997
0.6660	48.014
0.6650	47.834
0.6640	48.219
0.6630	48.201
0.6620	47.920
0.6610	48.219
0.6600	48.319
0.6590	48.237
0.6580	47.740
0.6570	47.740
0.6560	48.015
0.6550	48.236
0.6540	48.236
0.6530	48.114
0.6520	48.401
0.6510	48.525
0.6500	48.642
0.6490	48.319
0.6480	48.237
0.6470	48.236
0.6460	48.377
0.6450	48.377
0.6440	48.377
0.6430	48.236
0.6420	48.311
0.6410	48.318
0.6400	48.219
0.6390	48.542
0.6380	48.401
0.6370	48.236
0.6360	48.517
0.6350	48.675
0.6340	48.832
0.6330	48.335
0.6320	48.377
0.6310	48.294
0.6300	48.774
0.6290	48.941
0.6280	48.816
0.6270	48.542
0.6260	48.525
0.6250	48.725
0.6240	48.941
0.6230	48.983
0.6220	49.025
0.6210	48.683
0.6200	48.983
0.6190	48.925
0.6180	49.252
0.6170	48.767
0.6160	48.725
0.6150	48.542
0.6140	48.683
0.6130	48.600
0.6120	48.800
0.6110	48.683
0.6100	48.925
0.6090	48.893
0.6080	48.967
0.6070	48.925
0.6060	48.967
0.6050	48.967
0.6040	48.851
0.6030	48.793
0.6020	48.592
0.6010	48.592
0.6000	48.903
0.5990	48.945
0.5980	48.828
0.5970	49.116
0.5960	48.913
0.5950	49.100
0.5940	49.143
0.5930	48.998
0.5920	49.331
0.5910	48.923
0.5900	49.331
0.5890	49.374
0.5880	49.127
0.5870	49.331
0.5860	49.141
0.5850	48.911
0.5840	49.331
0.5830	49.621
0.5820	49.303
0.5810	49.217
0.5800	49.147
0.5790	48.988
0.5780	49.147
0.5770	49.493
0.5760	49.623
0.5750	49.521
0.5740	49.493
0.5730	49.653
0.5720	49.540
0.5710	49.440
0.5700	49.398
0.5690	49.597
0.5680	49.371
0.5670	49.525
0.5660	49.797
0.5650	49.696
0.5640	49.468
0.5630	49.696
0.5620	49.639
0.5610	49.682
0.5600	49.652
0.5590	49.638
0.5580	49.638
0.5570	49.787
0.5560	49.764
0.5550	49.572
0.5540	49.096
0.5530	49.096
0.5520	49.131
0.5510	49.017
0.5500	49.153
0.5490	49.412
0.5480	49.652
0.5470	49.506
0.5460	49.546
0.5450	49.312
0.5440	49.472
0.5430	49.472
0.5420	49.572
0.5410	49.495
0.5400	49.239
0.5390	49.163
0.5380	49.379
0.5370	48.944
0.5360	49.081
0.5350	49.183
0.5340	49.519
0.5330	49.519
0.5320	49.401
0.5310	49.423
0.5300	49.266
0.5290	49.403
0.5280	49.266
0.5270	48.969
0.5260	48.871
0.5250	49.069
0.5240	48.988
0.5230	48.692
0.5220	48.188
0.5210	48.285
0.5200	48.672
0.5190	48.732
0.5180	48.732
0.5170	48.832
0.5160	48.813
0.5150	48.892
0.5140	48.402
0.5130	48.382
0.5120	48.323
0.5110	48.478
0.5100	48.168
0.5090	47.952
0.5080	47.722
0.5070	48.033
0.5060	47.854
0.5050	47.795
0.5040	47.931
0.5030	47.892
0.5020	47.663
0.5010	47.523
0.5000	47.559
0.4990	47.559
0.4980	47.505
0.4970	47.249
0.4960	47.369
0.4950	47.078
0.4940	46.855
0.4930	46.829
0.4920	46.648
0.4910	46.648
0.4900	46.663
0.4890	46.824
0.4880	46.957
0.4870	46.920
0.4860	46.580
0.4850	46.433
0.4840	46.335
0.4830	46.482
0.4820	46.298
0.4810	46.139
0.4800	45.883
0.4790	45.845
0.4780	45.894
0.4770	45.858
0.4760	45.858
0.4750	45.665
0.4740	45.504
0.4730	45.247
0.4720	45.372
0.4710	45.176
0.4700	45.078
0.4690	45.078
0.4680	45.006
0.4670	44.916
0.4660	44.820
0.4650	44.953
0.4640	44.955
0.4630	44.687
0.4620	44.290
0.4610	44.290
0.4600	44.326
0.4590	45.060
0.4580	45.105
0.4570	44.952
0.4560	44.888
0.4550	44.823
0.4540	44.389
0.4530	44.123
0.4520	44.060
0.4510	44.260
0.4500	44.163
0.4490	43.991
0.4480	44.329
0.4470	43.961
0.4460	43.960
0.4450	44.062
0.4440	44.096
0.4430	43.927
0.4420	43.791
0.4410	43.185
0.4400	43.456
0.4390	43.119
0.4380	43.218
0.4370	43.281
0.4360	43.180
0.4350	43.313
0.4340	43.008
0.4330	42.942
0.4320	42.870
0.4310	42.801
0.4300	42.627
0.4290	42.396
0.4280	41.985
0.4270	42.073
0.4260	41.743
0.4250	41.989
0.4240	41.678
0.4230	41.774
0.4220	41.457
0.4210	41.148
0.4200	41.209
0.4190	40.850
0.4180	41.056
0.4170	40.922
0.4160	40.408
0.4150	40.565
0.4140	40.608
0.4130	40.625
0.4120	40.493
0.4110	40.145
0.4100	39.999
0.4090	40.100
0.4080	40.100
0.4070	39.910
0.4060	39.894
0.4050	39.735
0.4040	39.821
0.4030	39.487
0.4020	39.543
0.4010	39.393
0.4000	38.922
