Name: Granite
Type: Rocks
Class: Igneous
Subclass: Felsic
Particle Size: 0-75 micrometers
Sample No.: Granite.H5
Owner: JHU
Wavelength range: All
Origin: From Santa Rita Mountains, Arizona via Smithsonian (Cat No. 
NMNH 113640-15)
Description: Powder derived from a pinkish medium-grained sample 
consisting of feldspar and quartz with minor biotite. Some areas of the 
sample show granophyric texture, and a few vugs are present.



Measurement: Directional (10 degree) hemispherical reflectance
First Column: X
Second Column: Y
X Units: Wavelength (micrometers)
Y Units: Reflectance (percent)
First X Value: 14.0112
Last X Value: 0.4000
Number of X Values: 2844
Additional information: granit5a.txt

14.011	4.2000
13.973	3.3543
13.936	3.0694
13.899	2.5088
13.861	2.4806
13.824	2.9494
13.788	2.7094
13.751	2.5031
13.715	3.2072
13.679	3.0525
13.643	2.2987
13.607	1.7410
13.571	2.4468
13.536	2.9184
13.500	2.8303
13.465	3.0169
13.430	2.9888
13.396	3.2259
13.361	2.9532
13.327	2.6873
13.293	2.6259
13.259	2.3029
13.225	2.5031
13.191	2.6569
13.158	2.2594
13.124	2.1225
13.091	2.4891
13.058	2.5186
13.026	2.4694
12.993	2.4441
12.960	2.5036
12.928	2.4169
12.896	2.2709
12.864	2.2603
12.832	2.2818
12.800	2.3179
12.769	2.3037
12.737	2.2542
12.706	2.2387
12.675	2.0320
12.644	1.9003
12.614	1.9265
12.583	2.1333
12.552	2.2579
12.522	2.5566
12.492	2.8259
12.462	2.8932
12.432	3.0516
12.402	3.1860
12.373	3.1470
12.343	3.1961
12.314	3.4631
12.285	3.7662
12.256	4.0356
12.227	4.3678
12.198	4.8668
12.169	5.2652
12.141	5.6104
12.113	5.9761
12.084	6.2958
12.056	6.5334
12.028	6.7790
12.000	7.1226
11.973	7.3734
11.945	7.6036
11.918	7.7294
11.890	7.9210
11.863	8.0437
11.836	8.0995
11.809	8.2359
11.782	8.3854
11.755	8.4680
11.729	8.5574
11.702	8.6029
11.676	8.6212
11.650	8.7185
11.624	8.6843
11.598	8.6285
11.572	8.6217
11.546	8.5737
11.520	8.5716
11.495	8.5730
11.469	8.5906
11.444	8.5130
11.419	8.5092
11.394	8.5966
11.369	8.5856
11.344	8.5260
11.319	8.5174
11.294	8.4335
11.270	8.3724
11.245	8.2734
11.221	8.1755
11.197	8.0986
11.173	8.0275
11.149	7.9683
11.125	7.8776
11.101	7.8371
11.077	7.7615
11.054	7.6566
11.030	7.5761
11.007	7.5732
10.983	7.5082
10.960	7.3312
10.937	7.2197
10.914	7.1564
10.891	7.0797
10.868	6.9921
10.846	6.9443
10.823	6.8634
10.800	6.7877
10.778	6.6631
10.755	6.5182
10.733	6.4015
10.711	6.2805
10.689	6.1411
10.667	6.0431
10.645	5.9564
10.623	5.8818
10.602	5.7527
10.580	5.5932
10.558	5.4836
10.537	5.4185
10.516	5.3226
10.494	5.2167
10.473	5.1143
10.452	5.0156
10.431	4.9584
10.410	4.9130
10.389	4.8804
10.368	4.8180
10.348	4.7280
10.327	4.6999
10.306	4.6800
10.286	4.6231
10.266	4.5853
10.245	4.5951
10.225	4.6260
10.205	4.6816
10.185	4.7062
10.165	4.7196
10.145	4.7519
10.125	4.7498
10.106	4.7592
10.086	4.8204
10.066	4.8935
10.047	4.8912
10.027	4.9193
10.008	5.0161
9.9887	5.0667
9.9695	5.1108
9.9504	5.1527
9.9313	5.1774
9.9123	5.2036
9.8934	5.2151
9.8746	5.1769
9.8558	5.0935
9.8371	5.0482
9.8185	4.9844
9.7999	4.9228
9.7814	4.8924
9.7630	4.8626
9.7447	4.9260
9.7264	5.0147
9.7082	5.0548
9.6900	5.0625
9.6719	5.1597
9.6539	5.2239
9.6360	5.1740
9.6181	5.1802
9.6003	5.1846
9.5825	5.1558
9.5649	5.1829
9.5472	5.2122
9.5297	5.2017
9.5122	5.1670
9.4948	5.1447
9.4774	5.1956
9.4601	5.2935
9.4429	5.3779
9.4257	5.5202
9.4086	5.6271
9.3916	5.7787
9.3746	6.0255
9.3577	6.2460
9.3408	6.4664
9.3240	6.6421
9.3073	6.7235
9.2906	6.7667
9.2740	6.8172
9.2574	6.8798
9.2409	6.8885
9.2245	6.8550
9.2081	6.9304
9.1918	7.0017
9.1755	6.8196
9.1593	6.6206
9.1431	6.5454
9.1270	6.4596
9.1110	6.3178
9.0950	6.2215
9.0791	6.1114
9.0632	6.0787
9.0474	6.0345
9.0316	5.9367
9.0159	5.8767
9.0003	5.8657
8.9847	5.8418
8.9691	5.8116
8.9536	5.8083
8.9382	5.8688
8.9228	5.9177
8.9075	5.9257
8.8922	5.9004
8.8770	5.9311
8.8618	5.9841
8.8467	5.9613
8.8316	5.9566
8.8166	5.9988
8.8016	6.0182
8.7867	6.0558
8.7718	6.1153
8.7570	6.0891
8.7422	6.0735
8.7275	6.0759
8.7129	6.0696
8.6982	6.0447
8.6837	5.9777
8.6692	5.8457
8.6547	5.6716
8.6403	5.4874
8.6259	5.4187
8.6116	5.6234
8.5973	5.9613
8.5830	6.2674
8.5688	6.4966
8.5547	6.6345
8.5406	6.7608
8.5266	6.8311
8.5126	6.8564
8.4986	6.8934
8.4847	6.9206
8.4708	6.9764
8.4570	7.0176
8.4432	7.0176
8.4295	7.0094
8.4158	7.0237
8.4022	7.0451
8.3886	7.0603
8.3750	7.0997
8.3615	7.1264
8.3481	7.0781
8.3347	7.0369
8.3213	7.0303
8.3079	7.0683
8.2946	7.0753
8.2814	7.0699
8.2682	7.0943
8.2550	7.1264
8.2419	7.1888
8.2288	7.2169
8.2158	7.2356
8.2028	7.2021
8.1898	7.1172
8.1769	7.0270
8.1640	6.8920
8.1512	6.6992
8.1384	6.4280
8.1256	6.1029
8.1129	5.7818
8.1002	5.4979
8.0876	5.2184
8.0750	4.9268
8.0624	4.6716
8.0499	4.4372
8.0374	4.1883
8.0250	3.9844
8.0126	3.7704
8.0002	3.5100
7.9879	3.2995
7.9756	3.1877
7.9634	3.0384
7.9512	2.8671
7.9390	2.6820
7.9268	2.4996
7.9147	2.3388
7.9027	2.1938
7.8906	2.0712
7.8786	1.9577
7.8667	1.8644
7.8548	1.7803
7.8429	1.6945
7.8310	1.6047
7.8192	1.5317
7.8075	1.4885
7.7957	1.4691
7.7840	1.4465
7.7723	1.4128
7.7607	1.3992
7.7491	1.3844
7.7375	1.3701
7.7260	1.3257
7.7145	1.2912
7.7031	1.2909
7.6916	1.2797
7.6802	1.2614
7.6689	1.2748
7.6575	1.2917
7.6462	1.2757
7.6350	1.2396
7.6238	1.1941
7.6126	1.1841
7.6014	1.1946
7.5903	1.2096
7.5792	1.2464
7.5681	1.2518
7.5571	1.2649
7.5461	1.3057
7.5351	1.3493
7.5242	1.3842
7.5133	1.4119
7.5024	1.4037
7.4916	1.4088
7.4807	1.4559
7.4700	1.4941
7.4592	1.5153
7.4485	1.5342
7.4378	1.5755
7.4272	1.6380
7.4165	1.6655
7.4059	1.7226
7.3954	1.7758
7.3848	1.8300
7.3743	1.8795
7.3639	1.9045
7.3534	1.9280
7.3430	1.9863
7.3326	2.0655
7.3223	2.1324
7.3119	2.1732
7.3016	2.2172
7.2914	2.3055
7.2811	2.4178
7.2709	2.4992
7.2607	2.5784
7.2506	2.6784
7.2404	2.7659
7.2303	2.8652
7.2203	2.9721
7.2102	3.0633
7.2002	3.1556
7.1902	3.2379
7.1803	3.3213
7.1703	3.4392
7.1604	3.5670
7.1506	3.6802
7.1407	3.7976
7.1309	3.9483
7.1211	4.0898
7.1113	4.2156
7.1016	4.3338
7.0919	4.4360
7.0822	4.5112
7.0725	4.5977
7.0629	4.7078
7.0533	4.7574
7.0437	4.8089
7.0341	4.9075
7.0246	5.0091
7.0151	5.0953
7.0056	5.1794
6.9962	5.2556
6.9867	5.3247
6.9773	5.4153
6.9679	5.4759
6.9586	5.5226
6.9493	5.6381
6.9400	5.7539
6.9307	5.8249
6.9214	5.8860
6.9122	5.9777
6.9030	6.0438
6.8938	6.0994
6.8847	6.1291
6.8755	6.1551
6.8664	6.1667
6.8573	6.2067
6.8483	6.2386
6.8393	6.2649
6.8302	6.2665
6.8213	6.2693
6.8123	6.2676
6.8034	6.2388
6.7944	6.2062
6.7855	6.2112
6.7767	6.2086
6.7678	6.2221
6.7590	6.2311
6.7502	6.2316
6.7414	6.2508
6.7327	6.2810
6.7239	6.3325
6.7152	6.3525
6.7065	6.4026
6.6979	6.4978
6.6892	6.5838
6.6806	6.6956
6.6720	6.8267
6.6634	6.9501
6.6549	7.0350
6.6464	7.0540
6.6378	7.0668
6.6294	7.0973
6.6209	7.1233
6.6124	7.1665
6.6040	7.1948
6.5956	7.1798
6.5872	7.1930
6.5789	7.1875
6.5705	7.1576
6.5622	7.1992
6.5539	7.2239
6.5456	7.2956
6.5374	7.4262
6.5292	7.6043
6.5209	7.8445
6.5128	8.0990
6.5046	8.3351
6.4964	8.5504
6.4883	8.7755
6.4802	9.0044
6.4721	9.2166
6.4640	9.4059
6.4560	9.5210
6.4480	9.6145
6.4399	9.6928
6.4320	9.7282
6.4240	9.7049
6.4160	9.6349
6.4081	9.6405
6.4002	9.6417
6.3923	9.5484
6.3844	9.4195
6.3766	9.2690
6.3687	9.1120
6.3609	8.9674
6.3531	8.8005
6.3454	8.6203
6.3376	8.4701
6.3299	8.3407
6.3221	8.2134
6.3144	8.0454
6.3068	7.8293
6.2991	7.6402
6.2914	7.4845
6.2838	7.3558
6.2762	7.2089
6.2686	7.0547
6.2611	6.9049
6.2535	6.7652
6.2460	6.6844
6.2385	6.6039
6.2310	6.5208
6.2235	6.4514
6.2160	6.4449
6.2086	6.4364
6.2011	6.4387
6.1937	6.5072
6.1863	6.6023
6.1790	6.7755
6.1716	6.9663
6.1643	7.1363
6.1570	7.3713
6.1496	7.6343
6.1424	7.8992
6.1351	8.1590
6.1278	8.4159
6.1206	8.6034
6.1134	8.7773
6.1062	9.0178
6.0990	9.2299
6.0918	9.3911
6.0847	9.5252
6.0776	9.6185
6.0704	9.7186
6.0633	9.8343
6.0563	9.8435
6.0492	9.7982
6.0421	9.9199
6.0351	10.036
6.0281	10.071
6.0211	10.093
6.0141	10.101
6.0071	10.130
6.0002	10.089
5.9932	9.9956
5.9863	9.9023
5.9794	9.8151
5.9725	9.7117
5.9657	9.6135
5.9588	9.5388
5.9520	9.4428
5.9451	9.3520
5.9383	9.2763
5.9315	9.3408
5.9247	9.4688
5.9180	9.5896
5.9112	9.7239
5.9045	9.8693
5.8978	10.029
5.8911	10.235
5.8844	10.381
5.8777	10.558
5.8711	10.802
5.8644	10.976
5.8578	11.153
5.8512	11.317
5.8446	11.448
5.8380	11.562
5.8314	11.657
5.8249	11.693
5.8184	11.761
5.8118	11.877
5.8053	11.959
5.7988	12.018
5.7923	12.053
5.7859	12.067
5.7794	12.092
5.7730	12.101
5.7666	12.092
5.7602	12.154
5.7538	12.215
5.7474	12.231
5.7410	12.266
5.7347	12.295
5.7283	12.304
5.7220	12.290
5.7157	12.258
5.7094	12.223
5.7031	12.207
5.6969	12.144
5.6906	12.033
5.6844	11.922
5.6782	11.771
5.6719	11.620
5.6657	11.456
5.6596	11.230
5.6534	10.999
5.6472	10.782
5.6411	10.585
5.6349	10.466
5.6288	10.393
5.6227	10.324
5.6166	10.274
5.6106	10.255
5.6045	10.252
5.5984	10.215
5.5924	10.199
5.5864	10.204
5.5804	10.185
5.5744	10.185
5.5684	10.270
5.5624	10.371
5.5564	10.483
5.5505	10.644
5.5445	10.853
5.5386	11.118
5.5327	11.423
5.5268	11.757
5.5209	12.087
5.5151	12.430
5.5092	12.771
5.5033	13.092
5.4975	13.399
5.4917	13.685
5.4859	13.951
5.4801	14.146
5.4743	14.357
5.4685	14.546
5.4628	14.679
5.4570	14.799
5.4513	14.901
5.4455	14.948
5.4398	14.956
5.4341	14.905
5.4284	14.780
5.4228	14.586
5.4171	14.382
5.4114	14.117
5.4058	13.768
5.4002	13.401
5.3945	13.011
5.3889	12.583
5.3833	12.179
5.3778	11.851
5.3722	11.554
5.3666	11.330
5.3611	11.179
5.3555	11.077
5.3500	11.027
5.3445	11.049
5.3390	11.132
5.3335	11.232
5.3280	11.333
5.3225	11.431
5.3171	11.519
5.3116	11.632
5.3062	11.761
5.3008	11.885
5.2954	12.034
5.2900	12.250
5.2846	12.483
5.2792	12.719
5.2738	13.005
5.2684	13.328
5.2631	13.653
5.2578	14.000
5.2524	14.375
5.2471	14.790
5.2418	15.241
5.2365	15.722
5.2312	16.233
5.2260	16.754
5.2207	17.263
5.2154	17.730
5.2102	18.143
5.2050	18.492
5.1998	18.764
5.1945	18.982
5.1893	19.132
5.1842	19.262
5.1790	19.364
5.1738	19.467
5.1686	19.566
5.1635	19.656
5.1584	19.770
5.1532	19.836
5.1481	19.872
5.1430	19.958
5.1379	20.041
5.1328	20.144
5.1277	20.291
5.1227	20.428
5.1176	20.563
5.1126	20.716
5.1075	20.830
5.1025	20.883
5.0975	20.906
5.0925	20.881
5.0875	20.805
5.0825	20.716
5.0775	20.623
5.0726	20.556
5.0676	20.512
5.0627	20.486
5.0577	20.461
5.0528	20.485
5.0479	20.526
5.0430	20.529
5.0380	20.517
5.0332	20.572
5.0283	20.624
5.0234	20.639
5.0185	20.655
5.0137	20.713
5.0088	20.782
5.0040	20.878
4.9992	21.008
4.9944	21.195
4.9896	21.453
4.9848	21.756
4.9800	22.141
4.9752	22.651
4.9704	23.238
4.9657	23.871
4.9609	24.488
4.9562	24.975
4.9514	25.337
4.9467	25.613
4.9420	25.822
4.9373	26.014
4.9326	26.192
4.9279	26.370
4.9232	26.617
4.9186	26.988
4.9139	27.487
4.9092	28.077
4.9046	28.758
4.9000	29.507
4.8953	30.288
4.8907	31.045
4.8861	31.730
4.8815	32.355
4.8769	32.928
4.8723	33.403
4.8678	33.849
4.8632	34.270
4.8586	34.619
4.8541	34.929
4.8495	35.228
4.8450	35.483
4.8405	35.704
4.8360	35.930
4.8315	36.113
4.8270	36.209
4.8225	36.255
4.8180	36.290
4.8135	36.293
4.8090	36.268
4.8046	36.236
4.8001	36.184
4.7957	36.125
4.7913	36.080
4.7868	36.044
4.7824	36.026
4.7780	36.073
4.7736	36.181
4.7692	36.285
4.7648	36.418
4.7605	36.610
4.7561	36.826
4.7517	37.002
4.7474	37.187
4.7431	37.378
4.7387	37.536
4.7344	37.661
4.7301	37.755
4.7258	37.797
4.7215	37.817
4.7172	37.832
4.7129	37.806
4.7086	37.760
4.7043	37.726
4.7000	37.651
4.6958	37.548
4.6915	37.413
4.6873	37.321
4.6831	37.328
4.6788	37.402
4.6746	37.513
4.6704	37.662
4.6662	37.861
4.6620	38.082
4.6578	38.308
4.6536	38.509
4.6495	38.681
4.6453	38.904
4.6411	39.133
4.6370	39.395
4.6328	39.690
4.6287	39.946
4.6246	40.178
4.6205	40.444
4.6163	40.674
4.6122	40.853
4.6081	41.067
4.6040	41.293
4.6000	41.506
4.5959	41.703
4.5918	41.850
4.5877	41.996
4.5837	42.136
4.5796	42.291
4.5756	42.484
4.5716	42.667
4.5675	42.844
4.5635	43.017
4.5595	43.197
4.5555	43.372
4.5515	43.517
4.5475	43.629
4.5435	43.732
4.5395	43.820
4.5356	43.876
4.5316	43.923
4.5276	43.947
4.5237	43.960
4.5197	43.958
4.5158	43.915
4.5119	43.843
4.5080	43.770
4.5040	43.680
4.5001	43.599
4.4962	43.575
4.4923	43.608
4.4884	43.651
4.4846	43.703
4.4807	43.765
4.4768	43.845
4.4730	43.912
4.4691	44.005
4.4652	44.150
4.4614	44.363
4.4576	44.612
4.4537	44.866
4.4499	45.135
4.4461	45.369
4.4423	45.563
4.4385	45.739
4.4347	45.915
4.4309	46.081
4.4271	46.243
4.4233	46.440
4.4196	46.628
4.4158	46.825
4.4120	47.035
4.4083	47.244
4.4045	47.468
4.4008	47.703
4.3971	47.960
4.3934	48.178
4.3896	48.423
4.3859	48.708
4.3822	48.956
4.3785	49.201
4.3748	49.456
4.3711	49.715
4.3674	49.942
4.3638	50.153
4.3601	50.365
4.3564	50.582
4.3528	50.778
4.3491	50.960
4.3455	51.136
4.3418	51.300
4.3382	51.462
4.3346	51.625
4.3310	51.778
4.3273	51.918
4.3237	52.030
4.3201	52.145
4.3165	52.244
4.3129	52.323
4.3094	52.383
4.3058	52.452
4.3022	52.527
4.2986	52.578
4.2951	52.687
4.2915	52.775
4.2880	52.821
4.2844	52.879
4.2809	52.976
4.2774	53.064
4.2738	53.037
4.2703	52.996
4.2668	53.081
4.2633	53.332
4.2598	53.614
4.2563	53.831
4.2528	53.944
4.2493	54.020
4.2458	54.098
4.2424	54.127
4.2389	54.145
4.2354	54.185
4.2320	54.243
4.2285	54.325
4.2251	54.426
4.2216	54.536
4.2182	54.619
4.2148	54.687
4.2113	54.736
4.2079	54.800
4.2045	54.878
4.2011	54.929
4.1977	54.962
4.1943	55.012
4.1909	55.063
4.1875	55.143
4.1841	55.226
4.1808	55.338
4.1774	55.400
4.1740	55.446
4.1707	55.504
4.1673	55.593
4.1640	55.649
4.1606	55.714
4.1573	55.761
4.1540	55.782
4.1506	55.828
4.1473	55.885
4.1440	55.958
4.1407	56.026
4.1374	56.075
4.1341	56.118
4.1308	56.176
4.1275	56.232
4.1242	56.293
4.1209	56.345
4.1177	56.383
4.1144	56.424
4.1111	56.478
4.1079	56.529
4.1046	56.596
4.1014	56.649
4.0981	56.683
4.0949	56.736
4.0917	56.806
4.0884	56.868
4.0852	56.915
4.0820	56.928
4.0788	56.933
4.0756	56.974
4.0724	57.020
4.0692	57.025
4.0660	57.032
4.0628	57.036
4.0596	57.038
4.0565	57.044
4.0533	57.031
4.0501	57.031
4.0470	57.021
4.0438	57.024
4.0406	57.013
4.0375	57.016
4.0344	56.994
4.0312	56.990
4.0281	56.989
4.0250	56.958
4.0218	56.967
4.0187	56.988
4.0156	56.983
4.0125	56.950
4.0094	56.915
4.0063	56.917
4.0032	56.913
4.0001	56.921
3.9970	56.908
3.9940	56.915
3.9909	56.927
3.9878	56.903
3.9847	56.912
3.9817	56.925
3.9786	56.918
3.9756	56.944
3.9725	56.989
3.9695	57.000
3.9665	57.042
3.9634	57.091
3.9604	57.129
3.9574	57.156
3.9544	57.204
3.9513	57.240
3.9483	57.280
3.9453	57.328
3.9423	57.367
3.9393	57.391
3.9363	57.411
3.9333	57.435
3.9304	57.430
3.9274	57.431
3.9244	57.438
3.9214	57.487
3.9185	57.503
3.9155	57.471
3.9126	57.462
3.9096	57.454
3.9067	57.440
3.9037	57.422
3.9008	57.432
3.8979	57.429
3.8949	57.432
3.8920	57.422
3.8891	57.380
3.8862	57.352
3.8833	57.344
3.8804	57.342
3.8775	57.295
3.8746	57.271
3.8717	57.261
3.8688	57.253
3.8659	57.256
3.8630	57.223
3.8601	57.218
3.8573	57.217
3.8544	57.226
3.8515	57.212
3.8487	57.200
3.8458	57.231
3.8430	57.224
3.8401	57.211
3.8373	57.184
3.8344	57.187
3.8316	57.188
3.8288	57.196
3.8259	57.213
3.8231	57.231
3.8203	57.238
3.8175	57.230
3.8147	57.238
3.8119	57.225
3.8091	57.208
3.8063	57.198
3.8035	57.178
3.8007	57.186
3.7979	57.181
3.7951	57.140
3.7924	57.122
3.7896	57.148
3.7868	57.115
3.7841	57.065
3.7813	57.049
3.7785	57.027
3.7758	57.001
3.7730	56.973
3.7703	56.949
3.7676	56.913
3.7648	56.868
3.7621	56.850
3.7594	56.798
3.7566	56.751
3.7539	56.741
3.7512	56.700
3.7485	56.670
3.7458	56.644
3.7431	56.610
3.7404	56.584
3.7377	56.549
3.7350	56.558
3.7323	56.533
3.7296	56.511
3.7269	56.500
3.7242	56.486
3.7216	56.453
3.7189	56.432
3.7162	56.442
3.7136	56.437
3.7109	56.421
3.7083	56.392
3.7056	56.388
3.7030	56.408
3.7003	56.402
3.6977	56.400
3.6950	56.389
3.6924	56.369
3.6898	56.360
3.6872	56.360
3.6845	56.309
3.6819	56.267
3.6793	56.281
3.6767	56.278
3.6741	56.269
3.6715	56.242
3.6689	56.176
3.6663	56.134
3.6637	56.128
3.6611	56.113
3.6585	56.097
3.6560	56.068
3.6534	56.039
3.6508	56.008
3.6482	55.964
3.6457	55.934
3.6431	55.912
3.6406	55.864
3.6380	55.835
3.6355	55.786
3.6329	55.736
3.6304	55.706
3.6278	55.652
3.6253	55.615
3.6227	55.573
3.6202	55.529
3.6177	55.472
3.6152	55.440
3.6127	55.416
3.6101	55.350
3.6076	55.274
3.6051	55.219
3.6026	55.188
3.6001	55.188
3.5976	55.132
3.5951	55.068
3.5926	55.009
3.5901	54.972
3.5876	54.896
3.5852	54.845
3.5827	54.803
3.5802	54.758
3.5777	54.703
3.5753	54.610
3.5728	54.585
3.5704	54.553
3.5679	54.508
3.5654	54.447
3.5630	54.381
3.5605	54.312
3.5581	54.238
3.5557	54.188
3.5532	54.120
3.5508	54.057
3.5484	53.999
3.5459	53.938
3.5435	53.859
3.5411	53.778
3.5387	53.730
3.5363	53.640
3.5338	53.533
3.5314	53.465
3.5290	53.385
3.5266	53.285
3.5242	53.169
3.5218	53.049
3.5195	52.912
3.5171	52.742
3.5147	52.581
3.5123	52.440
3.5099	52.260
3.5075	52.069
3.5052	51.895
3.5028	51.771
3.5004	51.730
3.4981	51.700
3.4957	51.656
3.4934	51.630
3.4910	51.615
3.4887	51.582
3.4863	51.488
3.4840	51.417
3.4816	51.381
3.4793	51.367
3.4770	51.300
3.4746	51.252
3.4723	51.233
3.4700	51.207
3.4677	51.187
3.4653	51.156
3.4630	51.096
3.4607	51.006
3.4584	50.926
3.4561	50.847
3.4538	50.739
3.4515	50.672
3.4492	50.602
3.4469	50.471
3.4446	50.317
3.4423	50.205
3.4400	50.089
3.4378	49.946
3.4355	49.821
3.4332	49.682
3.4309	49.526
3.4287	49.344
3.4264	49.134
3.4241	48.940
3.4219	48.816
3.4196	48.664
3.4174	48.485
3.4151	48.383
3.4129	48.309
3.4106	48.235
3.4084	48.206
3.4061	48.214
3.4039	48.227
3.4017	48.223
3.3994	48.183
3.3972	48.155
3.3950	48.157
3.3928	48.130
3.3906	48.065
3.3883	47.992
3.3861	47.894
3.3839	47.777
3.3817	47.692
3.3795	47.617
3.3773	47.509
3.3751	47.417
3.3729	47.342
3.3707	47.279
3.3685	47.282
3.3663	47.278
3.3641	47.252
3.3620	47.238
3.3598	47.231
3.3576	47.213
3.3554	47.158
3.3533	47.093
3.3511	47.013
3.3489	46.957
3.3468	46.922
3.3446	46.849
3.3425	46.748
3.3403	46.678
3.3382	46.621
3.3360	46.561
3.3339	46.448
3.3317	46.348
3.3296	46.260
3.3274	46.130
3.3253	46.007
3.3232	45.911
3.3210	45.837
3.3189	45.715
3.3168	45.616
3.3147	45.522
3.3126	45.410
3.3104	45.302
3.3083	45.190
3.3062	45.070
3.3041	44.941
3.3020	44.800
3.2999	44.658
3.2978	44.532
3.2957	44.425
3.2936	44.293
3.2915	44.151
3.2894	44.026
3.2874	43.907
3.2853	43.780
3.2832	43.643
3.2811	43.515
3.2790	43.351
3.2770	43.202
3.2749	43.063
3.2728	42.939
3.2708	42.855
3.2687	42.740
3.2666	42.599
3.2646	42.419
3.2625	42.240
3.2605	42.087
3.2584	41.933
3.2564	41.811
3.2543	41.710
3.2523	41.552
3.2503	41.383
3.2482	41.271
3.2462	41.144
3.2442	40.991
3.2421	40.816
3.2401	40.646
3.2381	40.530
3.2361	40.407
3.2340	40.249
3.2320	40.086
3.2300	39.943
3.2280	39.803
3.2260	39.659
3.2240	39.517
3.2220	39.360
3.2200	39.208
3.2180	39.081
3.2160	38.971
3.2140	38.804
3.2120	38.608
3.2100	38.476
3.2080	38.330
3.2060	38.180
3.2040	38.073
3.2021	37.928
3.2001	37.774
3.1981	37.626
3.1961	37.492
3.1942	37.336
3.1922	37.175
3.1902	37.062
3.1883	36.914
3.1863	36.737
3.1844	36.609
3.1824	36.494
3.1805	36.353
3.1785	36.228
3.1766	36.087
3.1746	35.943
3.1727	35.797
3.1707	35.666
3.1688	35.549
3.1669	35.390
3.1649	35.243
3.1630	35.109
3.1611	34.987
3.1591	34.838
3.1572	34.699
3.1553	34.596
3.1534	34.464
3.1515	34.327
3.1495	34.198
3.1476	34.054
3.1457	33.952
3.1438	33.825
3.1419	33.704
3.1400	33.571
3.1381	33.441
3.1362	33.369
3.1343	33.243
3.1324	33.115
3.1305	33.020
3.1286	32.932
3.1268	32.808
3.1249	32.663
3.1230	32.551
3.1211	32.469
3.1192	32.361
3.1174	32.236
3.1155	32.170
3.1136	32.081
3.1117	31.960
3.1099	31.844
3.1080	31.777
3.1061	31.694
3.1043	31.571
3.1024	31.480
3.1006	31.433
3.0987	31.357
3.0969	31.247
3.0950	31.158
3.0932	31.100
3.0913	31.049
3.0895	30.976
3.0876	30.863
3.0858	30.779
3.0840	30.705
3.0821	30.628
3.0803	30.578
3.0785	30.528
3.0766	30.483
3.0748	30.407
3.0730	30.389
3.0712	30.368
3.0694	30.268
3.0675	30.173
3.0657	30.108
3.0639	30.086
3.0621	30.049
3.0603	29.976
3.0585	29.923
3.0567	29.878
3.0549	29.810
3.0531	29.756
3.0513	29.710
3.0495	29.680
3.0477	29.625
3.0459	29.572
3.0441	29.535
3.0423	29.525
3.0406	29.476
3.0388	29.393
3.0370	29.342
3.0352	29.278
3.0334	29.238
3.0317	29.198
3.0299	29.167
3.0281	29.132
3.0264	29.108
3.0246	29.029
3.0228	28.921
3.0211	28.894
3.0193	28.888
3.0176	28.839
3.0158	28.767
3.0140	28.695
3.0123	28.643
3.0105	28.657
3.0088	28.606
3.0070	28.514
3.0053	28.474
3.0036	28.457
3.0018	28.428
3.0001	28.353
2.9984	28.292
2.9966	28.246
2.9949	28.204
2.9932	28.148
2.9914	28.073
2.9897	28.051
2.9880	28.034
2.9863	27.958
2.9845	27.913
2.9828	27.877
2.9811	27.809
2.9794	27.775
2.9777	27.748
2.9760	27.681
2.9743	27.611
2.9726	27.569
2.9709	27.490
2.9692	27.423
2.9675	27.347
2.9658	27.286
2.9641	27.267
2.9624	27.231
2.9607	27.211
2.9590	27.186
2.9573	27.163
2.9556	27.167
2.9539	27.163
2.9523	27.167
2.9506	27.161
2.9489	27.141
2.9472	27.134
2.9455	27.160
2.9439	27.162
2.9422	27.178
2.9405	27.178
2.9389	27.146
2.9372	27.131
2.9355	27.121
2.9339	27.160
2.9322	27.164
2.9306	27.144
2.9289	27.131
2.9272	27.198
2.9256	27.301
2.9239	27.333
2.9223	27.312
2.9207	27.288
2.9190	27.292
2.9174	27.350
2.9157	27.409
2.9141	27.444
2.9124	27.448
2.9108	27.530
2.9092	27.614
2.9075	27.647
2.9059	27.705
2.9043	27.751
2.9027	27.783
2.9010	27.847
2.8994	27.918
2.8978	27.958
2.8962	28.048
2.8946	28.127
2.8929	28.140
2.8913	28.173
2.8897	28.260
2.8881	28.358
2.8865	28.393
2.8849	28.440
2.8833	28.474
2.8817	28.516
2.8801	28.648
2.8785	28.797
2.8769	28.834
2.8753	28.829
2.8737	28.874
2.8721	29.003
2.8705	29.102
2.8689	29.200
2.8673	29.268
2.8658	29.350
2.8642	29.410
2.8626	29.478
2.8610	29.556
2.8594	29.653
2.8579	29.658
2.8563	29.769
2.8547	29.869
2.8531	29.895
2.8516	30.031
2.8500	30.177
2.8484	30.239
2.8469	30.298
2.8453	30.379
2.8437	30.492
2.8422	30.559
2.8406	30.648
2.8391	30.721
2.8375	30.775
2.8360	30.852
2.8344	30.943
2.8329	31.014
2.8313	31.118
2.8298	31.210
2.8282	31.249
2.8267	31.299
2.8252	31.415
2.8236	31.485
2.8221	31.518
2.8205	31.528
2.8190	31.565
2.8175	31.621
2.8159	31.604
2.8144	31.628
2.8129	31.703
2.8114	31.734
2.8098	31.745
2.8083	31.744
2.8068	31.722
2.8053	31.649
2.8038	31.611
2.8022	31.606
2.8007	31.617
2.7992	31.620
2.7977	31.586
2.7962	31.556
2.7947	31.476
2.7932	31.379
2.7917	31.325
2.7902	31.283
2.7887	31.158
2.7872	31.021
2.7857	30.994
2.7842	30.976
2.7827	30.845
2.7812	30.727
2.7797	30.632
2.7782	30.613
2.7767	30.622
2.7752	30.588
2.7738	30.564
2.7723	30.473
2.7708	30.322
2.7693	30.254
2.7678	30.166
2.7664	30.054
2.7649	29.744
2.7634	29.188
2.7619	28.940
2.7605	29.310
2.7590	29.792
2.7575	30.174
2.7561	30.476
2.7546	30.839
2.7531	31.351
2.7517	31.779
2.7502	32.168
2.7488	32.493
2.7473	32.859
2.7458	33.204
2.7444	33.503
2.7429	33.837
2.7415	34.075
2.7400	34.281
2.7386	34.718
2.7371	35.336
2.7357	35.881
2.7343	36.462
2.7328	37.211
2.7314	37.982
2.7299	38.670
2.7285	39.335
2.7271	39.948
2.7256	40.500
2.7242	41.156
2.7228	42.094
2.7213	42.913
2.7199	43.630
2.7185	44.468
2.7171	45.092
2.7156	45.489
2.7142	45.686
2.7128	45.709
2.7114	45.435
2.7100	45.300
2.7085	45.375
2.7071	45.505
2.7057	45.793
2.7043	46.329
2.7029	47.158
2.7015	48.194
2.7001	49.449
2.6987	50.738
2.6973	51.788
2.6959	52.615
2.6945	53.369
2.6931	54.136
2.6917	55.019
2.6903	55.805
2.6889	56.455
2.6875	56.970
2.6861	57.398
2.6847	57.889
2.6833	58.345
2.6819	58.701
2.6805	58.916
2.6791	58.972
2.6778	59.156
2.6764	59.199
2.6750	59.367
2.6736	59.635
2.6722	59.711
2.6709	59.533
2.6695	59.835
2.6681	60.485
2.6667	60.647
2.6654	60.840
2.6640	61.215
2.6626	61.612
2.6613	61.643
2.6599	61.676
2.6585	61.860
2.6572	62.019
2.6558	61.988
2.6545	62.088
2.6531	62.143
2.6517	62.223
2.6504	62.383
2.6490	62.533
2.6477	62.550
2.6463	62.546
2.6450	62.560
2.6436	62.624
2.6423	62.627
2.6409	62.737
2.6396	62.799
2.6382	62.780
2.6369	62.838
2.6356	62.855
2.6342	62.788
2.6329	62.810
2.6315	62.708
2.6302	62.564
2.6289	62.790
2.6275	62.904
2.6262	62.838
2.6249	62.979
2.6236	63.046
2.6222	63.044
2.6209	62.829
2.6196	62.733
2.6183	62.901
2.6169	62.824
2.6156	62.877
2.6143	63.072
2.6130	63.167
2.6117	63.184
2.6103	63.131
2.6090	63.148
2.6077	63.172
2.6064	62.905
2.6051	62.762
2.6038	63.004
2.6025	63.196
2.6012	63.248
2.5999	63.306
2.5986	63.284
2.5973	63.224
2.5960	62.979
2.5947	62.667
2.5934	62.859
2.5921	63.227
2.5908	63.356
2.5895	63.356
2.5882	63.257
2.5869	63.249
2.5856	63.343
2.5843	63.161
2.5830	63.110
2.5817	63.313
2.5805	63.315
2.5792	63.396
2.5779	63.398
2.5766	63.351
2.5753	63.380
2.5741	63.289
2.5728	63.266
2.5715	63.382
2.5702	63.385
2.5690	63.308
2.5677	63.423
2.5664	63.537
2.5651	63.462
2.5639	63.355
2.5626	63.321
2.5613	63.287
2.5601	63.429
2.5588	63.524
2.5575	63.533
2.5563	63.569
2.5550	63.530
2.5538	63.486
2.5525	63.527
2.5513	63.587
2.5500	63.592
2.5487	63.530
2.5475	63.468
2.5462	63.539
2.5450	63.613
2.5437	63.554
2.5425	63.572
2.5413	63.672
2.5400	63.646
2.5388	63.629
2.5375	63.650
2.5363	63.551
2.5350	63.546
2.5338	63.655
2.5326	63.640
2.5313	63.615
2.5301	63.603
2.5289	63.592
2.5276	63.548
2.5264	63.549
2.5252	63.614
2.5239	63.628
2.5227	63.681
2.5215	63.665
2.5202	63.633
2.5190	63.655
2.5178	63.682
2.5166	63.718
2.5154	63.695
2.5141	63.605
2.5129	63.561
2.5117	63.624
2.5105	63.687
2.5093	63.753
2.5081	63.736
2.5068	63.708
2.5056	63.680
2.5044	63.623
2.5032	63.639
2.5020	63.643
2.5008	63.652
2.4996	63.745
2.4984	63.764
2.4972	63.651
2.4960	63.625
2.4948	63.693
2.4936	63.724
2.4924	63.710
2.4912	63.710
2.4900	63.765
2.4888	63.776
2.4876	63.759
2.4864	63.685
2.4852	63.726
2.4840	63.754
2.4828	63.786
2.4816	63.762
2.4805	63.755
2.4793	63.795
2.4781	63.741
2.4769	63.784
2.4757	63.852
2.4745	63.897
2.4734	63.815
2.4722	63.699
2.4710	63.782
2.4698	63.839
2.4686	63.860
2.4675	63.885
2.4663	63.829
2.4651	63.754
2.4640	63.786
2.4628	63.811
2.4616	63.777
2.4604	63.829
2.4593	63.789
2.4581	63.838
2.4569	63.857
2.4558	63.792
2.4546	63.767
2.4535	63.881
2.4523	63.906
2.4511	63.928
2.4500	63.947
2.4488	63.860
2.4477	63.792
2.4465	63.778
2.4454	63.850
2.4442	63.929
2.4431	63.856
2.4419	63.919
2.4408	63.923
2.4396	63.804
2.4385	63.794
2.4373	63.904
2.4362	63.940
2.4350	63.905
2.4339	63.919
2.4327	63.942
2.4316	63.964
2.4305	63.957
2.4293	63.995
2.4282	63.989
2.4270	63.953
2.4259	64.021
2.4248	64.148
2.4236	64.104
2.4225	64.075
2.4214	64.104
2.4202	64.155
2.4191	64.044
2.4180	63.972
2.4169	64.031
2.4157	64.172
2.4146	64.206
2.4135	64.110
2.4124	64.140
2.4112	64.163
2.4101	64.234
2.4090	64.126
2.4079	64.152
2.4068	64.197
2.4056	64.214
2.4045	64.225
2.4034	64.225
2.4023	64.251
2.4012	64.290
2.4001	64.297
2.3990	64.201
2.3979	64.185
2.3967	64.190
2.3956	64.213
2.3945	64.173
2.3934	64.148
2.3923	64.251
2.3912	64.293
2.3901	64.229
2.3890	64.195
2.3879	64.193
2.3868	64.183
2.3857	64.196
2.3846	64.184
2.3835	64.116
2.3824	64.128
2.3813	64.164
2.3802	64.152
2.3791	64.179
2.3781	64.209
2.3770	64.251
2.3759	64.198
2.3748	64.163
2.3737	64.230
2.3726	64.228
2.3715	64.134
2.3704	64.120
2.3694	64.152
2.3683	64.206
2.3672	64.195
2.3661	64.187
2.3650	64.224
2.3640	64.211
2.3629	64.189
2.3618	64.149
2.3607	64.154
2.3597	64.152
2.3586	64.119
2.3575	64.158
2.3564	64.138
2.3554	64.102
2.3543	64.126
2.3532	64.137
2.3522	64.193
2.3511	64.175
2.3500	64.192
2.3490	64.324
2.3479	64.342
2.3468	64.320
2.3458	64.266
2.3447	64.218
2.3436	64.335
2.3426	64.355
2.3415	64.346
2.3405	64.262
2.3394	64.282
2.3384	64.357
2.3373	64.349
2.3363	64.316
2.3352	64.308
2.3342	64.337
2.3331	64.409
2.3321	64.474
2.3310	64.381
2.3300	64.454
2.3289	64.583
2.3279	64.558
2.3268	64.434
2.3258	64.436
2.3247	64.568
2.3237	64.585
2.3226	64.603
2.3216	64.753
2.3206	64.637
2.3195	64.532
2.3185	64.502
2.3175	64.498
2.3164	64.589
2.3154	64.606
2.3144	64.549
2.3133	64.535
2.3123	64.604
2.3113	64.649
2.3102	64.581
2.3092	64.725
2.3082	64.798
2.3071	64.748
2.3061	64.676
2.3051	64.678
2.3041	64.641
2.3030	64.691
2.3020	64.693
2.3010	64.716
2.3000	64.722
2.2990	64.708
2.2979	64.640
2.2969	64.615
2.2959	64.659
2.2949	64.739
2.2939	64.626
2.2929	64.601
2.2918	64.693
2.2908	64.721
2.2898	64.676
2.2888	64.640
2.2878	64.681
2.2868	64.604
2.2858	64.584
2.2848	64.718
2.2838	64.714
2.2828	64.570
2.2818	64.621
2.2808	64.729
2.2798	64.813
2.2787	64.782
2.2777	64.830
2.2767	64.721
2.2757	64.641
2.2747	64.688
2.2738	64.686
2.2728	64.667
2.2718	64.699
2.2708	64.722
2.2698	64.712
2.2688	64.701
2.2678	64.663
2.2668	64.616
2.2658	64.663
2.2648	64.689
2.2638	64.652
2.2628	64.630
2.2618	64.648
2.2609	64.581
2.2599	64.553
2.2589	64.515
2.2579	64.532
2.2569	64.560
2.2559	64.617
2.2550	64.658
2.2540	64.619
2.2530	64.504
2.2520	64.416
2.2510	64.499
2.2501	64.478
2.2491	64.534
2.2481	64.667
2.2471	64.617
2.2462	64.610
2.2452	64.530
2.2442	64.487
2.2433	64.607
2.2423	64.608
2.2413	64.529
2.2403	64.524
2.2394	64.475
2.2384	64.437
2.2374	64.485
2.2365	64.528
2.2355	64.463
2.2345	64.444
2.2336	64.452
2.2326	64.434
2.2317	64.498
2.2307	64.541
2.2297	64.496
2.2288	64.488
2.2278	64.421
2.2269	64.419
2.2259	64.438
2.2250	64.361
2.2240	64.275
2.2231	64.322
2.2221	64.356
2.2211	64.292
2.2202	64.281
2.2192	64.247
2.2183	64.267
2.2173	64.303
2.2164	64.288
2.2155	64.224
2.2145	64.231
2.2136	64.231
2.2126	64.251
2.2117	64.192
2.2107	64.161
2.2098	64.072
2.2088	64.015
2.2079	64.145
2.2070	64.247
2.2060	64.122
2.2051	64.111
2.2041	64.287
2.2032	64.435
2.2023	64.396
2.2013	64.438
2.2004	64.425
2.1995	64.396
2.1985	64.312
2.1976	64.369
2.1967	64.440
2.1957	64.536
2.1948	64.609
2.1939	64.665
2.1930	64.641
2.1920	64.638
2.1911	64.699
2.1902	64.682
2.1893	64.589
2.1883	64.626
2.1874	64.631
2.1865	64.737
2.1856	64.783
2.1846	64.811
2.1837	64.732
2.1828	64.720
2.1819	64.776
2.1810	64.840
2.1800	64.839
2.1791	64.920
2.1782	64.857
2.1773	64.795
2.1764	64.810
2.1755	64.862
2.1746	64.871
2.1736	64.878
2.1727	64.845
2.1718	64.935
2.1709	64.998
2.1700	65.072
2.1691	65.031
2.1682	64.992
2.1673	65.046
2.1664	65.025
2.1655	65.003
2.1646	65.073
2.1637	65.117
2.1628	65.068
2.1619	65.010
2.1610	64.972
2.1601	64.974
2.1592	64.941
2.1583	64.926
2.1574	65.004
2.1565	65.003
2.1556	64.984
2.1547	65.051
2.1538	65.097
2.1529	65.106
2.1520	65.075
2.1511	65.109
2.1502	65.092
2.1493	65.013
2.1484	65.030
2.1475	65.060
2.1466	65.114
2.1458	65.096
2.1449	65.108
2.1440	65.143
2.1431	65.166
2.1422	65.204
2.1413	65.070
2.1404	65.053
2.1396	65.124
2.1387	65.102
2.1378	65.144
2.1369	65.135
2.1360	65.042
2.1352	65.082
2.1343	65.086
2.1334	65.004
2.1325	65.015
2.1316	65.054
2.1308	65.040
2.1299	65.005
2.1290	65.072
2.1281	65.089
2.1273	65.026
2.1264	65.194
2.1255	65.152
2.1247	65.046
2.1238	65.051
2.1229	65.019
2.1220	64.988
2.1212	65.007
2.1203	65.027
2.1194	65.041
2.1186	65.065
2.1177	65.027
2.1168	65.053
2.1160	65.061
2.1151	65.090
2.1143	65.055
2.1134	65.023
2.1125	65.134
2.1117	65.156
2.1108	65.048
2.1100	64.965
2.1091	64.971
2.1082	64.999
2.1074	65.023
2.1065	64.993
2.1057	65.058
2.1048	65.086
2.1040	65.025
2.1031	65.038
2.1023	64.992
2.1014	64.939
2.1005	64.924
2.0997	65.055
2.0988	65.172
2.0980	65.190
2.0971	65.062
2.0963	65.002
2.0955	64.950
2.0946	64.904
2.0938	64.961
2.0929	65.012
2.0921	65.031
2.0912	65.086
2.0904	65.029
2.0895	65.042
2.0887	65.147
2.0879	65.059
2.0870	64.935
2.0862	65.042
2.0853	65.141
2.0845	65.096
2.0837	64.938
2.0828	64.953
2.0820	65.078
2.0812	65.072
2.0803	64.967
2.0795	65.008
2.0760	65.008
2.0720	65.456
2.0680	65.712
2.0640	65.712
2.0600	65.342
2.0560	65.350
2.0520	65.307
2.0480	64.781
2.0440	64.945
2.0400	65.185
2.0360	64.867
2.0320	64.572
2.0280	64.684
2.0240	64.389
2.0200	64.057
2.0160	64.057
2.0120	63.609
2.0080	63.966
2.0040	63.655
2.0000	63.856
1.9960	63.856
1.9920	63.765
1.9880	63.474
1.9840	63.185
1.9800	63.222
1.9760	63.556
1.9720	63.456
1.9680	62.986
1.9640	62.932
1.9600	62.841
1.9560	62.459
1.9520	62.401
1.9480	62.380
1.9440	62.284
1.9400	62.149
1.9360	62.195
1.9320	61.980
1.9280	62.012
1.9240	62.165
1.9200	61.689
1.9160	62.228
1.9120	62.228
1.9080	62.250
1.9040	62.446
1.9000	62.674
1.8960	62.574
1.8920	62.529
1.8880	62.565
1.8840	62.470
1.8800	62.922
1.8760	62.936
1.8720	63.184
1.8680	63.128
1.8640	63.157
1.8600	62.932
1.8560	62.830
1.8520	63.100
1.8480	63.278
1.8440	63.341
1.8400	63.412
1.8360	63.501
1.8320	63.235
1.8280	63.288
1.8240	63.164
1.8200	63.183
1.8160	63.025
1.8120	62.857
1.8080	62.868
1.8040	62.884
1.8000	62.972
1.7960	63.031
1.7920	62.865
1.7880	62.708
1.7840	62.672
1.7800	62.411
1.7760	62.708
1.7720	62.495
1.7680	62.495
1.7640	62.881
1.7600	63.023
1.7560	63.059
1.7520	63.289
1.7480	63.076
1.7440	63.006
1.7400	63.111
1.7360	62.968
1.7320	63.021
1.7280	63.021
1.7240	63.199
1.7200	63.199
1.7160	63.093
1.7120	63.111
1.7080	62.875
1.7040	62.760
1.7000	62.708
1.6960	62.796
1.6920	62.567
1.6880	62.848
1.6840	62.832
1.6800	62.691
1.6760	62.619
1.6720	62.495
1.6680	62.672
1.6640	62.619
1.6600	62.567
1.6560	62.261
1.6520	62.521
1.6480	62.521
1.6440	62.750
1.6400	62.770
1.6360	62.587
1.6320	62.542
1.6280	62.433
1.6240	62.511
1.6200	62.521
1.6160	62.417
1.6120	62.225
1.6080	62.329
1.6040	62.569
1.6000	62.391
1.5960	62.412
1.5920	62.183
1.5880	61.924
1.5840	61.719
1.5800	61.880
1.5760	62.313
1.5720	62.158
1.5680	62.070
1.5640	62.070
1.5600	62.085
1.5560	61.967
1.5520	62.004
1.5480	62.474
1.5440	62.386
1.5400	62.334
1.5360	62.179
1.5320	62.004
1.5280	62.209
1.5240	62.386
1.5200	62.070
1.5160	61.842
1.5120	61.513
1.5080	61.425
1.5040	61.364
1.5000	61.419
1.4960	60.546
1.4920	61.199
1.4880	61.273
1.4840	61.324
1.4800	61.385
1.4760	61.462
1.4720	61.462
1.4680	61.247
1.4640	61.284
1.4600	61.096
1.4560	61.247
1.4520	61.551
1.4480	61.602
1.4440	61.719
1.4400	61.695
1.4360	61.672
1.4320	61.672
1.4280	61.439
1.4240	61.565
1.4200	61.337
1.4160	61.262
1.4120	61.226
1.4080	60.881
1.4040	60.626
1.4000	60.932
1.3960	61.136
1.3920	61.250
1.3880	61.583
1.3840	61.418
1.3800	61.535
1.3760	61.380
1.3720	61.071
1.3680	61.182
1.3640	61.336
1.3600	61.197
1.3560	61.644
1.3520	61.586
1.3480	61.643
1.3440	61.753
1.3400	61.339
1.3360	61.489
1.3320	61.302
1.3280	60.905
1.3240	60.830
1.3200	60.954
1.3160	61.066
1.3120	60.962
1.3080	61.112
1.3040	61.163
1.3000	61.213
1.2960	61.175
1.2920	61.327
1.2880	61.301
1.2840	61.289
1.2800	61.136
1.2760	61.008
1.2720	61.174
1.2680	61.097
1.2640	60.653
1.2600	60.781
1.2560	61.009
1.2520	61.210
1.2480	61.682
1.2440	61.606
1.2400	61.722
1.2360	61.641
1.2320	61.193
1.2280	61.133
1.2240	61.107
1.2200	61.359
1.2160	61.333
1.2120	60.684
1.2080	60.789
1.2040	60.866
1.2000	60.993
1.1960	60.842
1.1920	60.803
1.1880	60.791
1.1840	60.780
1.1800	60.576
1.1760	60.768
1.1720	60.818
1.1680	60.664
1.1640	60.724
1.1600	60.647
1.1560	60.492
1.1520	60.237
1.1480	60.503
1.1440	60.385
1.1400	60.556
1.1360	60.768
1.1320	60.466
1.1280	60.338
1.1240	59.941
1.1200	60.129
1.1160	60.336
1.1120	60.020
1.1080	60.257
1.1040	60.129
1.1000	60.139
1.0960	59.991
1.0920	59.951
1.0880	59.765
1.0840	59.951
1.0800	59.873
1.0760	59.824
1.0720	59.903
1.0680	60.001
1.0640	59.571
1.0600	59.403
1.0560	59.580
1.0520	59.726
1.0480	59.765
1.0440	59.580
1.0400	59.250
1.0360	59.355
1.0320	59.372
1.0280	59.340
1.0240	59.713
1.0200	59.283
1.0160	59.332
1.0120	59.235
1.0080	59.372
1.0040	59.410
1.0000	59.080
0.9960	59.080
0.9920	59.250
0.9880	59.178
0.9840	59.195
0.9800	59.154
0.9760	58.919
0.9720	58.639
0.9680	58.694
0.9640	58.476
0.9600	58.333
0.9560	58.524
0.9520	58.299
0.9480	58.299
0.9440	58.211
0.9400	58.235
0.9360	58.330
0.9320	57.922
0.9280	57.734
0.9240	58.092
0.9200	58.004
0.9160	57.740
0.9120	57.740
0.9080	58.143
0.9040	57.699
0.9000	57.641
0.8960	57.694
0.8920	57.518
0.8880	57.571
0.8840	57.523
0.8800	57.591
0.8760	57.326
0.8720	57.373
0.8680	57.196
0.8640	57.202
0.8600	57.485
0.8560	57.349
0.8520	57.082
0.8480	57.129
0.8440	56.946
0.8400	56.716
0.8360	56.899
0.8320	56.800
0.8280	56.847
0.8240	56.753
0.8200	57.061
0.8160	56.962
0.8120	56.688
0.8080	56.859
0.8040	56.937
0.8000	56.661
0.7990	55.363
0.7980	55.363
0.7970	55.351
0.7960	55.367
0.7950	55.459
0.7940	55.459
0.7930	55.754
0.7920	56.021
0.7910	55.575
0.7900	55.663
0.7890	55.650
0.7880	55.946
0.7870	55.758
0.7860	55.615
0.7850	55.741
0.7840	55.446
0.7830	55.994
0.7820	55.807
0.7810	56.057
0.7800	55.865
0.7790	55.951
0.7780	55.850
0.7770	55.793
0.7760	55.511
0.7750	55.467
0.7740	55.454
0.7730	55.315
0.7720	55.598
0.7710	55.546
0.7700	56.043
0.7690	55.957
0.7680	55.818
0.7670	55.852
0.7660	55.957
0.7650	55.746
0.7640	55.982
0.7630	55.861
0.7620	55.756
0.7610	55.511
0.7600	55.320
0.7590	55.372
0.7580	55.907
0.7570	55.775
0.7560	55.372
0.7550	55.511
0.7540	55.176
0.7530	55.477
0.7520	55.775
0.7510	55.669
0.7500	55.437
0.7490	55.364
0.7480	55.076
0.7470	55.024
0.7460	55.128
0.7450	55.337
0.7440	55.389
0.7430	55.671
0.7420	55.084
0.7410	55.522
0.7400	55.538
0.7390	55.618
0.7380	55.032
0.7370	55.346
0.7360	55.541
0.7350	54.908
0.7340	55.004
0.7330	54.980
0.7320	55.076
0.7310	55.312
0.7300	55.373
0.7290	55.284
0.7280	55.190
0.7270	55.731
0.7260	55.541
0.7250	55.249
0.7240	55.093
0.7230	55.155
0.7220	55.146
0.7210	55.049
0.7200	54.989
0.7190	54.928
0.7180	54.785
0.7170	54.471
0.7160	54.257
0.7150	54.656
0.7140	54.279
0.7130	54.285
0.7120	54.412
0.7110	54.575
0.7100	54.589
0.7090	54.138
0.7080	54.086
0.7070	54.223
0.7060	53.938
0.7050	53.996
0.7040	53.989
0.7030	54.248
0.7020	54.490
0.7010	54.629
0.7000	54.480
0.6990	54.112
0.6980	53.844
0.6970	53.628
0.6960	53.963
0.6950	54.692
0.6940	54.295
0.6930	54.195
0.6920	54.241
0.6910	54.081
0.6900	54.180
0.6890	54.180
0.6880	54.294
0.6870	54.082
0.6860	54.141
0.6850	53.844
0.6840	53.633
0.6830	53.633
0.6820	53.776
0.6810	53.785
0.6800	53.974
0.6790	53.671
0.6780	53.178
0.6770	53.388
0.6760	53.592
0.6750	53.446
0.6740	53.557
0.6730	53.458
0.6720	53.545
0.6710	53.446
0.6700	53.394
0.6690	52.996
0.6680	52.794
0.6670	52.897
0.6660	52.892
0.6650	52.788
0.6640	53.054
0.6630	53.258
0.6620	53.153
0.6610	53.153
0.6600	52.954
0.6590	52.850
0.6580	52.850
0.6570	52.453
0.6560	52.001
0.6550	52.551
0.6540	52.651
0.6530	52.398
0.6520	52.261
0.6510	52.416
0.6500	52.512
0.6490	52.457
0.6480	52.155
0.6470	52.452
0.6460	52.504
0.6450	52.206
0.6440	52.206
0.6430	51.956
0.6420	51.901
0.6410	52.357
0.6400	52.556
0.6390	52.312
0.6380	52.261
0.6370	51.856
0.6360	51.959
0.6350	52.007
0.6340	51.956
0.6330	51.956
0.6320	52.007
0.6310	51.805
0.6300	51.609
0.6290	51.614
0.6280	51.560
0.6270	51.614
0.6260	51.716
0.6250	51.516
0.6240	51.314
0.6230	51.365
0.6220	51.516
0.6210	51.465
0.6200	51.465
0.6190	51.316
0.6180	51.570
0.6170	51.467
0.6160	51.316
0.6150	51.215
0.6140	51.265
0.6130	51.164
0.6120	50.765
0.6110	50.766
0.6100	50.916
0.6090	51.119
0.6080	50.867
0.6070	50.816
0.6060	50.766
0.6050	50.666
0.6040	50.466
0.6030	50.316
0.6020	50.215
0.6010	49.914
0.6000	49.962
0.5990	50.214
0.5980	50.315
0.5970	50.112
0.5960	49.909
0.5950	49.908
0.5940	49.857
0.5930	49.501
0.5920	49.550
0.5910	49.652
0.5900	49.550
0.5890	49.396
0.5880	49.346
0.5870	49.346
0.5860	49.143
0.5850	48.589
0.5840	48.734
0.5830	48.629
0.5820	48.384
0.5810	48.083
0.5800	48.093
0.5790	48.040
0.5780	47.992
0.5770	47.838
0.5760	47.678
0.5750	47.678
0.5740	47.534
0.5730	47.156
0.5720	47.122
0.5710	47.122
0.5700	46.876
0.5690	46.278
0.5680	46.042
0.5670	46.116
0.5660	45.998
0.5650	45.696
0.5640	45.360
0.5630	45.396
0.5620	45.340
0.5610	45.084
0.5600	44.962
0.5590	44.962
0.5580	44.962
0.5570	44.917
0.5560	44.792
0.5550	44.696
0.5540	44.509
0.5530	44.509
0.5520	44.450
0.5510	44.146
0.5500	44.000
0.5490	43.874
0.5480	43.728
0.5470	43.385
0.5460	43.426
0.5450	42.996
0.5440	42.668
0.5430	42.766
0.5420	42.475
0.5410	42.494
0.5400	41.947
0.5390	42.065
0.5380	42.181
0.5370	41.945
0.5360	41.886
0.5350	42.181
0.5340	42.124
0.5330	41.829
0.5320	41.420
0.5310	41.536
0.5300	41.476
0.5290	41.316
0.5280	40.886
0.5270	40.696
0.5260	40.696
0.5250	40.591
0.5240	40.415
0.5230	40.423
0.5220	40.119
0.5210	39.729
0.5200	39.824
0.5190	39.874
0.5180	39.679
0.5170	39.387
0.5160	39.460
0.5150	39.534
0.5140	39.156
0.5130	39.228
0.5120	39.069
0.5110	39.128
0.5100	38.632
0.5090	38.605
0.5080	38.476
0.5070	38.583
0.5060	38.395
0.5050	38.445
0.5040	38.466
0.5030	38.135
0.5020	37.827
0.5010	37.870
0.5000	37.904
0.4990	37.609
0.4980	37.471
0.4970	37.603
0.4960	37.338
0.4950	37.145
0.4940	36.845
0.4930	36.812
0.4920	36.816
0.4910	36.620
0.4900	36.723
0.4890	36.496
0.4880	36.723
0.4870	36.690
0.4860	36.630
0.4850	36.202
0.4840	36.202
0.4830	36.237
0.4820	36.169
0.4810	36.202
0.4800	35.943
0.4790	35.909
0.4780	35.944
0.4770	35.911
0.4760	35.714
0.4750	35.325
0.4740	35.357
0.4730	35.293
0.4720	35.229
0.4710	35.229
0.4700	35.229
0.4690	35.229
0.4680	35.262
0.4670	35.261
0.4660	35.066
0.4650	35.098
0.4640	35.001
0.4630	34.740
0.4620	34.647
0.4610	34.647
0.4600	34.484
0.4590	34.811
0.4580	34.830
0.4570	34.850
0.4560	34.881
0.4550	34.813
0.4540	34.582
0.4530	34.513
0.4520	34.738
0.4510	34.336
0.4500	34.430
0.4490	34.175
0.4480	34.398
0.4470	34.227
0.4460	34.116
0.4450	34.006
0.4440	33.822
0.4430	33.750
0.4420	33.891
0.4410	33.338
0.4400	33.107
0.4390	33.279
0.4380	33.266
0.4370	32.905
0.4360	32.600
0.4350	32.615
0.4340	32.526
0.4330	32.265
0.4320	32.278
0.4310	32.205
0.4300	31.925
0.4290	32.016
0.4280	31.503
0.4270	31.669
0.4260	31.457
0.4250	31.304
0.4240	31.197
0.4230	30.974
0.4220	30.848
0.4210	30.743
0.4200	30.489
0.4190	30.253
0.4180	30.664
0.4170	30.431
0.4160	30.250
0.4150	30.096
0.4140	29.842
0.4130	29.842
0.4120	29.918
0.4110	29.792
0.4100	29.740
0.4090	29.639
0.4080	29.538
0.4070	29.432
0.4060	29.200
0.4050	29.253
0.4040	29.225
0.4030	29.099
0.4020	28.943
0.4010	28.887
0.4000	28.526
