Name: Anorthosite
Type: Rocks
Class: Igneous
Subclass: Mafic
Particle Size: 0-75 micrometers
Sample No.: Anorthos.H1
Owner: JHU
Wavelength range: All
Origin: from near Elizabethtown, Essex County, New York, via Ward's 
Scientific (Cat. No. W-32)
Description: The sample from which the powder was derived consists of 
dark gray tabular plagioclase containing interstitial bluish-green granulated 
feldspar groundmass, and some opaque areas approx. 1-3 mm in size 
scattered through the sample.


Measurement: Directional (10 degree) hemispherical reflectance
First Column: X
Second Column: Y
X Units: Wavelength (micrometers)
Y Units: Reflectance (percent)
First X Value: 14.0112
Last X Value: 0.4000
Number of X Values: 2844
Additional information: anorth1a.txt

14.011	0.0000
13.973	3.2850
13.936	3.3225
13.899	0.0000
13.861	0.2775
13.824	2.9363
13.788	3.6150
13.751	2.7600
13.715	3.7218
13.679	3.1912
13.643	1.0500
13.607	1.2712
13.571	1.3950
13.536	1.2300
13.500	2.0381
13.465	2.4525
13.430	2.0221
13.396	1.2094
13.361	1.6059
13.327	1.5169
13.293	1.3725
13.259	1.7091
13.225	2.2125
13.191	1.9579
13.158	1.4943
13.124	1.5286
13.091	1.9579
13.058	1.7086
13.026	1.1405
12.993	1.3088
12.960	1.0922
12.928	0.9197
12.896	1.5408
12.864	1.6758
12.832	1.2159
12.800	1.4935
12.769	1.9125
12.737	1.9050
12.706	2.0215
12.675	1.9434
12.644	1.8759
12.614	2.0346
12.583	2.0316
12.552	1.9080
12.522	2.0515
12.492	2.1610
12.462	2.2117
12.432	2.5814
12.402	2.9508
12.373	3.0708
12.343	3.4036
12.314	3.6623
12.285	3.6459
12.256	3.7336
12.227	4.0306
12.198	4.1221
12.169	4.2197
12.141	4.5375
12.113	4.6831
12.084	4.4200
12.056	4.5159
12.028	4.4006
12.000	4.3155
11.973	4.5213
11.945	4.6130
11.918	4.6148
11.890	4.4719
11.863	4.4217
11.836	4.4217
11.809	4.3725
11.782	4.3932
11.755	4.5098
11.729	4.5951
11.702	4.6533
11.676	4.4859
11.650	4.2971
11.624	4.3130
11.598	4.3772
11.572	4.5426
11.546	4.3291
11.520	4.1553
11.495	3.9740
11.469	3.9581
11.444	3.9909
11.419	3.9018
11.394	3.9084
11.369	3.9576
11.344	3.8644
11.319	3.8273
11.294	3.8792
11.270	3.7743
11.245	3.6060
11.221	3.6145
11.197	3.4906
11.173	3.3161
11.149	3.2890
11.125	3.3605
11.101	3.2623
11.077	3.1936
11.054	3.0975
11.030	3.1561
11.007	3.1793
10.983	3.0881
10.960	3.0541
10.937	3.0488
10.914	3.0761
10.891	3.0860
10.868	2.9946
10.846	2.9901
10.823	3.0787
10.800	3.0949
10.778	2.9501
10.755	2.9775
10.733	2.9824
10.711	2.8685
10.689	2.9236
10.667	2.9826
10.645	2.9057
10.623	2.9006
10.602	2.9489
10.580	2.9512
10.558	2.9972
10.537	3.0431
10.516	2.9712
10.494	2.9407
10.473	2.9555
10.452	3.0016
10.431	3.0119
10.410	2.8828
10.389	2.8117
10.368	2.9049
10.348	2.9582
10.327	2.9606
10.306	2.9439
10.286	2.9529
10.266	2.9800
10.245	3.0825
10.225	3.0182
10.205	2.8818
10.185	2.9896
10.165	3.0933
10.145	3.1143
10.125	3.1467
10.106	3.0719
10.086	3.0546
10.066	3.1517
10.047	3.2210
10.027	3.2034
10.008	3.1992
9.9887	3.1886
9.9695	3.1854
9.9504	3.2262
9.9313	3.2604
9.9123	3.1990
9.8934	3.2156
9.8746	3.2397
9.8558	3.1772
9.8371	3.1135
9.8185	3.0438
9.7999	3.0073
9.7814	3.0836
9.7630	3.0893
9.7447	2.9356
9.7264	2.9777
9.7082	3.0298
9.6900	2.9749
9.6719	3.0232
9.6539	3.1356
9.6360	3.0891
9.6181	2.9620
9.6003	2.9498
9.5825	2.9772
9.5649	2.9533
9.5472	2.9086
9.5297	2.8730
9.5122	2.7490
9.4948	2.7307
9.4774	2.6735
9.4601	2.5460
9.4429	2.5795
9.4257	2.5880
9.4086	2.4572
9.3916	2.4122
9.3746	2.4356
9.3577	2.3506
9.3408	2.3641
9.3240	2.3771
9.3073	2.2512
9.2906	2.2528
9.2740	2.3179
9.2574	2.3161
9.2409	2.2306
9.2245	2.1837
9.2081	2.3175
9.1918	2.5226
9.1755	2.4483
9.1593	2.2652
9.1431	2.3138
9.1270	2.3792
9.1110	2.3527
9.0950	2.3909
9.0791	2.4328
9.0632	2.4377
9.0474	2.3859
9.0316	2.3862
9.0159	2.4300
9.0003	2.4333
8.9847	2.4584
8.9691	2.4778
8.9536	2.5343
8.9382	2.5636
8.9228	2.5423
8.9075	2.5940
8.8922	2.6906
8.8770	2.6580
8.8618	2.6416
8.8467	2.6582
8.8316	2.6540
8.8166	2.6766
8.8016	2.6951
8.7867	2.7054
8.7718	2.7159
8.7570	2.6285
8.7422	2.6234
8.7275	2.7535
8.7129	2.8239
8.6982	2.7698
8.6837	2.8000
8.6692	2.8085
8.6547	2.7696
8.6403	2.8106
8.6259	2.7680
8.6116	2.7354
8.5973	2.8148
8.5830	2.8974
8.5688	2.8690
8.5547	2.8343
8.5406	2.8423
8.5266	2.8788
8.5126	2.9161
8.4986	2.9649
8.4847	2.9995
8.4708	3.0691
8.4570	3.0909
8.4432	3.0836
8.4295	3.0930
8.4158	3.1260
8.4022	3.1013
8.3886	3.1329
8.3750	3.1877
8.3615	3.2065
8.3481	3.1805
8.3347	3.1143
8.3213	3.1156
8.3079	3.1186
8.2946	3.1045
8.2814	3.0727
8.2682	2.9632
8.2550	2.8626
8.2419	2.7291
8.2288	2.6104
8.2158	2.5026
8.2028	2.4031
8.1898	2.3109
8.1769	2.2210
8.1640	2.1368
8.1512	2.0634
8.1384	1.9995
8.1256	1.9371
8.1129	1.8652
8.1002	1.8119
8.0876	1.8124
8.0750	1.7824
8.0624	1.7297
8.0499	1.7316
8.0374	1.7437
8.0250	1.7194
8.0126	1.7288
8.0002	1.7906
7.9879	1.8129
7.9756	1.7967
7.9634	1.7916
7.9512	1.8042
7.9390	1.8379
7.9268	1.8574
7.9147	1.9071
7.9027	1.9676
7.8906	1.9837
7.8786	2.0473
7.8667	2.1300
7.8548	2.2067
7.8429	2.2425
7.8310	2.2692
7.8192	2.3224
7.8075	2.3678
7.7957	2.3932
7.7840	2.4954
7.7723	2.6529
7.7607	2.7063
7.7491	2.7363
7.7375	2.8045
7.7260	2.8821
7.7145	2.9763
7.7031	3.0488
7.6916	3.1179
7.6802	3.2114
7.6689	3.1922
7.6575	3.2255
7.6462	3.4158
7.6350	3.5023
7.6238	3.5376
7.6126	3.5857
7.6014	3.6642
7.5903	3.7940
7.5792	3.9059
7.5681	3.9174
7.5571	4.0374
7.5461	4.1587
7.5351	4.2082
7.5242	4.2659
7.5133	4.3730
7.5024	4.4815
7.4916	4.5766
7.4807	4.6207
7.4700	4.6966
7.4592	4.7517
7.4485	4.8096
7.4378	4.9024
7.4272	4.9985
7.4165	5.0301
7.4059	5.0628
7.3954	5.1246
7.3848	5.2228
7.3743	5.2668
7.3639	5.2481
7.3534	5.3133
7.3430	5.3777
7.3326	5.4208
7.3223	5.4304
7.3119	5.3468
7.3016	5.2875
7.2914	5.3137
7.2811	5.3628
7.2709	5.3800
7.2607	5.3976
7.2506	5.4190
7.2404	5.3852
7.2303	5.3556
7.2203	5.3857
7.2102	5.3590
7.2002	5.3299
7.1902	5.3456
7.1803	5.3388
7.1703	5.3125
7.1604	5.3166
7.1506	5.3709
7.1407	5.3522
7.1309	5.3641
7.1211	5.5263
7.1113	5.6979
7.1016	5.7942
7.0919	5.8558
7.0822	5.8779
7.0725	5.8572
7.0629	5.8106
7.0533	5.7961
7.0437	5.8481
7.0341	5.8491
7.0246	5.8423
7.0151	5.8013
7.0056	5.7841
6.9962	5.7998
6.9867	5.7883
6.9773	5.7799
6.9679	5.7844
6.9586	5.7558
6.9493	5.7161
6.9400	5.7434
6.9307	5.7613
6.9214	5.7792
6.9122	5.8080
6.9030	5.8314
6.8938	5.8725
6.8847	5.9252
6.8755	5.9423
6.8664	5.9465
6.8573	5.9892
6.8483	6.0572
6.8393	6.1155
6.8302	6.1837
6.8213	6.2221
6.8123	6.2988
6.8034	6.3686
6.7944	6.3488
6.7855	6.3626
6.7767	6.4525
6.7678	6.5480
6.7590	6.5941
6.7502	6.6509
6.7414	6.7495
6.7327	6.8556
6.7239	6.8892
6.7152	7.0038
6.7065	7.1220
6.6979	7.1480
6.6892	7.2197
6.6806	7.3348
6.6720	7.4732
6.6634	7.5602
6.6549	7.6054
6.6464	7.6727
6.6378	7.8060
6.6294	7.8916
6.6209	7.9612
6.6124	8.1291
6.6040	8.2612
6.5956	8.3815
6.5872	8.5050
6.5789	8.6288
6.5705	8.7701
6.5622	8.8641
6.5539	8.9796
6.5456	9.0820
6.5374	9.1706
6.5292	9.3173
6.5209	9.4699
6.5128	9.5552
6.5046	9.6478
6.4964	9.7636
6.4883	9.8660
6.4802	9.9719
6.4721	10.039
6.4640	10.127
6.4560	10.239
6.4480	10.373
6.4399	10.484
6.4320	10.519
6.4240	10.539
6.4160	10.588
6.4081	10.616
6.4002	10.606
6.3923	10.628
6.3844	10.632
6.3766	10.614
6.3687	10.621
6.3609	10.630
6.3531	10.662
6.3454	10.672
6.3376	10.647
6.3299	10.593
6.3221	10.563
6.3144	10.540
6.3068	10.533
6.2991	10.511
6.2914	10.510
6.2838	10.539
6.2762	10.533
6.2686	10.521
6.2611	10.566
6.2535	10.620
6.2460	10.623
6.2385	10.642
6.2310	10.607
6.2235	10.561
6.2160	10.623
6.2086	10.668
6.2011	10.618
6.1937	10.582
6.1863	10.592
6.1790	10.592
6.1716	10.546
6.1643	10.540
6.1570	10.576
6.1496	10.620
6.1424	10.689
6.1351	10.747
6.1278	10.863
6.1206	10.830
6.1134	10.772
6.1062	10.779
6.0990	10.855
6.0918	10.923
6.0847	10.891
6.0776	10.882
6.0704	10.969
6.0633	11.036
6.0563	11.074
6.0492	11.104
6.0421	11.129
6.0351	11.172
6.0281	11.191
6.0211	11.238
6.0141	11.306
6.0071	11.376
6.0002	11.413
5.9932	11.458
5.9863	11.576
5.9794	11.644
5.9725	11.663
5.9657	11.694
5.9588	11.748
5.9520	11.784
5.9451	11.818
5.9383	11.899
5.9315	12.010
5.9247	12.030
5.9180	12.001
5.9112	12.040
5.9045	12.139
5.8978	12.260
5.8911	12.278
5.8844	12.287
5.8777	12.394
5.8711	12.444
5.8644	12.496
5.8578	12.559
5.8512	12.616
5.8446	12.677
5.8380	12.753
5.8314	12.810
5.8249	12.851
5.8184	12.927
5.8118	12.989
5.8053	12.960
5.7988	12.920
5.7923	12.975
5.7859	13.040
5.7794	13.054
5.7730	13.105
5.7666	13.192
5.7602	13.171
5.7538	13.200
5.7474	13.273
5.7410	13.293
5.7347	13.267
5.7283	13.265
5.7220	13.322
5.7157	13.387
5.7094	13.430
5.7031	13.457
5.6969	13.511
5.6906	13.549
5.6844	13.569
5.6782	13.628
5.6719	13.661
5.6657	13.696
5.6596	13.737
5.6534	13.751
5.6472	13.802
5.6411	13.865
5.6349	13.908
5.6288	13.961
5.6227	14.004
5.6166	14.008
5.6106	13.998
5.6045	14.005
5.5984	13.973
5.5924	13.781
5.5864	13.530
5.5804	13.338
5.5744	13.280
5.5684	13.229
5.5624	13.311
5.5564	13.604
5.5505	13.954
5.5445	14.295
5.5386	14.552
5.5327	14.757
5.5268	14.934
5.5209	15.074
5.5151	15.214
5.5092	15.302
5.5033	15.395
5.4975	15.486
5.4917	15.575
5.4859	15.668
5.4801	15.734
5.4743	15.816
5.4685	15.938
5.4628	16.026
5.4570	16.095
5.4513	16.223
5.4455	16.335
5.4398	16.441
5.4341	16.588
5.4284	16.762
5.4228	16.861
5.4171	16.971
5.4114	17.132
5.4058	17.240
5.4002	17.364
5.3945	17.548
5.3889	17.705
5.3833	17.831
5.3778	17.938
5.3722	18.022
5.3666	18.165
5.3611	18.296
5.3555	18.408
5.3500	18.518
5.3445	18.547
5.3390	18.653
5.3335	18.759
5.3280	18.829
5.3225	18.917
5.3171	19.004
5.3116	19.087
5.3062	19.186
5.3008	19.305
5.2954	19.376
5.2900	19.437
5.2846	19.564
5.2792	19.674
5.2738	19.792
5.2684	19.872
5.2631	19.975
5.2578	20.077
5.2524	20.134
5.2471	20.273
5.2418	20.439
5.2365	20.520
5.2312	20.603
5.2260	20.763
5.2207	20.948
5.2154	21.116
5.2102	21.235
5.2050	21.395
5.1998	21.604
5.1945	21.768
5.1893	21.894
5.1842	22.046
5.1790	22.185
5.1738	22.325
5.1686	22.532
5.1635	22.674
5.1584	22.831
5.1532	23.041
5.1481	23.204
5.1430	23.374
5.1379	23.576
5.1328	23.722
5.1277	23.845
5.1227	24.029
5.1176	24.222
5.1126	24.397
5.1075	24.596
5.1025	24.786
5.0975	24.963
5.0925	25.168
5.0875	25.357
5.0825	25.586
5.0775	25.790
5.0726	25.964
5.0676	26.115
5.0627	26.300
5.0577	26.507
5.0528	26.693
5.0479	26.839
5.0430	26.949
5.0380	27.146
5.0332	27.358
5.0283	27.498
5.0234	27.608
5.0185	27.730
5.0137	27.883
5.0088	28.012
5.0040	28.128
4.9992	28.285
4.9944	28.419
4.9896	28.510
4.9848	28.609
4.9800	28.783
4.9752	28.901
4.9704	29.046
4.9657	29.176
4.9609	29.274
4.9562	29.387
4.9514	29.452
4.9467	29.525
4.9420	29.638
4.9373	29.764
4.9326	29.868
4.9279	29.910
4.9232	29.958
4.9186	30.028
4.9139	30.068
4.9092	30.163
4.9046	30.243
4.9000	30.363
4.8953	30.442
4.8907	30.486
4.8861	30.619
4.8815	30.728
4.8769	30.786
4.8723	30.921
4.8678	31.056
4.8632	31.117
4.8586	31.163
4.8541	31.305
4.8495	31.443
4.8450	31.536
4.8405	31.577
4.8360	31.608
4.8315	31.732
4.8270	31.822
4.8225	31.866
4.8180	31.955
4.8135	32.042
4.8090	32.101
4.8046	32.108
4.8001	32.117
4.7957	32.140
4.7913	32.216
4.7868	32.306
4.7824	32.342
4.7780	32.372
4.7736	32.472
4.7692	32.507
4.7648	32.550
4.7605	32.653
4.7561	32.741
4.7517	32.815
4.7474	32.944
4.7431	32.994
4.7387	33.042
4.7344	33.130
4.7301	33.261
4.7258	33.351
4.7215	33.389
4.7172	33.424
4.7129	33.513
4.7086	33.626
4.7043	33.740
4.7000	33.830
4.6958	33.917
4.6915	33.993
4.6873	34.083
4.6831	34.178
4.6788	34.273
4.6746	34.403
4.6704	34.531
4.6662	34.648
4.6620	34.712
4.6578	34.765
4.6536	34.894
4.6495	35.096
4.6453	35.235
4.6411	35.322
4.6370	35.488
4.6328	35.670
4.6287	35.772
4.6246	35.906
4.6205	36.031
4.6163	36.169
4.6122	36.352
4.6081	36.485
4.6040	36.581
4.6000	36.729
4.5959	36.848
4.5918	36.967
4.5877	37.117
4.5837	37.237
4.5796	37.332
4.5756	37.426
4.5716	37.589
4.5675	37.726
4.5635	37.800
4.5595	37.882
4.5555	37.978
4.5515	38.099
4.5475	38.173
4.5435	38.254
4.5395	38.316
4.5356	38.356
4.5316	38.357
4.5276	38.302
4.5237	38.280
4.5197	38.285
4.5158	38.324
4.5119	38.236
4.5080	38.127
4.5040	38.061
4.5001	37.955
4.4962	37.825
4.4923	37.737
4.4884	37.660
4.4846	37.513
4.4807	37.410
4.4768	37.404
4.4730	37.417
4.4691	37.507
4.4652	37.625
4.4614	37.755
4.4576	37.958
4.4537	38.196
4.4499	38.490
4.4461	38.891
4.4423	39.319
4.4385	39.702
4.4347	40.066
4.4309	40.442
4.4271	40.811
4.4233	41.131
4.4196	41.428
4.4158	41.709
4.4120	41.929
4.4083	42.187
4.4045	42.457
4.4008	42.700
4.3971	42.894
4.3934	43.077
4.3896	43.235
4.3859	43.401
4.3822	43.571
4.3785	43.744
4.3748	43.889
4.3711	44.022
4.3674	44.128
4.3638	44.288
4.3601	44.366
4.3564	44.432
4.3528	44.570
4.3491	44.656
4.3455	44.712
4.3418	44.789
4.3382	44.862
4.3346	44.940
4.3310	45.092
4.3273	45.168
4.3237	45.181
4.3201	45.300
4.3165	45.414
4.3129	45.417
4.3094	45.421
4.3058	45.475
4.3022	45.565
4.2986	45.652
4.2951	45.620
4.2915	45.629
4.2880	45.735
4.2844	45.804
4.2809	45.861
4.2774	45.980
4.2738	45.968
4.2703	45.944
4.2668	45.995
4.2633	46.073
4.2598	46.091
4.2563	46.194
4.2528	46.311
4.2493	46.309
4.2458	46.367
4.2424	46.383
4.2389	46.347
4.2354	46.401
4.2320	46.455
4.2285	46.506
4.2251	46.535
4.2216	46.579
4.2182	46.605
4.2148	46.674
4.2113	46.761
4.2079	46.887
4.2045	46.983
4.2011	46.954
4.1977	46.911
4.1943	46.939
4.1909	46.969
4.1875	47.016
4.1841	47.031
4.1808	47.064
4.1774	47.155
4.1740	47.144
4.1707	47.154
4.1673	47.106
4.1640	47.121
4.1606	47.203
4.1573	47.180
4.1540	47.138
4.1506	47.143
4.1473	47.174
4.1440	47.150
4.1407	47.141
4.1374	47.215
4.1341	47.211
4.1308	47.191
4.1275	47.215
4.1242	47.176
4.1209	47.153
4.1177	47.167
4.1144	47.145
4.1111	47.099
4.1079	47.079
4.1046	47.090
4.1014	47.089
4.0981	47.047
4.0949	47.051
4.0917	47.026
4.0884	46.946
4.0852	46.903
4.0820	46.943
4.0788	46.917
4.0756	46.877
4.0724	46.870
4.0692	46.866
4.0660	46.854
4.0628	46.792
4.0596	46.713
4.0565	46.640
4.0533	46.581
4.0501	46.486
4.0470	46.360
4.0438	46.270
4.0406	46.100
4.0375	45.943
4.0344	45.825
4.0312	45.703
4.0281	45.531
4.0250	45.336
4.0218	45.168
4.0187	44.986
4.0156	44.776
4.0125	44.387
4.0094	43.848
4.0063	43.312
4.0032	42.755
4.0001	42.121
3.9970	41.579
3.9940	41.100
3.9909	40.585
3.9878	40.186
3.9847	39.968
3.9817	39.886
3.9786	39.869
3.9756	39.924
3.9725	40.005
3.9695	40.165
3.9665	40.402
3.9634	40.668
3.9604	40.899
3.9574	41.209
3.9544	41.670
3.9513	42.131
3.9483	42.515
3.9453	42.912
3.9423	43.328
3.9393	43.672
3.9363	43.876
3.9333	43.910
3.9304	43.862
3.9274	43.915
3.9244	43.953
3.9214	44.013
3.9185	44.127
3.9155	44.160
3.9126	44.104
3.9096	44.103
3.9067	44.141
3.9037	44.158
3.9008	44.152
3.8979	44.113
3.8949	44.070
3.8920	44.104
3.8891	44.103
3.8862	44.106
3.8833	44.080
3.8804	44.071
3.8775	44.094
3.8746	44.044
3.8717	44.023
3.8688	44.058
3.8659	44.056
3.8630	44.012
3.8601	43.960
3.8573	43.966
3.8544	44.000
3.8515	44.052
3.8487	44.046
3.8458	44.042
3.8430	44.029
3.8401	44.057
3.8373	44.098
3.8344	44.181
3.8316	44.306
3.8288	44.375
3.8259	44.414
3.8231	44.486
3.8203	44.587
3.8175	44.706
3.8147	44.697
3.8119	44.696
3.8091	44.782
3.8063	44.848
3.8035	44.880
3.8007	44.887
3.7979	44.958
3.7951	44.988
3.7924	44.990
3.7896	45.013
3.7868	45.051
3.7841	45.010
3.7813	44.927
3.7785	44.918
3.7758	44.917
3.7730	44.858
3.7703	44.781
3.7676	44.755
3.7648	44.749
3.7621	44.682
3.7594	44.597
3.7566	44.598
3.7539	44.572
3.7512	44.490
3.7485	44.387
3.7458	44.352
3.7431	44.355
3.7404	44.263
3.7377	44.165
3.7350	44.072
3.7323	44.001
3.7296	43.984
3.7269	43.903
3.7242	43.841
3.7216	43.844
3.7189	43.777
3.7162	43.704
3.7136	43.665
3.7109	43.562
3.7083	43.502
3.7056	43.505
3.7030	43.459
3.7003	43.379
3.6977	43.285
3.6950	43.189
3.6924	43.127
3.6898	43.103
3.6872	43.025
3.6845	42.918
3.6819	42.825
3.6793	42.766
3.6767	42.696
3.6741	42.612
3.6715	42.537
3.6689	42.509
3.6663	42.467
3.6637	42.355
3.6611	42.292
3.6585	42.233
3.6560	42.118
3.6534	42.021
3.6508	41.939
3.6482	41.915
3.6457	41.883
3.6431	41.796
3.6406	41.711
3.6380	41.625
3.6355	41.479
3.6329	41.425
3.6304	41.393
3.6278	41.257
3.6253	41.157
3.6227	41.134
3.6202	41.082
3.6177	41.001
3.6152	40.876
3.6127	40.784
3.6101	40.787
3.6076	40.696
3.6051	40.585
3.6026	40.511
3.6001	40.434
3.5976	40.345
3.5951	40.318
3.5926	40.255
3.5901	40.141
3.5876	40.033
3.5852	39.924
3.5827	39.842
3.5802	39.775
3.5777	39.681
3.5753	39.581
3.5728	39.521
3.5704	39.486
3.5679	39.412
3.5654	39.346
3.5630	39.270
3.5605	39.187
3.5581	39.106
3.5557	38.981
3.5532	38.892
3.5508	38.814
3.5484	38.747
3.5459	38.680
3.5435	38.533
3.5411	38.359
3.5387	38.291
3.5363	38.227
3.5338	38.072
3.5314	37.891
3.5290	37.720
3.5266	37.564
3.5242	37.386
3.5218	37.168
3.5195	36.951
3.5171	36.790
3.5147	36.658
3.5123	36.484
3.5099	36.294
3.5075	36.185
3.5052	36.079
3.5028	35.908
3.5004	35.721
3.4981	35.609
3.4957	35.424
3.4934	35.224
3.4910	35.107
3.4887	34.980
3.4863	34.843
3.4840	34.737
3.4816	34.504
3.4793	34.344
3.4770	34.321
3.4746	34.318
3.4723	34.344
3.4700	34.410
3.4677	34.509
3.4653	34.639
3.4630	34.712
3.4607	34.709
3.4584	34.653
3.4561	34.516
3.4538	34.407
3.4515	34.315
3.4492	34.245
3.4469	34.145
3.4446	34.056
3.4423	33.995
3.4400	33.923
3.4378	33.763
3.4355	33.681
3.4332	33.590
3.4309	33.471
3.4287	33.396
3.4264	33.332
3.4241	33.244
3.4219	33.117
3.4196	32.979
3.4174	32.843
3.4151	32.749
3.4129	32.598
3.4106	32.439
3.4084	32.401
3.4061	32.307
3.4039	32.152
3.4017	32.025
3.3994	31.904
3.3972	31.883
3.3950	31.780
3.3928	31.658
3.3906	31.569
3.3883	31.413
3.3861	31.225
3.3839	31.077
3.3817	31.027
3.3795	31.001
3.3773	30.934
3.3751	30.846
3.3729	30.760
3.3707	30.595
3.3685	30.435
3.3663	30.406
3.3641	30.290
3.3620	30.131
3.3598	30.022
3.3576	29.885
3.3554	29.717
3.3533	29.551
3.3511	29.469
3.3489	29.475
3.3468	29.477
3.3446	29.458
3.3425	29.434
3.3403	29.485
3.3382	29.578
3.3360	29.568
3.3339	29.520
3.3317	29.491
3.3296	29.450
3.3274	29.403
3.3253	29.339
3.3232	29.261
3.3210	29.210
3.3189	29.120
3.3168	29.103
3.3147	29.064
3.3126	29.006
3.3104	29.011
3.3083	28.978
3.3062	28.924
3.3041	28.905
3.3020	28.820
3.2999	28.740
3.2978	28.694
3.2957	28.596
3.2936	28.533
3.2915	28.548
3.2894	28.531
3.2874	28.435
3.2853	28.388
3.2832	28.364
3.2811	28.397
3.2790	28.424
3.2770	28.361
3.2749	28.295
3.2728	28.189
3.2708	28.159
3.2687	28.126
3.2666	28.069
3.2646	27.954
3.2625	27.903
3.2605	27.902
3.2584	27.860
3.2564	27.767
3.2543	27.671
3.2523	27.549
3.2503	27.518
3.2482	27.445
3.2462	27.363
3.2442	27.251
3.2421	27.105
3.2401	26.969
3.2381	26.886
3.2361	26.769
3.2340	26.686
3.2320	26.595
3.2300	26.463
3.2280	26.339
3.2260	26.240
3.2240	26.065
3.2220	25.922
3.2200	25.815
3.2180	25.683
3.2160	25.479
3.2140	25.293
3.2120	25.197
3.2100	25.069
3.2080	24.960
3.2060	24.810
3.2040	24.722
3.2021	24.634
3.2001	24.485
3.1981	24.472
3.1961	24.508
3.1942	24.299
3.1922	24.128
3.1902	24.135
3.1883	24.070
3.1863	23.947
3.1844	23.879
3.1824	23.845
3.1805	23.841
3.1785	23.858
3.1766	23.760
3.1746	23.756
3.1727	23.691
3.1707	23.654
3.1688	23.691
3.1669	23.690
3.1649	23.667
3.1630	23.610
3.1611	23.569
3.1591	23.582
3.1572	23.560
3.1553	23.552
3.1534	23.615
3.1515	23.629
3.1495	23.660
3.1476	23.752
3.1457	23.656
3.1438	23.553
3.1419	23.562
3.1400	23.611
3.1381	23.623
3.1362	23.619
3.1343	23.713
3.1324	23.831
3.1305	23.913
3.1286	23.861
3.1268	23.813
3.1249	23.788
3.1230	23.793
3.1211	23.891
3.1192	23.964
3.1174	24.070
3.1155	24.072
3.1136	24.020
3.1117	24.097
3.1099	24.157
3.1080	24.106
3.1061	24.165
3.1043	24.243
3.1024	24.234
3.1006	24.206
3.0987	24.129
3.0969	24.241
3.0950	24.204
3.0932	24.181
3.0913	24.234
3.0895	24.282
3.0876	24.335
3.0858	24.275
3.0840	24.327
3.0821	24.393
3.0803	24.350
3.0785	24.428
3.0766	24.430
3.0748	24.321
3.0730	24.389
3.0712	24.486
3.0694	24.438
3.0675	24.411
3.0657	24.530
3.0639	24.565
3.0621	24.402
3.0603	24.390
3.0585	24.439
3.0567	24.413
3.0549	24.351
3.0531	24.301
3.0513	24.265
3.0495	24.385
3.0477	24.440
3.0459	24.334
3.0441	24.283
3.0423	24.339
3.0406	24.289
3.0388	24.173
3.0370	24.187
3.0352	24.157
3.0334	24.109
3.0317	23.987
3.0299	23.910
3.0281	23.907
3.0264	23.899
3.0246	23.891
3.0228	23.736
3.0211	23.589
3.0193	23.513
3.0176	23.480
3.0158	23.532
3.0140	23.430
3.0123	23.386
3.0105	23.328
3.0088	23.129
3.0070	22.945
3.0053	22.884
3.0036	22.828
3.0018	22.816
3.0001	22.633
2.9984	22.518
2.9966	22.432
2.9949	22.443
2.9932	22.428
2.9914	22.163
2.9897	22.041
2.9880	21.966
2.9863	21.685
2.9845	21.532
2.9828	21.509
2.9811	21.396
2.9794	21.129
2.9777	20.975
2.9760	20.847
2.9743	20.771
2.9726	20.711
2.9709	20.541
2.9692	20.407
2.9675	20.235
2.9658	20.031
2.9641	19.943
2.9624	19.747
2.9607	19.576
2.9590	19.475
2.9573	19.364
2.9556	19.455
2.9539	19.336
2.9523	19.142
2.9506	18.994
2.9489	18.951
2.9472	18.755
2.9455	18.581
2.9439	18.560
2.9422	18.480
2.9405	18.382
2.9389	18.332
2.9372	18.328
2.9355	18.305
2.9339	18.312
2.9322	18.229
2.9306	18.189
2.9289	18.204
2.9272	18.231
2.9256	18.296
2.9239	18.298
2.9223	18.372
2.9207	18.523
2.9190	18.631
2.9174	18.712
2.9157	18.825
2.9141	19.011
2.9124	19.135
2.9108	19.191
2.9092	19.290
2.9075	19.359
2.9059	19.462
2.9043	19.545
2.9027	19.499
2.9010	19.508
2.8994	19.674
2.8978	19.787
2.8962	19.721
2.8946	19.674
2.8929	19.817
2.8913	19.911
2.8897	19.844
2.8881	19.687
2.8865	19.590
2.8849	19.545
2.8833	19.402
2.8817	19.212
2.8801	19.096
2.8785	18.960
2.8769	18.813
2.8753	18.616
2.8737	18.422
2.8721	18.312
2.8705	18.280
2.8689	18.250
2.8673	18.263
2.8658	18.301
2.8642	18.320
2.8626	18.285
2.8610	18.365
2.8594	18.571
2.8579	18.691
2.8563	18.775
2.8547	18.900
2.8531	18.939
2.8516	18.945
2.8500	19.001
2.8484	19.008
2.8469	18.939
2.8453	19.157
2.8437	19.280
2.8422	19.173
2.8406	19.187
2.8391	19.255
2.8375	19.205
2.8360	19.264
2.8344	19.383
2.8329	19.440
2.8313	19.396
2.8298	19.454
2.8282	19.546
2.8267	19.425
2.8252	19.357
2.8236	19.339
2.8221	19.351
2.8205	19.357
2.8190	19.388
2.8175	19.480
2.8159	19.504
2.8144	19.526
2.8129	19.500
2.8114	19.430
2.8098	19.611
2.8083	19.750
2.8068	19.829
2.8053	19.871
2.8038	19.969
2.8022	20.004
2.8007	19.972
2.7992	20.008
2.7977	20.108
2.7962	20.114
2.7947	19.973
2.7932	19.820
2.7917	19.767
2.7902	19.678
2.7887	19.540
2.7872	19.311
2.7857	18.977
2.7842	18.689
2.7827	18.342
2.7812	18.000
2.7797	17.607
2.7782	17.178
2.7767	16.919
2.7752	16.652
2.7738	16.277
2.7723	15.767
2.7708	15.380
2.7693	15.004
2.7678	14.681
2.7664	14.469
2.7649	14.207
2.7634	14.009
2.7619	13.927
2.7605	13.748
2.7590	13.510
2.7575	13.477
2.7561	13.549
2.7546	13.583
2.7531	13.670
2.7517	13.964
2.7502	14.260
2.7488	14.519
2.7473	14.717
2.7458	14.981
2.7444	15.272
2.7429	15.517
2.7415	15.794
2.7400	16.212
2.7386	16.639
2.7371	16.919
2.7357	17.324
2.7343	17.743
2.7328	18.163
2.7314	18.593
2.7299	19.156
2.7285	19.951
2.7271	20.749
2.7256	21.614
2.7242	22.574
2.7228	23.559
2.7213	24.585
2.7199	25.869
2.7185	27.311
2.7171	28.793
2.7156	30.191
2.7142	31.679
2.7128	33.161
2.7114	34.512
2.7100	35.747
2.7085	36.891
2.7071	38.020
2.7057	39.023
2.7043	39.808
2.7029	40.526
2.7015	41.162
2.7001	41.594
2.6987	41.924
2.6973	42.300
2.6959	42.790
2.6945	43.266
2.6931	43.618
2.6917	43.814
2.6903	44.137
2.6889	44.461
2.6875	44.828
2.6861	45.097
2.6847	45.314
2.6833	45.607
2.6819	45.832
2.6805	46.030
2.6791	46.193
2.6778	46.312
2.6764	46.403
2.6750	46.586
2.6736	46.849
2.6722	46.956
2.6709	47.122
2.6695	47.359
2.6681	47.428
2.6667	47.629
2.6654	47.783
2.6640	47.818
2.6626	47.922
2.6613	48.091
2.6599	48.111
2.6585	48.082
2.6572	48.254
2.6558	48.372
2.6545	48.412
2.6531	48.528
2.6517	48.717
2.6504	48.718
2.6490	48.702
2.6477	48.803
2.6463	48.913
2.6450	48.987
2.6436	48.876
2.6423	48.805
2.6409	48.894
2.6396	48.943
2.6382	48.961
2.6369	48.908
2.6356	48.973
2.6342	49.063
2.6329	49.058
2.6315	49.132
2.6302	49.176
2.6289	49.112
2.6275	49.032
2.6262	48.993
2.6249	48.997
2.6236	49.070
2.6222	49.040
2.6209	49.132
2.6196	49.182
2.6183	49.203
2.6169	49.151
2.6156	49.212
2.6143	49.207
2.6130	49.165
2.6117	49.169
2.6103	49.250
2.6090	49.250
2.6077	49.268
2.6064	49.283
2.6051	49.325
2.6038	49.409
2.6025	49.431
2.6012	49.401
2.5999	49.393
2.5986	49.356
2.5973	49.379
2.5960	49.463
2.5947	49.561
2.5934	49.474
2.5921	49.387
2.5908	49.465
2.5895	49.515
2.5882	49.598
2.5869	49.647
2.5856	49.546
2.5843	49.523
2.5830	49.603
2.5817	49.565
2.5805	49.494
2.5792	49.479
2.5779	49.654
2.5766	49.661
2.5753	49.601
2.5741	49.629
2.5728	49.627
2.5715	49.636
2.5702	49.626
2.5690	49.602
2.5677	49.526
2.5664	49.533
2.5651	49.739
2.5639	49.701
2.5626	49.606
2.5613	49.686
2.5601	49.744
2.5588	49.834
2.5575	49.959
2.5563	49.901
2.5550	49.825
2.5538	49.931
2.5525	49.870
2.5513	49.722
2.5500	49.776
2.5487	49.916
2.5475	49.897
2.5462	49.747
2.5450	49.815
2.5437	49.777
2.5425	49.793
2.5413	49.916
2.5400	49.918
2.5388	49.922
2.5375	49.857
2.5363	49.780
2.5350	49.867
2.5338	49.931
2.5326	49.875
2.5313	49.789
2.5301	49.893
2.5289	50.059
2.5276	50.017
2.5264	50.055
2.5252	50.111
2.5239	50.071
2.5227	49.986
2.5215	49.886
2.5202	49.870
2.5190	50.046
2.5178	50.194
2.5166	50.234
2.5154	50.171
2.5141	50.108
2.5129	50.092
2.5117	50.085
2.5105	50.058
2.5093	49.945
2.5081	50.028
2.5068	50.139
2.5056	50.040
2.5044	49.942
2.5032	49.993
2.5020	50.020
2.5008	50.025
2.4996	50.049
2.4984	49.976
2.4972	49.937
2.4960	50.021
2.4948	50.108
2.4936	50.197
2.4924	50.129
2.4912	50.030
2.4900	50.070
2.4888	50.211
2.4876	50.363
2.4864	50.323
2.4852	50.250
2.4840	50.203
2.4828	50.158
2.4816	50.135
2.4805	50.039
2.4793	50.151
2.4781	50.272
2.4769	50.232
2.4757	50.241
2.4745	50.244
2.4734	50.234
2.4722	50.166
2.4710	50.136
2.4698	50.179
2.4686	50.160
2.4675	50.174
2.4663	50.176
2.4651	50.228
2.4640	50.176
2.4628	50.274
2.4616	50.307
2.4604	50.243
2.4593	50.234
2.4581	50.348
2.4569	50.204
2.4558	49.973
2.4546	49.965
2.4535	50.190
2.4523	50.176
2.4511	50.027
2.4500	50.099
2.4488	50.194
2.4477	50.261
2.4465	50.156
2.4454	50.249
2.4442	50.301
2.4431	50.212
2.4419	50.212
2.4408	50.294
2.4396	50.275
2.4385	50.202
2.4373	50.104
2.4362	50.138
2.4350	50.284
2.4339	50.283
2.4327	50.201
2.4316	50.353
2.4305	50.379
2.4293	50.373
2.4282	50.253
2.4270	50.187
2.4259	50.304
2.4248	50.249
2.4236	50.159
2.4225	50.263
2.4214	50.337
2.4202	50.320
2.4191	50.280
2.4180	50.250
2.4169	50.249
2.4157	50.244
2.4146	50.411
2.4135	50.583
2.4124	50.388
2.4112	50.323
2.4101	50.362
2.4090	50.521
2.4079	50.399
2.4068	50.297
2.4056	50.274
2.4045	50.210
2.4034	50.299
2.4023	50.236
2.4012	50.206
2.4001	50.400
2.3990	50.264
2.3979	50.129
2.3967	50.061
2.3956	50.028
2.3945	49.983
2.3934	49.945
2.3923	49.948
2.3912	50.013
2.3901	50.089
2.3890	50.110
2.3879	49.874
2.3868	49.670
2.3857	49.856
2.3846	49.849
2.3835	49.687
2.3824	49.695
2.3813	49.786
2.3802	49.777
2.3791	49.725
2.3781	49.657
2.3770	49.826
2.3759	49.879
2.3748	49.714
2.3737	49.591
2.3726	49.546
2.3715	49.414
2.3704	49.350
2.3694	49.378
2.3683	49.319
2.3672	49.100
2.3661	49.062
2.3650	49.117
2.3640	49.049
2.3629	49.119
2.3618	49.056
2.3607	48.826
2.3597	48.690
2.3586	48.669
2.3575	48.658
2.3564	48.673
2.3554	48.636
2.3543	48.533
2.3532	48.569
2.3522	48.687
2.3511	48.624
2.3500	48.359
2.3490	48.278
2.3479	48.489
2.3468	48.667
2.3458	48.514
2.3447	48.422
2.3436	48.459
2.3426	48.378
2.3415	48.263
2.3405	48.280
2.3394	48.216
2.3384	48.241
2.3373	48.292
2.3363	48.266
2.3352	48.168
2.3342	48.246
2.3331	48.334
2.3321	48.381
2.3310	48.335
2.3300	48.489
2.3289	48.856
2.3279	48.977
2.3268	48.976
2.3258	49.029
2.3247	49.100
2.3237	49.163
2.3226	49.467
2.3216	49.599
2.3206	49.473
2.3195	49.515
2.3185	49.700
2.3175	49.893
2.3164	50.032
2.3154	50.115
2.3144	50.101
2.3133	50.107
2.3123	50.061
2.3113	50.225
2.3102	50.308
2.3092	50.295
2.3082	50.313
2.3071	50.292
2.3061	50.373
2.3051	50.433
2.3041	50.391
2.3030	50.473
2.3020	50.441
2.3010	50.490
2.3000	50.478
2.2990	50.500
2.2979	50.588
2.2969	50.485
2.2959	50.349
2.2949	50.254
2.2939	50.445
2.2929	50.412
2.2918	50.371
2.2908	50.339
2.2898	50.423
2.2888	50.483
2.2878	50.401
2.2868	50.389
2.2858	50.559
2.2848	50.678
2.2838	50.666
2.2828	50.613
2.2818	50.580
2.2808	50.750
2.2798	50.843
2.2787	50.754
2.2777	50.728
2.2767	50.730
2.2757	50.666
2.2747	50.669
2.2738	50.696
2.2728	50.824
2.2718	50.931
2.2708	50.913
2.2698	50.835
2.2688	50.787
2.2678	50.654
2.2668	50.605
2.2658	50.602
2.2648	50.506
2.2638	50.551
2.2628	50.595
2.2618	50.695
2.2609	50.548
2.2599	50.469
2.2589	50.529
2.2579	50.514
2.2569	50.620
2.2559	50.681
2.2550	50.721
2.2540	50.629
2.2530	50.499
2.2520	50.532
2.2510	50.581
2.2501	50.573
2.2491	50.494
2.2481	50.501
2.2471	50.692
2.2462	50.775
2.2452	50.842
2.2442	50.794
2.2433	50.743
2.2423	50.797
2.2413	50.922
2.2403	50.798
2.2394	50.721
2.2384	50.884
2.2374	51.052
2.2365	50.910
2.2355	50.900
2.2345	50.990
2.2336	50.900
2.2326	50.950
2.2317	51.006
2.2307	50.847
2.2297	50.854
2.2288	50.959
2.2278	50.994
2.2269	51.123
2.2259	51.023
2.2250	50.969
2.2240	51.162
2.2231	51.162
2.2221	50.846
2.2211	50.802
2.2202	50.988
2.2192	51.005
2.2183	50.855
2.2173	50.899
2.2164	50.909
2.2155	50.944
2.2145	50.856
2.2136	50.945
2.2126	51.000
2.2117	50.932
2.2107	50.854
2.2098	50.821
2.2088	50.932
2.2079	50.898
2.2070	50.784
2.2060	50.694
2.2051	50.645
2.2041	50.726
2.2032	50.773
2.2023	50.621
2.2013	50.644
2.2004	50.850
2.1995	50.867
2.1985	50.743
2.1976	50.805
2.1967	50.841
2.1957	50.748
2.1948	50.857
2.1939	50.907
2.1930	50.827
2.1920	50.862
2.1911	50.961
2.1902	51.057
2.1893	51.184
2.1883	51.267
2.1874	51.063
2.1865	51.002
2.1856	51.226
2.1846	51.447
2.1837	51.417
2.1828	51.370
2.1819	51.270
2.1810	51.388
2.1800	51.529
2.1791	51.522
2.1782	51.635
2.1773	51.780
2.1764	51.756
2.1755	51.660
2.1746	51.803
2.1736	51.912
2.1727	51.788
2.1718	51.797
2.1709	52.039
2.1700	52.092
2.1691	51.848
2.1682	51.883
2.1673	52.149
2.1664	52.243
2.1655	52.150
2.1646	52.069
2.1637	52.043
2.1628	51.970
2.1619	52.060
2.1610	52.097
2.1601	52.213
2.1592	52.153
2.1583	52.187
2.1574	52.329
2.1565	52.271
2.1556	52.392
2.1547	52.463
2.1538	52.305
2.1529	52.278
2.1520	52.335
2.1511	52.296
2.1502	52.334
2.1493	52.555
2.1484	52.536
2.1475	52.478
2.1466	52.506
2.1458	52.382
2.1449	52.264
2.1440	52.508
2.1431	52.672
2.1422	52.676
2.1413	52.515
2.1404	52.429
2.1396	52.421
2.1387	52.464
2.1378	52.584
2.1369	52.564
2.1360	52.470
2.1352	52.536
2.1343	52.596
2.1334	52.526
2.1325	52.459
2.1316	52.450
2.1308	52.624
2.1299	52.664
2.1290	52.482
2.1281	52.189
2.1273	52.251
2.1264	52.477
2.1255	52.641
2.1247	52.609
2.1238	52.527
2.1229	52.572
2.1220	52.412
2.1212	52.275
2.1203	52.342
2.1194	52.414
2.1186	52.453
2.1177	52.604
2.1168	52.702
2.1160	52.594
2.1151	52.431
2.1143	52.336
2.1134	52.345
2.1125	52.444
2.1117	52.432
2.1108	52.461
2.1100	52.532
2.1091	52.608
2.1082	52.546
2.1074	52.464
2.1065	52.453
2.1057	52.527
2.1048	52.661
2.1040	52.689
2.1031	52.596
2.1023	52.478
2.1014	52.438
2.1005	52.534
2.0997	52.448
2.0988	52.501
2.0980	52.621
2.0971	52.570
2.0963	52.361
2.0955	52.206
2.0946	52.337
2.0938	52.450
2.0929	52.527
2.0921	52.519
2.0912	52.542
2.0904	52.453
2.0895	52.271
2.0887	52.434
2.0879	52.602
2.0870	52.402
2.0862	52.360
2.0853	52.450
2.0845	52.521
2.0837	52.567
2.0828	52.620
2.0820	52.564
2.0812	52.396
2.0803	52.403
2.0795	52.505
2.0760	52.505
2.0720	52.305
2.0680	52.372
2.0640	52.239
2.0600	52.472
2.0560	52.539
2.0520	52.505
2.0480	52.439
2.0440	52.105
2.0400	51.972
2.0360	52.072
2.0320	52.105
2.0280	51.872
2.0240	51.905
2.0200	51.739
2.0160	51.772
2.0120	51.672
2.0080	51.705
2.0040	51.839
2.0000	51.539
1.9960	51.439
1.9920	51.239
1.9880	51.072
1.9840	50.672
1.9800	50.505
1.9760	50.205
1.9720	50.239
1.9680	50.172
1.9640	50.205
1.9600	50.139
1.9560	50.105
1.9520	50.105
1.9480	50.005
1.9440	49.939
1.9400	49.772
1.9360	49.405
1.9320	49.172
1.9280	48.972
1.9240	48.805
1.9200	48.739
1.9160	48.505
1.9120	48.472
1.9080	48.439
1.9040	48.405
1.9000	48.639
1.8960	49.239
1.8920	50.005
1.8880	50.372
1.8840	50.539
1.8800	50.205
1.8760	49.639
1.8720	49.039
1.8680	48.772
1.8640	49.072
1.8600	49.905
1.8560	50.405
1.8520	50.205
1.8480	49.905
1.8440	49.572
1.8400	49.305
1.8360	49.272
1.8320	49.305
1.8280	49.872
1.8240	50.105
1.8200	50.205
1.8160	50.172
1.8120	50.339
1.8080	50.372
1.8040	50.372
1.8000	50.272
1.7960	50.272
1.7920	50.272
1.7880	50.272
1.7840	50.372
1.7800	50.272
1.7760	50.205
1.7720	50.105
1.7680	50.005
1.7640	49.839
1.7600	49.672
1.7560	49.639
1.7520	49.839
1.7480	49.872
1.7440	50.005
1.7400	50.005
1.7360	49.972
1.7320	49.905
1.7280	49.739
1.7240	49.639
1.7200	49.805
1.7160	50.072
1.7120	50.272
1.7080	50.205
1.7040	49.972
1.7000	50.005
1.6960	50.005
1.6920	49.972
1.6880	49.839
1.6840	49.872
1.6800	49.905
1.6760	49.839
1.6720	49.705
1.6680	49.639
1.6640	49.739
1.6600	49.605
1.6560	49.539
1.6520	49.672
1.6480	49.739
1.6440	49.705
1.6400	49.605
1.6360	49.572
1.6320	49.605
1.6280	49.672
1.6240	49.505
1.6200	49.272
1.6160	49.172
1.6120	49.105
1.6080	49.105
1.6040	49.105
1.6000	49.105
1.5960	49.139
1.5920	49.205
1.5880	49.239
1.5840	49.305
1.5800	49.272
1.5760	49.472
1.5720	49.405
1.5680	49.305
1.5640	49.405
1.5600	49.539
1.5560	49.339
1.5520	49.239
1.5480	49.039
1.5440	49.039
1.5400	49.072
1.5360	49.072
1.5320	49.172
1.5280	49.139
1.5240	49.305
1.5200	49.172
1.5160	49.105
1.5120	49.072
1.5080	49.039
1.5040	48.905
1.5000	48.505
1.4960	48.505
1.4920	48.539
1.4880	48.639
1.4840	48.572
1.4800	48.605
1.4760	48.539
1.4720	48.472
1.4680	48.272
1.4640	48.272
1.4600	48.372
1.4560	48.272
1.4520	48.339
1.4480	48.272
1.4440	48.172
1.4400	48.072
1.4360	48.039
1.4320	48.105
1.4280	48.172
1.4240	48.205
1.4200	48.239
1.4160	48.005
1.4120	47.505
1.4080	47.172
1.4040	46.672
1.4000	46.639
1.3960	46.872
1.3920	46.872
1.3880	47.205
1.3840	47.705
1.3800	47.272
1.3760	47.172
1.3720	48.005
1.3680	48.172
1.3640	47.605
1.3600	47.239
1.3560	47.439
1.3520	48.039
1.3480	48.339
1.3440	48.605
1.3400	48.505
1.3360	48.439
1.3320	48.205
1.3280	47.839
1.3240	47.739
1.3200	47.672
1.3160	47.605
1.3120	47.672
1.3080	47.705
1.3040	47.672
1.3000	47.672
1.2960	47.639
1.2920	47.472
1.2880	47.139
1.2840	47.005
1.2800	46.605
1.2760	46.505
1.2720	46.339
1.2680	46.305
1.2640	46.239
1.2600	46.239
1.2560	46.205
1.2520	46.172
1.2480	46.105
1.2440	46.672
1.2400	46.839
1.2360	46.872
1.2320	46.772
1.2280	46.739
1.2240	46.639
1.2200	46.472
1.2160	46.372
1.2120	46.372
1.2080	46.272
1.2040	46.205
1.2000	46.272
1.1960	46.305
1.1920	46.372
1.1880	46.505
1.1840	46.505
1.1800	46.572
1.1760	46.672
1.1720	46.639
1.1680	46.572
1.1640	46.539
1.1600	46.439
1.1560	46.172
1.1520	45.905
1.1480	45.805
1.1440	45.872
1.1400	45.739
1.1360	45.639
1.1320	45.505
1.1280	45.772
1.1240	45.672
1.1200	45.472
1.1160	45.539
1.1120	45.805
1.1080	45.839
1.1040	45.939
1.1000	45.672
1.0960	45.639
1.0920	45.572
1.0880	45.605
1.0840	45.505
1.0800	45.339
1.0760	45.039
1.0720	45.239
1.0680	45.305
1.0640	45.239
1.0600	45.272
1.0560	45.272
1.0520	45.239
1.0480	45.105
1.0440	45.005
1.0400	44.905
1.0360	44.772
1.0320	44.739
1.0280	44.939
1.0240	44.839
1.0200	44.939
1.0160	45.239
1.0120	45.305
1.0080	45.372
1.0040	45.205
1.0000	45.305
0.9960	45.505
0.9920	45.505
0.9880	45.839
0.9840	45.639
0.9800	45.405
0.9760	45.372
0.9720	45.572
0.9680	45.672
0.9640	45.505
0.9600	45.405
0.9560	45.272
0.9520	45.039
0.9480	45.105
0.9440	45.139
0.9400	45.105
0.9360	45.205
0.9320	45.372
0.9280	45.572
0.9240	45.605
0.9200	45.639
0.9160	45.505
0.9120	45.339
0.9080	45.272
0.9040	45.139
0.9000	45.005
0.8960	45.039
0.8920	45.072
0.8880	44.939
0.8840	44.939
0.8800	44.739
0.8760	44.805
0.8720	44.372
0.8680	44.072
0.8640	44.172
0.8600	44.272
0.8560	44.072
0.8520	44.105
0.8480	44.005
0.8440	44.139
0.8400	43.839
0.8360	43.772
0.8320	43.705
0.8280	43.605
0.8240	43.672
0.8200	43.872
0.8160	43.972
0.8120	44.105
0.8080	44.239
0.8040	44.339
0.8000	44.339
0.7990	44.339
0.7980	44.339
0.7970	44.406
0.7960	44.539
0.7950	44.573
0.7940	44.506
0.7930	44.339
0.7920	44.539
0.7910	44.573
0.7900	44.639
0.7890	44.639
0.7880	44.639
0.7870	44.539
0.7860	44.306
0.7850	44.173
0.7840	44.273
0.7830	44.339
0.7820	44.473
0.7810	44.473
0.7800	44.473
0.7790	44.439
0.7780	44.506
0.7770	44.606
0.7760	44.373
0.7750	44.273
0.7740	44.373
0.7730	44.439
0.7720	44.373
0.7710	44.573
0.7700	44.406
0.7690	44.473
0.7680	44.606
0.7670	44.739
0.7660	44.739
0.7650	44.806
0.7640	44.439
0.7630	44.173
0.7620	44.206
0.7610	44.039
0.7600	44.206
0.7590	44.373
0.7580	44.273
0.7570	44.406
0.7560	44.273
0.7550	44.173
0.7540	44.239
0.7530	44.139
0.7520	44.139
0.7510	44.239
0.7500	44.239
0.7490	44.106
0.7480	43.906
0.7470	44.006
0.7460	43.939
0.7450	43.906
0.7440	43.873
0.7430	43.873
0.7420	43.873
0.7410	43.973
0.7400	43.839
0.7390	43.806
0.7380	43.873
0.7370	43.739
0.7360	43.706
0.7350	43.673
0.7340	43.773
0.7330	43.639
0.7320	43.539
0.7310	43.706
0.7300	43.706
0.7290	43.606
0.7280	43.306
0.7270	43.306
0.7260	43.306
0.7250	43.373
0.7240	43.406
0.7230	43.373
0.7220	43.439
0.7210	43.506
0.7200	43.506
0.7190	43.006
0.7180	42.773
0.7170	42.806
0.7160	42.873
0.7150	42.973
0.7140	42.939
0.7130	42.906
0.7120	43.006
0.7110	42.906
0.7100	42.739
0.7090	42.606
0.7080	42.573
0.7070	42.673
0.7060	42.773
0.7050	42.739
0.7040	42.706
0.7030	42.639
0.7020	42.706
0.7010	42.539
0.7000	42.473
0.6990	42.539
0.6980	42.539
0.6970	42.739
0.6960	42.805
0.6950	42.972
0.6940	42.872
0.6930	42.839
0.6920	42.872
0.6910	42.872
0.6900	42.872
0.6890	42.872
0.6880	42.939
0.6870	42.939
0.6860	42.939
0.6850	42.939
0.6840	42.739
0.6830	42.639
0.6820	42.705
0.6810	42.639
0.6800	42.639
0.6790	42.639
0.6780	42.705
0.6770	42.472
0.6760	42.505
0.6750	42.605
0.6740	42.572
0.6730	42.505
0.6720	42.339
0.6710	42.539
0.6700	42.439
0.6690	42.605
0.6680	42.605
0.6670	42.639
0.6660	42.639
0.6650	42.639
0.6640	42.572
0.6630	42.605
0.6620	42.505
0.6610	42.405
0.6600	42.239
0.6590	42.339
0.6580	42.405
0.6570	42.372
0.6560	42.439
0.6550	42.505
0.6540	42.505
0.6530	42.572
0.6520	42.505
0.6510	42.572
0.6500	42.539
0.6490	42.605
0.6480	42.639
0.6470	42.505
0.6460	42.705
0.6450	42.672
0.6440	42.639
0.6430	42.572
0.6420	42.705
0.6410	42.705
0.6400	42.805
0.6390	42.939
0.6380	42.772
0.6370	42.672
0.6360	42.639
0.6350	42.639
0.6340	42.639
0.6330	42.672
0.6320	42.805
0.6310	42.839
0.6300	42.772
0.6290	42.805
0.6280	42.805
0.6270	42.872
0.6260	42.905
0.6250	42.872
0.6240	42.772
0.6230	42.805
0.6220	42.805
0.6210	42.872
0.6200	43.039
0.6190	42.972
0.6180	42.905
0.6170	42.972
0.6160	42.972
0.6150	42.839
0.6140	42.772
0.6130	42.939
0.6120	42.939
0.6110	42.905
0.6100	42.705
0.6090	42.672
0.6080	42.805
0.6070	42.839
0.6060	42.872
0.6050	42.739
0.6040	42.639
0.6030	42.605
0.6020	42.572
0.6010	42.439
0.6000	42.205
0.5990	42.205
0.5980	42.305
0.5970	42.438
0.5960	42.338
0.5950	42.205
0.5940	42.271
0.5930	42.305
0.5920	42.171
0.5910	42.271
0.5900	42.305
0.5890	42.305
0.5880	42.438
0.5870	42.505
0.5860	42.471
0.5850	42.605
0.5840	42.605
0.5830	42.538
0.5820	42.538
0.5810	42.371
0.5800	42.605
0.5790	42.638
0.5780	42.571
0.5770	42.671
0.5760	42.638
0.5750	42.805
0.5740	42.871
0.5730	43.105
0.5720	43.338
0.5710	43.171
0.5700	43.205
0.5690	43.338
0.5680	43.305
0.5670	43.305
0.5660	43.338
0.5650	43.338
0.5640	43.305
0.5630	43.238
0.5620	43.238
0.5610	43.105
0.5600	43.005
0.5590	42.871
0.5580	43.171
0.5570	43.305
0.5560	43.405
0.5550	43.605
0.5540	43.438
0.5530	43.138
0.5520	43.338
0.5510	43.038
0.5500	42.871
0.5490	42.971
0.5480	43.038
0.5470	42.971
0.5460	43.271
0.5450	43.071
0.5440	42.971
0.5430	42.705
0.5420	42.805
0.5410	42.605
0.5400	42.905
0.5390	42.738
0.5380	42.838
0.5370	42.905
0.5360	42.738
0.5350	42.971
0.5340	42.938
0.5330	42.905
0.5320	42.971
0.5310	42.905
0.5300	42.605
0.5290	42.671
0.5280	42.638
0.5270	42.638
0.5260	42.538
0.5250	42.671
0.5240	42.571
0.5230	42.638
0.5220	42.538
0.5210	42.405
0.5200	42.405
0.5190	42.571
0.5180	42.605
0.5170	42.338
0.5160	42.405
0.5150	42.405
0.5140	42.305
0.5130	42.038
0.5120	42.238
0.5110	42.205
0.5100	42.371
0.5090	42.238
0.5080	42.271
0.5070	42.105
0.5060	42.038
0.5050	42.005
0.5040	41.905
0.5030	42.005
0.5020	41.738
0.5010	41.705
0.5000	41.938
0.4990	41.705
0.4980	41.538
0.4970	41.771
0.4960	41.671
0.4950	41.605
0.4940	41.505
0.4930	41.605
0.4920	41.771
0.4910	41.571
0.4900	41.605
0.4890	41.705
0.4880	41.538
0.4870	41.405
0.4860	41.071
0.4850	41.338
0.4840	41.405
0.4830	41.338
0.4820	41.205
0.4810	41.238
0.4800	41.005
0.4790	40.971
0.4780	41.005
0.4770	40.838
0.4760	40.805
0.4750	41.071
0.4740	40.938
0.4730	41.005
0.4720	40.838
0.4710	40.905
0.4700	40.771
0.4690	41.038
0.4680	40.838
0.4670	40.738
0.4660	40.371
0.4650	40.671
0.4640	40.838
0.4630	40.405
0.4620	40.771
0.4610	40.871
0.4600	40.505
0.4590	41.638
0.4580	41.571
0.4570	41.705
0.4560	41.538
0.4550	41.605
0.4540	41.338
0.4530	41.205
0.4520	41.171
0.4510	41.271
0.4500	41.305
0.4490	41.238
0.4480	41.205
0.4470	41.171
0.4460	41.105
0.4450	40.971
0.4440	40.605
0.4430	40.905
0.4420	40.738
0.4410	40.605
0.4400	40.771
0.4390	40.471
0.4380	40.671
0.4370	40.571
0.4360	40.638
0.4350	40.571
0.4340	40.471
0.4330	40.271
0.4320	40.138
0.4310	40.005
0.4300	40.138
0.4290	39.971
0.4280	40.005
0.4270	39.905
0.4260	39.738
0.4250	39.705
0.4240	39.405
0.4230	39.471
0.4220	39.171
0.4210	39.205
0.4200	39.071
0.4190	39.338
0.4180	39.038
0.4170	39.138
0.4160	39.138
0.4150	39.471
0.4140	39.438
0.4130	39.438
0.4120	39.205
0.4110	39.238
0.4100	39.005
0.4090	39.338
0.4080	39.071
0.4070	39.105
0.4060	38.738
0.4050	38.838
0.4040	38.705
0.4030	38.738
0.4020	38.605
0.4010	38.405
0.4000	38.305
