Name: Gray Quartzite
Type:  Rocks
Class:  Metamorphic 
Subclass: Quartzite
Particle Size:  0-75 Micrometer
Sample No.:   qrtzit5.doc
Owner:  JHU
Wavelength Range:  All
Origin:  Sample No. 382, The Hunt and Salisbury Collection at the U.S. 
Geological Survey, Denver, Co.
Description: This is a sample much like the previous one in composition.  It is a 
fine-grained slightly metamorphosed well-compacted sandstone with some 
secondary quartz deposition, and much more silica/chalcedony deposition.  The 
quartz grains, unlike the previous rock, show evidence of only weak strain and 
fewer fluid inclusions.  In addition there are scattered detrital green and brown 
tourmaline and zircon.   
Measurement:  Directional (10 Degree) Hemispherical Reflectance
First Column:  X
Second Column:  Y  
X Units:  Wavelength (micrometers)
Y Units:  Reflectance (percent)
First X Value: 14.9831
Last X Value:  0.4
Number of X Values: 2868
Additional Information:  qrtzit5a.txt

14.983	8.5301
14.940	8.1711
14.897	7.9061
14.854	7.7311
14.812	7.5947
14.770	7.4332
14.728	7.1909
14.686	6.8250
14.645	6.3348
14.603	5.7456
14.562	5.0906
14.521	4.4007
14.481	3.7145
14.441	3.0966
14.400	2.6256
14.361	2.3689
14.321	2.3708
14.281	2.6414
14.242	3.1525
14.203	3.8338
14.164	4.5949
14.126	5.3554
14.087	6.0530
14.049	6.6491
14.011	7.1322
13.973	7.5142
13.936	7.8154
13.899	8.0536
13.861	8.2443
13.824	8.4018
13.788	8.5294
13.751	8.6218
13.715	8.6743
13.679	8.6862
13.643	8.6585
13.607	8.5993
13.571	8.5225
13.536	8.4422
13.500	8.3622
13.465	8.2765
13.430	8.1746
13.396	8.0444
13.361	7.8737
13.327	7.6555
13.293	7.3901
13.259	7.0817
13.225	6.7376
13.191	6.3663
13.158	5.9803
13.124	5.5941
13.091	5.2246
13.058	4.8945
13.026	4.6271
12.993	4.4448
12.960	4.3595
12.928	4.3655
12.896	4.4348
12.864	4.5196
12.832	4.5637
12.800	4.5208
12.769	4.3733
12.737	4.1400
12.706	3.8736
12.675	3.6403
12.644	3.4982
12.614	3.4717
12.583	3.5413
12.552	3.6484
12.522	3.7145
12.492	3.6647
12.462	3.4544
12.432	3.0848
12.402	2.6052
12.373	2.0970
12.343	1.6518
12.314	1.3451
12.285	1.2215
12.256	1.2873
12.227	1.5185
12.198	1.8737
12.169	2.3104
12.141	2.7937
12.113	3.2984
12.084	3.8078
12.056	4.3119
12.028	4.8043
12.000	5.2791
11.973	5.7319
11.945	6.1608
11.918	6.5645
11.890	6.9444
11.863	7.3020
11.836	7.6394
11.809	7.9580
11.782	8.2578
11.755	8.5384
11.729	8.7984
11.702	9.0338
11.676	9.2417
11.650	9.4210
11.624	9.5721
11.598	9.6981
11.572	9.8056
11.546	9.9051
11.520	10.005
11.495	10.113
11.469	10.230
11.444	10.357
11.419	10.486
11.394	10.609
11.369	10.715
11.344	10.800
11.319	10.859
11.294	10.893
11.270	10.906
11.245	10.908
11.221	10.906
11.197	10.908
11.173	10.919
11.149	10.942
11.125	10.974
11.101	11.014
11.077	11.057
11.054	11.099
11.030	11.137
11.007	11.168
10.983	11.187
10.960	11.192
10.937	11.181
10.914	11.154
10.891	11.111
10.868	11.054
10.846	10.985
10.823	10.907
10.800	10.822
10.778	10.733
10.755	10.642
10.733	10.547
10.711	10.444
10.689	10.330
10.667	10.200
10.645	10.059
10.623	9.9138
10.602	9.7803
10.580	9.6694
10.558	9.5868
10.537	9.5278
10.516	9.4807
10.494	9.4312
10.473	9.3680
10.452	9.2886
10.431	9.1977
10.410	9.1015
10.389	9.0071
10.368	8.9178
10.348	8.8339
10.327	8.7529
10.306	8.6708
10.286	8.5853
10.266	8.4943
10.245	8.3956
10.225	8.2881
10.205	8.1728
10.185	8.0498
10.165	7.9201
10.145	7.7846
10.125	7.6461
10.106	7.5085
10.086	7.3768
10.066	7.2563
10.047	7.1535
10.027	7.0735
10.008	7.0187
9.9887	6.9891
9.9695	6.9816
9.9504	6.9908
9.9313	7.0081
9.9123	7.0225
9.8934	7.0237
9.8746	7.0048
9.8558	6.9640
9.8371	6.9039
9.8185	6.8317
9.7999	6.7566
9.7814	6.6855
9.7630	6.6221
9.7447	6.5655
9.7264	6.5141
9.7082	6.4655
9.6900	6.4194
9.6719	6.3777
9.6539	6.3455
9.6360	6.3303
9.6181	6.3412
9.6003	6.3857
9.5825	6.4677
9.5649	6.5870
9.5472	6.7384
9.5297	6.9179
9.5122	7.1270
9.4948	7.3787
9.4774	7.6994
9.4601	8.1223
9.4429	8.6781
9.4257	9.3817
9.4086	10.219
9.3916	11.148
9.3746	12.097
9.3577	12.990
9.3408	13.754
9.3240	14.343
9.3073	14.743
9.2906	14.968
9.2740	15.057
9.2574	15.053
9.2409	14.998
9.2245	14.922
9.2081	14.845
9.1918	14.774
9.1755	14.711
9.1593	14.656
9.1431	14.607
9.1270	14.562
9.1110	14.521
9.0950	14.484
9.0791	14.448
9.0632	14.412
9.0474	14.374
9.0316	14.335
9.0159	14.292
9.0003	14.245
8.9847	14.194
8.9691	14.140
8.9536	14.080
8.9382	14.014
8.9228	13.942
8.9075	13.863
8.8922	13.778
8.8770	13.685
8.8618	13.585
8.8467	13.473
8.8316	13.348
8.8166	13.209
8.8016	13.056
8.7867	12.897
8.7718	12.740
8.7570	12.586
8.7422	12.417
8.7275	12.197
8.7129	11.877
8.6982	11.415
8.6837	10.814
8.6692	10.138
8.6547	9.5105
8.6403	9.0783
8.6259	8.9559
8.6116	9.1821
8.5973	9.7021
8.5830	10.389
8.5688	11.089
8.5547	11.681
8.5406	12.102
8.5266	12.350
8.5126	12.463
8.4986	12.491
8.4847	12.475
8.4708	12.441
8.4570	12.400
8.4432	12.358
8.4295	12.321
8.4158	12.292
8.4022	12.277
8.3886	12.279
8.3750	12.302
8.3615	12.345
8.3481	12.412
8.3347	12.505
8.3213	12.630
8.3079	12.789
8.2946	12.987
8.2814	13.224
8.2682	13.498
8.2550	13.802
8.2419	14.122
8.2288	14.440
8.2158	14.731
8.2028	14.962
8.1898	15.099
8.1769	15.110
8.1640	14.973
8.1512	14.682
8.1384	14.252
8.1256	13.711
8.1129	13.100
8.1002	12.460
8.0876	11.826
8.0750	11.221
8.0624	10.657
8.0499	10.140
8.0374	9.6654
8.0250	9.2244
8.0126	8.8058
8.0002	8.3965
7.9879	7.9838
7.9756	7.5589
7.9634	7.1201
7.9512	6.6723
7.9390	6.2242
7.9268	5.7864
7.9147	5.3686
7.9027	4.9776
7.8906	4.6170
7.8786	4.2871
7.8667	3.9887
7.8548	3.7213
7.8429	3.4845
7.8310	3.2778
7.8192	3.0992
7.8075	2.9467
7.7957	2.8162
7.7840	2.7030
7.7723	2.6024
7.7607	2.5076
7.7491	2.4134
7.7375	2.3153
7.7260	2.2104
7.7145	2.0980
7.7031	1.9788
7.6916	1.8559
7.6802	1.7323
7.6689	1.6099
7.6575	1.4919
7.6462	1.3811
7.6350	1.2798
7.6238	1.1900
7.6126	1.1116
7.6014	1.0436
7.5903	0.98350
7.5792	0.92830
7.5681	0.87460
7.5571	0.82130
7.5461	0.76890
7.5351	0.71990
7.5242	0.67590
7.5133	0.63750
7.5024	0.60580
7.4916	0.57900
7.4807	0.55560
7.4700	0.53450
7.4592	0.51720
7.4485	0.50580
7.4378	0.50040
7.4272	0.50060
7.4165	0.50490
7.4059	0.51080
7.3954	0.51600
7.3848	0.52000
7.3743	0.52450
7.3639	0.53090
7.3534	0.53990
7.3430	0.55060
7.3326	0.56270
7.3223	0.57640
7.3119	0.59270
7.3016	0.61260
7.2914	0.63730
7.2811	0.66730
7.2709	0.70310
7.2607	0.74240
7.2506	0.78410
7.2404	0.82740
7.2303	0.87240
7.2203	0.91880
7.2102	0.96670
7.2002	1.0169
7.1902	1.0706
7.1803	1.1270
7.1703	1.1862
7.1604	1.2494
7.1506	1.3169
7.1407	1.3885
7.1309	1.4640
7.1211	1.5429
7.1113	1.6236
7.1016	1.7032
7.0919	1.7787
7.0822	1.8495
7.0725	1.9154
7.0629	1.9791
7.0533	2.0442
7.0437	2.1148
7.0341	2.1936
7.0246	2.2798
7.0151	2.3717
7.0056	2.4671
6.9962	2.5640
6.9867	2.6618
6.9773	2.7613
6.9679	2.8633
6.9586	2.9675
6.9493	3.0732
6.9400	3.1783
6.9307	3.2804
6.9214	3.3751
6.9122	3.4585
6.9030	3.5262
6.8938	3.5750
6.8847	3.6050
6.8755	3.6209
6.8664	3.6297
6.8573	3.6382
6.8483	3.6519
6.8393	3.6718
6.8302	3.6953
6.8213	3.7159
6.8123	3.7284
6.8034	3.7298
6.7944	3.7175
6.7855	3.6912
6.7767	3.6519
6.7678	3.6032
6.7590	3.5484
6.7502	3.4921
6.7414	3.4405
6.7327	3.3997
6.7239	3.3760
6.7152	3.3760
6.7065	3.4045
6.6979	3.4641
6.6892	3.5539
6.6806	3.6666
6.6720	3.7902
6.6634	3.9098
6.6549	4.0138
6.6464	4.0936
6.6378	4.1464
6.6294	4.1744
6.6209	4.1819
6.6124	4.1722
6.6040	4.1455
6.5956	4.1021
6.5872	4.0455
6.5789	3.9837
6.5705	3.9314
6.5622	3.9103
6.5539	3.9439
6.5456	4.0533
6.5374	4.2513
6.5292	4.5407
6.5209	4.9127
6.5128	5.3501
6.5046	5.8314
6.4964	6.3339
6.4883	6.8383
6.4802	7.3257
6.4721	7.7796
6.4640	8.1839
6.4560	8.5232
6.4480	8.7871
6.4399	8.9692
6.4320	9.0696
6.4240	9.0956
6.4160	9.0539
6.4081	8.9493
6.4002	8.7854
6.3923	8.5654
6.3844	8.2968
6.3766	7.9909
6.3687	7.6629
6.3609	7.3306
6.3531	7.0064
6.3454	6.6945
6.3376	6.3921
6.3299	6.0945
6.3221	5.7984
6.3144	5.5034
6.3068	5.2118
6.2991	4.9291
6.2914	4.6591
6.2838	4.4036
6.2762	4.1646
6.2686	3.9444
6.2611	3.7462
6.2535	3.5738
6.2460	3.4291
6.2385	3.3102
6.2310	3.2150
6.2235	3.1416
6.2160	3.0909
6.2086	3.0668
6.2011	3.0769
6.1937	3.1317
6.1863	3.2389
6.1790	3.4042
6.1716	3.6294
6.1643	3.9110
6.1570	4.2395
6.1496	4.6013
6.1424	4.9814
6.1351	5.3651
6.1278	5.7409
6.1206	6.1044
6.1134	6.4539
6.1062	6.7881
6.0990	7.1009
6.0918	7.3830
6.0847	7.6236
6.0776	7.8144
6.0704	7.9542
6.0633	8.0534
6.0563	8.1278
6.0492	8.1915
6.0421	8.2504
6.0351	8.3006
6.0281	8.3307
6.0211	8.3238
6.0141	8.2656
6.0071	8.1517
6.0002	7.9859
5.9932	7.7777
5.9863	7.5402
5.9794	7.2897
5.9725	7.0420
5.9657	6.8130
5.9588	6.6178
5.9520	6.4743
5.9451	6.3990
5.9383	6.4047
5.9315	6.4980
5.9247	6.6782
5.9180	6.9378
5.9112	7.2641
5.9045	7.6420
5.8978	8.0603
5.8911	8.5109
5.8844	8.9874
5.8777	9.4833
5.8711	9.9905
5.8644	10.498
5.8578	10.996
5.8512	11.474
5.8446	11.931
5.8380	12.371
5.8314	12.805
5.8249	13.244
5.8184	13.693
5.8118	14.148
5.8053	14.599
5.7988	15.033
5.7923	15.439
5.7859	15.815
5.7794	16.168
5.7730	16.511
5.7666	16.852
5.7602	17.194
5.7538	17.534
5.7474	17.863
5.7410	18.165
5.7347	18.428
5.7283	18.640
5.7220	18.794
5.7157	18.877
5.7094	18.875
5.7031	18.774
5.6969	18.555
5.6906	18.205
5.6844	17.716
5.6782	17.090
5.6719	16.339
5.6657	15.489
5.6596	14.577
5.6534	13.648
5.6472	12.748
5.6411	11.919
5.6349	11.191
5.6288	10.580
5.6227	10.084
5.6166	9.6919
5.6106	9.3860
5.6045	9.1477
5.5984	8.9630
5.5924	8.8238
5.5864	8.7293
5.5804	8.6817
5.5744	8.6840
5.5684	8.7390
5.5624	8.8463
5.5564	9.0023
5.5505	9.2029
5.5445	9.4437
5.5386	9.7232
5.5327	10.040
5.5268	10.392
5.5209	10.776
5.5151	11.185
5.5092	11.612
5.5033	12.045
5.4975	12.474
5.4917	12.892
5.4859	13.292
5.4801	13.667
5.4743	14.005
5.4685	14.292
5.4628	14.506
5.4570	14.621
5.4513	14.612
5.4455	14.459
5.4398	14.149
5.4341	13.684
5.4284	13.078
5.4228	12.354
5.4171	11.540
5.4114	10.671
5.4058	9.7800
5.4002	8.8993
5.3945	8.0610
5.3889	7.2949
5.3833	6.6249
5.3778	6.0651
5.3722	5.6206
5.3666	5.2869
5.3611	5.0522
5.3555	4.9000
5.3500	4.8147
5.3445	4.7820
5.3390	4.7889
5.3335	4.8230
5.3280	4.8746
5.3225	4.9378
5.3171	5.0091
5.3116	5.0894
5.3062	5.1844
5.3008	5.3023
5.2954	5.4515
5.2900	5.6379
5.2846	5.8664
5.2792	6.1409
5.2738	6.4632
5.2684	6.8366
5.2631	7.2669
5.2578	7.7619
5.2524	8.3288
5.2471	8.9708
5.2418	9.6843
5.2365	10.456
5.2312	11.258
5.2260	12.056
5.2207	12.810
5.2154	13.481
5.2102	14.038
5.2050	14.459
5.1998	14.743
5.1945	14.900
5.1893	14.955
5.1842	14.935
5.1790	14.869
5.1738	14.780
5.1686	14.681
5.1635	14.575
5.1584	14.466
5.1532	14.353
5.1481	14.242
5.1430	14.142
5.1379	14.063
5.1328	14.011
5.1277	13.983
5.1227	13.967
5.1176	13.942
5.1126	13.884
5.1075	13.774
5.1025	13.599
5.0975	13.364
5.0925	13.082
5.0875	12.778
5.0825	12.480
5.0775	12.213
5.0726	11.993
5.0676	11.828
5.0627	11.714
5.0577	11.640
5.0528	11.595
5.0479	11.564
5.0430	11.535
5.0380	11.502
5.0332	11.462
5.0283	11.420
5.0234	11.382
5.0185	11.360
5.0137	11.365
5.0088	11.405
5.0040	11.489
4.9992	11.625
4.9944	11.825
4.9896	12.108
4.9848	12.488
4.9800	12.978
4.9752	13.573
4.9704	14.253
4.9657	14.979
4.9609	15.702
4.9562	16.374
4.9514	16.964
4.9467	17.463
4.9420	17.888
4.9373	18.281
4.9326	18.702
4.9279	19.219
4.9232	19.894
4.9186	20.776
4.9139	21.889
4.9092	23.230
4.9046	24.766
4.9000	26.438
4.8953	28.178
4.8907	29.913
4.8861	31.581
4.8815	33.139
4.8769	34.563
4.8723	35.849
4.8678	37.003
4.8632	38.040
4.8586	38.976
4.8541	39.828
4.8495	40.608
4.8450	41.326
4.8405	41.991
4.8360	42.608
4.8315	43.183
4.8270	43.720
4.8225	44.226
4.8180	44.705
4.8135	45.161
4.8090	45.599
4.8046	46.021
4.8001	46.428
4.7957	46.819
4.7913	47.193
4.7868	47.548
4.7824	47.883
4.7780	48.198
4.7736	48.493
4.7692	48.771
4.7648	49.030
4.7605	49.273
4.7561	49.496
4.7517	49.698
4.7474	49.877
4.7431	50.032
4.7387	50.161
4.7344	50.264
4.7301	50.335
4.7258	50.363
4.7215	50.331
4.7172	50.216
4.7129	49.994
4.7086	49.650
4.7043	49.189
4.7000	48.640
4.6958	48.066
4.6915	47.546
4.6873	47.166
4.6831	46.994
4.6788	47.062
4.6746	47.360
4.6704	47.840
4.6662	48.437
4.6620	49.083
4.6578	49.730
4.6536	50.348
4.6495	50.931
4.6453	51.482
4.6411	52.005
4.6370	52.501
4.6328	52.964
4.6287	53.387
4.6246	53.763
4.6205	54.087
4.6163	54.361
4.6122	54.589
4.6081	54.778
4.6040	54.935
4.6000	55.065
4.5959	55.174
4.5918	55.263
4.5877	55.332
4.5837	55.376
4.5796	55.393
4.5756	55.377
4.5716	55.323
4.5675	55.226
4.5635	55.083
4.5595	54.889
4.5555	54.638
4.5515	54.330
4.5475	53.962
4.5435	53.538
4.5395	53.060
4.5356	52.530
4.5316	51.946
4.5276	51.306
4.5237	50.605
4.5197	49.847
4.5158	49.044
4.5119	48.221
4.5080	47.415
4.5040	46.664
4.5001	46.002
4.4962	45.446
4.4923	44.996
4.4884	44.636
4.4846	44.341
4.4807	44.096
4.4768	43.899
4.4730	43.765
4.4691	43.721
4.4652	43.786
4.4614	43.968
4.4576	44.248
4.4537	44.591
4.4499	44.954
4.4461	45.302
4.4423	45.621
4.4385	45.911
4.4347	46.188
4.4309	46.468
4.4271	46.765
4.4233	47.083
4.4196	47.421
4.4158	47.775
4.4120	48.143
4.4083	48.525
4.4045	48.924
4.4008	49.342
4.3971	49.783
4.3934	50.244
4.3896	50.721
4.3859	51.209
4.3822	51.701
4.3785	52.190
4.3748	52.670
4.3711	53.137
4.3674	53.587
4.3638	54.015
4.3601	54.418
4.3564	54.791
4.3528	55.134
4.3491	55.442
4.3455	55.717
4.3418	55.959
4.3382	56.169
4.3346	56.346
4.3310	56.490
4.3273	56.597
4.3237	56.667
4.3201	56.699
4.3165	56.699
4.3129	56.673
4.3094	56.634
4.3058	56.590
4.3022	56.551
4.2986	56.524
4.2951	56.516
4.2915	56.532
4.2880	56.578
4.2844	56.657
4.2809	56.773
4.2774	56.923
4.2738	57.102
4.2703	57.297
4.2668	57.495
4.2633	57.682
4.2598	57.842
4.2563	57.967
4.2528	58.054
4.2493	58.104
4.2458	58.124
4.2424	58.125
4.2389	58.123
4.2354	58.127
4.2320	58.146
4.2285	58.183
4.2251	58.235
4.2216	58.293
4.2182	58.349
4.2148	58.394
4.2113	58.427
4.2079	58.450
4.2045	58.471
4.2011	58.498
4.1977	58.540
4.1943	58.605
4.1909	58.697
4.1875	58.814
4.1841	58.954
4.1808	59.110
4.1774	59.273
4.1740	59.435
4.1707	59.591
4.1673	59.736
4.1640	59.871
4.1606	60.000
4.1573	60.125
4.1540	60.248
4.1506	60.373
4.1473	60.499
4.1440	60.628
4.1407	60.759
4.1374	60.893
4.1341	61.030
4.1308	61.170
4.1275	61.313
4.1242	61.461
4.1209	61.613
4.1177	61.769
4.1144	61.929
4.1111	62.089
4.1079	62.246
4.1046	62.399
4.1014	62.546
4.0981	62.688
4.0949	62.825
4.0917	62.959
4.0884	63.090
4.0852	63.217
4.0820	63.338
4.0788	63.449
4.0756	63.547
4.0724	63.630
4.0692	63.696
4.0660	63.745
4.0628	63.782
4.0596	63.807
4.0565	63.824
4.0533	63.833
4.0501	63.835
4.0470	63.828
4.0438	63.810
4.0406	63.784
4.0375	63.751
4.0344	63.714
4.0312	63.676
4.0281	63.639
4.0250	63.600
4.0218	63.561
4.0187	63.519
4.0156	63.479
4.0125	63.443
4.0094	63.412
4.0063	63.388
4.0032	63.372
4.0001	63.363
3.9970	63.358
3.9940	63.359
3.9909	63.368
3.9878	63.389
3.9847	63.422
3.9817	63.468
3.9786	63.525
3.9756	63.589
3.9725	63.657
3.9695	63.730
3.9665	63.810
3.9634	63.898
3.9604	63.995
3.9574	64.098
3.9544	64.203
3.9513	64.306
3.9483	64.402
3.9453	64.491
3.9423	64.572
3.9393	64.643
3.9363	64.703
3.9333	64.751
3.9304	64.785
3.9274	64.804
3.9244	64.810
3.9214	64.803
3.9185	64.788
3.9155	64.766
3.9126	64.737
3.9096	64.704
3.9067	64.665
3.9037	64.620
3.9008	64.566
3.8979	64.502
3.8949	64.426
3.8920	64.340
3.8891	64.249
3.8862	64.157
3.8833	64.068
3.8804	63.983
3.8775	63.902
3.8746	63.824
3.8717	63.748
3.8688	63.672
3.8659	63.600
3.8630	63.533
3.8601	63.472
3.8573	63.421
3.8544	63.379
3.8515	63.346
3.8487	63.320
3.8458	63.298
3.8430	63.280
3.8401	63.264
3.8373	63.249
3.8344	63.239
3.8316	63.236
3.8288	63.236
3.8259	63.240
3.8231	63.244
3.8203	63.246
3.8175	63.242
3.8147	63.233
3.8119	63.219
3.8091	63.199
3.8063	63.172
3.8035	63.138
3.8007	63.095
3.7979	63.044
3.7951	62.986
3.7924	62.921
3.7896	62.848
3.7868	62.769
3.7841	62.682
3.7813	62.589
3.7785	62.488
3.7758	62.382
3.7730	62.272
3.7703	62.160
3.7676	62.049
3.7648	61.941
3.7621	61.839
3.7594	61.742
3.7566	61.651
3.7539	61.562
3.7512	61.476
3.7485	61.396
3.7458	61.322
3.7431	61.259
3.7404	61.207
3.7377	61.165
3.7350	61.130
3.7323	61.098
3.7296	61.069
3.7269	61.044
3.7242	61.027
3.7216	61.021
3.7189	61.026
3.7162	61.038
3.7136	61.054
3.7109	61.070
3.7083	61.083
3.7056	61.093
3.7030	61.101
3.7003	61.111
3.6977	61.123
3.6950	61.139
3.6924	61.155
3.6898	61.172
3.6872	61.186
3.6845	61.194
3.6819	61.193
3.6793	61.183
3.6767	61.163
3.6741	61.134
3.6715	61.100
3.6689	61.064
3.6663	61.028
3.6637	60.991
3.6611	60.953
3.6585	60.909
3.6560	60.858
3.6534	60.797
3.6508	60.726
3.6482	60.650
3.6457	60.569
3.6431	60.487
3.6406	60.404
3.6380	60.321
3.6355	60.236
3.6329	60.148
3.6304	60.058
3.6278	59.967
3.6253	59.875
3.6227	59.783
3.6202	59.690
3.6177	59.595
3.6152	59.497
3.6127	59.396
3.6101	59.296
3.6076	59.196
3.6051	59.099
3.6026	59.004
3.6001	58.911
3.5976	58.818
3.5951	58.722
3.5926	58.627
3.5901	58.530
3.5876	58.433
3.5852	58.333
3.5827	58.229
3.5802	58.119
3.5777	58.002
3.5753	57.881
3.5728	57.760
3.5704	57.642
3.5679	57.528
3.5654	57.416
3.5630	57.302
3.5605	57.179
3.5581	57.045
3.5557	56.903
3.5532	56.757
3.5508	56.610
3.5484	56.465
3.5459	56.319
3.5435	56.173
3.5411	56.021
3.5387	55.864
3.5363	55.704
3.5338	55.542
3.5314	55.378
3.5290	55.216
3.5266	55.055
3.5242	54.896
3.5218	54.735
3.5195	54.572
3.5171	54.403
3.5147	54.227
3.5123	54.044
3.5099	53.863
3.5075	53.692
3.5052	53.540
3.5028	53.417
3.5004	53.328
3.4981	53.271
3.4957	53.238
3.4934	53.217
3.4910	53.199
3.4887	53.173
3.4863	53.132
3.4840	53.075
3.4816	53.001
3.4793	52.914
3.4770	52.815
3.4746	52.710
3.4723	52.602
3.4700	52.496
3.4677	52.392
3.4653	52.289
3.4630	52.184
3.4607	52.075
3.4584	51.961
3.4561	51.843
3.4538	51.726
3.4515	51.613
3.4492	51.505
3.4469	51.403
3.4446	51.305
3.4423	51.210
3.4400	51.111
3.4378	51.006
3.4355	50.889
3.4332	50.756
3.4309	50.603
3.4287	50.430
3.4264	50.239
3.4241	50.041
3.4219	49.844
3.4196	49.663
3.4174	49.509
3.4151	49.392
3.4129	49.311
3.4106	49.261
3.4084	49.235
3.4061	49.223
3.4039	49.215
3.4017	49.203
3.3994	49.180
3.3972	49.140
3.3950	49.076
3.3928	48.986
3.3906	48.871
3.3883	48.739
3.3861	48.597
3.3839	48.455
3.3817	48.320
3.3795	48.195
3.3773	48.084
3.3751	47.990
3.3729	47.914
3.3707	47.855
3.3685	47.808
3.3663	47.768
3.3641	47.727
3.3620	47.678
3.3598	47.620
3.3576	47.556
3.3554	47.490
3.3533	47.426
3.3511	47.367
3.3489	47.312
3.3468	47.256
3.3446	47.193
3.3425	47.120
3.3403	47.031
3.3382	46.927
3.3360	46.812
3.3339	46.690
3.3317	46.568
3.3296	46.450
3.3274	46.338
3.3253	46.229
3.3232	46.118
3.3210	45.998
3.3189	45.868
3.3168	45.727
3.3147	45.579
3.3126	45.431
3.3104	45.287
3.3083	45.148
3.3062	45.013
3.3041	44.879
3.3020	44.741
3.2999	44.599
3.2978	44.453
3.2957	44.305
3.2936	44.159
3.2915	44.016
3.2894	43.876
3.2874	43.735
3.2853	43.593
3.2832	43.445
3.2811	43.293
3.2790	43.139
3.2770	42.985
3.2749	42.836
3.2728	42.693
3.2708	42.554
3.2687	42.419
3.2666	42.288
3.2646	42.156
3.2625	42.024
3.2605	41.890
3.2584	41.754
3.2564	41.617
3.2543	41.478
3.2523	41.340
3.2503	41.203
3.2482	41.069
3.2462	40.936
3.2442	40.807
3.2421	40.684
3.2401	40.565
3.2381	40.450
3.2361	40.335
3.2340	40.215
3.2320	40.086
3.2300	39.947
3.2280	39.803
3.2260	39.656
3.2240	39.511
3.2220	39.367
3.2200	39.228
3.2180	39.091
3.2160	38.957
3.2140	38.827
3.2120	38.702
3.2100	38.580
3.2080	38.459
3.2060	38.337
3.2040	38.213
3.2021	38.086
3.2001	37.959
3.1981	37.831
3.1961	37.703
3.1942	37.574
3.1922	37.443
3.1902	37.307
3.1883	37.169
3.1863	37.030
3.1844	36.894
3.1824	36.764
3.1805	36.641
3.1785	36.524
3.1766	36.409
3.1746	36.291
3.1727	36.168
3.1707	36.039
3.1688	35.909
3.1669	35.780
3.1649	35.655
3.1630	35.535
3.1611	35.416
3.1591	35.295
3.1572	35.171
3.1553	35.045
3.1534	34.921
3.1515	34.801
3.1495	34.684
3.1476	34.569
3.1457	34.454
3.1438	34.334
3.1419	34.210
3.1400	34.084
3.1381	33.957
3.1362	33.832
3.1343	33.710
3.1324	33.595
3.1305	33.486
3.1286	33.384
3.1268	33.289
3.1249	33.199
3.1230	33.111
3.1211	33.025
3.1192	32.937
3.1174	32.844
3.1155	32.746
3.1136	32.642
3.1117	32.535
3.1099	32.428
3.1080	32.327
3.1061	32.239
3.1043	32.166
3.1024	32.104
3.1006	32.047
3.0987	31.984
3.0969	31.910
3.0950	31.822
3.0932	31.723
3.0913	31.623
3.0895	31.530
3.0876	31.451
3.0858	31.385
3.0840	31.326
3.0821	31.267
3.0803	31.205
3.0785	31.136
3.0766	31.062
3.0748	30.988
3.0730	30.918
3.0712	30.852
3.0694	30.788
3.0675	30.726
3.0657	30.665
3.0639	30.606
3.0621	30.551
3.0603	30.497
3.0585	30.444
3.0567	30.388
3.0549	30.328
3.0531	30.261
3.0513	30.193
3.0495	30.126
3.0477	30.061
3.0459	30.000
3.0441	29.942
3.0423	29.888
3.0406	29.831
3.0388	29.772
3.0370	29.709
3.0352	29.644
3.0334	29.580
3.0317	29.519
3.0299	29.464
3.0281	29.414
3.0264	29.368
3.0246	29.323
3.0228	29.278
3.0211	29.229
3.0193	29.178
3.0176	29.126
3.0158	29.076
3.0140	29.027
3.0123	28.980
3.0105	28.934
3.0088	28.888
3.0070	28.842
3.0053	28.795
3.0036	28.751
3.0018	28.709
3.0001	28.668
2.9984	28.626
2.9966	28.582
2.9949	28.535
2.9932	28.484
2.9914	28.433
2.9897	28.385
2.9880	28.341
2.9863	28.300
2.9845	28.259
2.9828	28.215
2.9811	28.169
2.9794	28.118
2.9777	28.063
2.9760	28.003
2.9743	27.935
2.9726	27.855
2.9709	27.764
2.9692	27.669
2.9675	27.579
2.9658	27.502
2.9641	27.445
2.9624	27.408
2.9607	27.385
2.9590	27.368
2.9573	27.350
2.9556	27.330
2.9539	27.309
2.9523	27.289
2.9506	27.272
2.9489	27.256
2.9472	27.243
2.9455	27.233
2.9439	27.222
2.9422	27.214
2.9405	27.209
2.9389	27.206
2.9372	27.205
2.9355	27.205
2.9339	27.208
2.9322	27.215
2.9306	27.222
2.9289	27.227
2.9272	27.229
2.9256	27.226
2.9239	27.216
2.9223	27.201
2.9207	27.188
2.9190	27.180
2.9174	27.179
2.9157	27.189
2.9141	27.212
2.9124	27.248
2.9108	27.294
2.9092	27.345
2.9075	27.395
2.9059	27.442
2.9043	27.485
2.9027	27.527
2.9010	27.576
2.8994	27.633
2.8978	27.698
2.8962	27.765
2.8946	27.827
2.8929	27.882
2.8913	27.928
2.8897	27.972
2.8881	28.018
2.8865	28.070
2.8849	28.130
2.8833	28.194
2.8817	28.262
2.8801	28.331
2.8785	28.403
2.8769	28.481
2.8753	28.568
2.8737	28.666
2.8721	28.771
2.8705	28.882
2.8689	28.993
2.8673	29.098
2.8658	29.196
2.8642	29.289
2.8626	29.382
2.8610	29.479
2.8594	29.586
2.8579	29.702
2.8563	29.824
2.8547	29.947
2.8531	30.067
2.8516	30.183
2.8500	30.294
2.8484	30.400
2.8469	30.501
2.8453	30.597
2.8437	30.687
2.8422	30.771
2.8406	30.852
2.8391	30.932
2.8375	31.014
2.8360	31.100
2.8344	31.194
2.8329	31.296
2.8313	31.403
2.8298	31.512
2.8282	31.617
2.8267	31.714
2.8252	31.799
2.8236	31.874
2.8221	31.943
2.8205	32.012
2.8190	32.085
2.8175	32.165
2.8159	32.249
2.8144	32.332
2.8129	32.409
2.8114	32.474
2.8098	32.527
2.8083	32.569
2.8068	32.603
2.8053	32.631
2.8038	32.655
2.8022	32.672
2.8007	32.672
2.7992	32.640
2.7977	32.564
2.7962	32.440
2.7947	32.275
2.7932	32.094
2.7917	31.933
2.7902	31.830
2.7887	31.811
2.7872	31.881
2.7857	32.025
2.7842	32.215
2.7827	32.422
2.7812	32.621
2.7797	32.799
2.7782	32.952
2.7767	33.089
2.7752	33.214
2.7738	33.334
2.7723	33.456
2.7708	33.586
2.7693	33.732
2.7678	33.900
2.7664	34.101
2.7649	34.343
2.7634	34.628
2.7619	34.953
2.7605	35.312
2.7590	35.698
2.7575	36.109
2.7561	36.546
2.7546	37.010
2.7531	37.501
2.7517	38.012
2.7502	38.523
2.7488	39.014
2.7473	39.469
2.7458	39.888
2.7444	40.279
2.7429	40.671
2.7415	41.097
2.7400	41.584
2.7386	42.146
2.7371	42.784
2.7357	43.483
2.7343	44.215
2.7328	44.949
2.7314	45.662
2.7299	46.341
2.7285	46.981
2.7271	47.596
2.7256	48.214
2.7242	48.863
2.7228	49.571
2.7213	50.346
2.7199	51.170
2.7185	52.003
2.7171	52.796
2.7156	53.512
2.7142	54.139
2.7128	54.701
2.7114	55.242
2.7100	55.806
2.7085	56.423
2.7071	57.105
2.7057	57.841
2.7043	58.603
2.7029	59.366
2.7015	60.106
2.7001	60.808
2.6987	61.455
2.6973	62.052
2.6959	62.618
2.6945	63.167
2.6931	63.708
2.6917	64.241
2.6903	64.756
2.6889	65.234
2.6875	65.659
2.6861	66.023
2.6847	66.333
2.6833	66.600
2.6819	66.835
2.6805	67.052
2.6791	67.265
2.6778	67.484
2.6764	67.698
2.6750	67.882
2.6736	68.024
2.6722	68.130
2.6709	68.214
2.6695	68.308
2.6681	68.456
2.6667	68.693
2.6654	69.010
2.6640	69.366
2.6626	69.724
2.6613	70.051
2.6599	70.315
2.6585	70.512
2.6572	70.662
2.6558	70.790
2.6545	70.911
2.6531	71.034
2.6517	71.162
2.6504	71.292
2.6490	71.412
2.6477	71.523
2.6463	71.625
2.6450	71.726
2.6436	71.831
2.6423	71.946
2.6409	72.061
2.6396	72.165
2.6382	72.243
2.6369	72.286
2.6356	72.280
2.6342	72.230
2.6329	72.162
2.6315	72.108
2.6302	72.095
2.6289	72.143
2.6275	72.249
2.6262	72.386
2.6249	72.504
2.6236	72.566
2.6222	72.571
2.6209	72.532
2.6196	72.483
2.6183	72.478
2.6169	72.542
2.6156	72.669
2.6143	72.818
2.6130	72.947
2.6117	73.017
2.6103	73.001
2.6090	72.910
2.6077	72.805
2.6064	72.744
2.6051	72.763
2.6038	72.858
2.6025	72.986
2.6012	73.082
2.5999	73.078
2.5986	72.955
2.5973	72.770
2.5960	72.612
2.5947	72.552
2.5934	72.622
2.5921	72.795
2.5908	73.006
2.5895	73.177
2.5882	73.257
2.5869	73.258
2.5856	73.229
2.5843	73.212
2.5830	73.230
2.5817	73.283
2.5805	73.349
2.5792	73.401
2.5779	73.416
2.5766	73.398
2.5753	73.374
2.5741	73.363
2.5728	73.378
2.5715	73.421
2.5702	73.481
2.5690	73.536
2.5677	73.558
2.5664	73.539
2.5651	73.495
2.5639	73.450
2.5626	73.432
2.5613	73.465
2.5601	73.550
2.5588	73.665
2.5575	73.776
2.5563	73.855
2.5550	73.892
2.5538	73.894
2.5525	73.881
2.5513	73.872
2.5500	73.880
2.5487	73.905
2.5475	73.942
2.5462	73.980
2.5450	74.017
2.5437	74.052
2.5425	74.085
2.5413	74.114
2.5400	74.139
2.5388	74.162
2.5375	74.182
2.5363	74.201
2.5350	74.224
2.5338	74.253
2.5326	74.292
2.5313	74.338
2.5301	74.387
2.5289	74.437
2.5276	74.482
2.5264	74.520
2.5252	74.550
2.5239	74.571
2.5227	74.588
2.5215	74.604
2.5202	74.623
2.5190	74.647
2.5178	74.678
2.5166	74.714
2.5154	74.751
2.5141	74.786
2.5129	74.819
2.5117	74.853
2.5105	74.887
2.5093	74.921
2.5081	74.952
2.5068	74.980
2.5056	75.002
2.5044	75.022
2.5032	75.047
2.5020	75.080
2.5008	75.123
2.4996	75.173
2.4984	75.224
2.4972	75.273
2.4960	75.319
2.4948	75.365
2.4936	75.411
2.4924	75.457
2.4912	75.499
2.4900	75.534
2.4888	75.557
2.4876	75.572
2.4864	75.583
2.4852	75.597
2.4840	75.622
2.4828	75.660
2.4816	75.711
2.4805	75.767
2.4793	75.823
2.4781	75.875
2.4769	75.922
2.4757	75.966
2.4745	76.011
2.4734	76.060
2.4722	76.114
2.4710	76.168
2.4698	76.219
2.4686	76.264
2.4675	76.300
2.4663	76.330
2.4651	76.357
2.4640	76.387
2.4628	76.421
2.4616	76.462
2.4604	76.506
2.4593	76.549
2.4581	76.590
2.4569	76.628
2.4558	76.669
2.4546	76.717
2.4535	76.777
2.4523	76.849
2.4511	76.924
2.4500	76.995
2.4488	77.057
2.4477	77.106
2.4465	77.145
2.4454	77.178
2.4442	77.211
2.4431	77.243
2.4419	77.276
2.4408	77.313
2.4396	77.358
2.4385	77.412
2.4373	77.471
2.4362	77.531
2.4350	77.588
2.4339	77.634
2.4327	77.671
2.4316	77.703
2.4305	77.739
2.4293	77.781
2.4282	77.829
2.4270	77.883
2.4259	77.940
2.4248	77.995
2.4236	78.049
2.4225	78.100
2.4214	78.152
2.4202	78.205
2.4191	78.256
2.4180	78.305
2.4169	78.350
2.4157	78.389
2.4146	78.420
2.4135	78.448
2.4124	78.479
2.4112	78.519
2.4101	78.568
2.4090	78.622
2.4079	78.677
2.4068	78.725
2.4056	78.760
2.4045	78.785
2.4034	78.805
2.4023	78.827
2.4012	78.854
2.4001	78.885
2.3990	78.920
2.3979	78.952
2.3967	78.978
2.3956	79.000
2.3945	79.021
2.3934	79.048
2.3923	79.085
2.3912	79.132
2.3901	79.185
2.3890	79.235
2.3879	79.276
2.3868	79.304
2.3857	79.320
2.3846	79.327
2.3835	79.331
2.3824	79.340
2.3813	79.357
2.3802	79.386
2.3791	79.425
2.3781	79.468
2.3770	79.507
2.3759	79.536
2.3748	79.552
2.3737	79.558
2.3726	79.563
2.3715	79.576
2.3704	79.601
2.3694	79.639
2.3683	79.685
2.3672	79.733
2.3661	79.777
2.3650	79.815
2.3640	79.847
2.3629	79.875
2.3618	79.899
2.3607	79.921
2.3597	79.941
2.3586	79.959
2.3575	79.970
2.3564	79.978
2.3554	79.981
2.3543	79.979
2.3532	79.976
2.3522	79.977
2.3511	79.986
2.3500	80.001
2.3490	80.019
2.3479	80.035
2.3468	80.045
2.3458	80.045
2.3447	80.043
2.3436	80.048
2.3426	80.064
2.3415	80.091
2.3405	80.126
2.3394	80.165
2.3384	80.201
2.3373	80.229
2.3363	80.250
2.3352	80.263
2.3342	80.267
2.3331	80.262
2.3321	80.250
2.3310	80.235
2.3300	80.221
2.3289	80.209
2.3279	80.199
2.3268	80.194
2.3258	80.193
2.3247	80.197
2.3237	80.204
2.3226	80.215
2.3216	80.228
2.3206	80.239
2.3195	80.248
2.3185	80.256
2.3175	80.263
2.3164	80.268
2.3154	80.269
2.3144	80.265
2.3133	80.258
2.3123	80.247
2.3113	80.238
2.3102	80.231
2.3092	80.224
2.3082	80.216
2.3071	80.206
2.3061	80.193
2.3051	80.178
2.3041	80.164
2.3030	80.150
2.3020	80.133
2.3010	80.114
2.3000	80.093
2.2990	80.076
2.2979	80.064
2.2969	80.060
2.2959	80.065
2.2949	80.076
2.2939	80.087
2.2929	80.098
2.2918	80.110
2.2908	80.124
2.2898	80.142
2.2888	80.165
2.2878	80.194
2.2868	80.224
2.2858	80.248
2.2848	80.266
2.2838	80.275
2.2828	80.276
2.2818	80.270
2.2808	80.261
2.2798	80.256
2.2787	80.254
2.2777	80.255
2.2767	80.258
2.2757	80.261
2.2747	80.262
2.2738	80.259
2.2728	80.253
2.2718	80.246
2.2708	80.241
2.2698	80.237
2.2688	80.236
2.2678	80.239
2.2668	80.246
2.2658	80.252
2.2648	80.254
2.2638	80.255
2.2628	80.255
2.2618	80.253
2.2609	80.251
2.2599	80.250
2.2589	80.250
2.2579	80.248
2.2569	80.242
2.2559	80.231
2.2550	80.218
2.2540	80.203
2.2530	80.189
2.2520	80.182
2.2510	80.186
2.2501	80.202
2.2491	80.230
2.2481	80.266
2.2471	80.309
2.2462	80.350
2.2452	80.381
2.2442	80.397
2.2433	80.397
2.2423	80.383
2.2413	80.362
2.2403	80.349
2.2394	80.353
2.2384	80.376
2.2374	80.412
2.2365	80.453
2.2355	80.487
2.2345	80.505
2.2336	80.508
2.2326	80.505
2.2317	80.502
2.2307	80.501
2.2297	80.504
2.2288	80.511
2.2278	80.519
2.2269	80.527
2.2259	80.540
2.2250	80.562
2.2240	80.589
2.2231	80.611
2.2221	80.624
2.2211	80.624
2.2202	80.615
2.2192	80.599
2.2183	80.583
2.2173	80.568
2.2164	80.553
2.2155	80.534
2.2145	80.516
2.2136	80.510
2.2126	80.522
2.2117	80.553
2.2107	80.595
2.2098	80.633
2.2088	80.654
2.2079	80.650
2.2070	80.631
2.2060	80.611
2.2051	80.602
2.2041	80.607
2.2032	80.627
2.2023	80.654
2.2013	80.683
2.2004	80.713
2.1995	80.743
2.1985	80.776
2.1976	80.807
2.1967	80.833
2.1957	80.853
2.1948	80.865
2.1939	80.875
2.1930	80.891
2.1920	80.914
2.1911	80.943
2.1902	80.971
2.1893	80.994
2.1883	81.010
2.1874	81.021
2.1865	81.037
2.1856	81.071
2.1846	81.124
2.1837	81.190
2.1828	81.257
2.1819	81.313
2.1810	81.348
2.1800	81.362
2.1791	81.363
2.1782	81.366
2.1773	81.377
2.1764	81.395
2.1755	81.413
2.1746	81.424
2.1736	81.420
2.1727	81.406
2.1718	81.393
2.1709	81.392
2.1700	81.410
2.1691	81.445
2.1682	81.490
2.1673	81.533
2.1664	81.565
2.1655	81.586
2.1646	81.599
2.1637	81.612
2.1628	81.629
2.1619	81.648
2.1610	81.667
2.1601	81.676
2.1592	81.670
2.1583	81.649
2.1574	81.622
2.1565	81.598
2.1556	81.586
2.1547	81.592
2.1538	81.612
2.1529	81.638
2.1520	81.659
2.1511	81.669
2.1502	81.670
2.1493	81.671
2.1484	81.678
2.1475	81.697
2.1466	81.728
2.1458	81.761
2.1449	81.786
2.1440	81.799
2.1431	81.797
2.1422	81.790
2.1413	81.786
2.1404	81.792
2.1396	81.809
2.1387	81.831
2.1378	81.849
2.1369	81.853
2.1360	81.838
2.1352	81.809
2.1343	81.772
2.1334	81.740
2.1325	81.721
2.1316	81.719
2.1308	81.731
2.1299	81.749
2.1290	81.764
2.1281	81.770
2.1273	81.767
2.1264	81.761
2.1255	81.758
2.1247	81.763
2.1238	81.774
2.1229	81.783
2.1220	81.785
2.1212	81.778
2.1203	81.762
2.1194	81.740
2.1186	81.718
2.1177	81.701
2.1168	81.689
2.1160	81.680
2.1151	81.676
2.1143	81.673
2.1134	81.666
2.1125	81.652
2.1117	81.634
2.1108	81.622
2.1100	81.621
2.1091	81.633
2.1082	81.658
2.1074	81.684
2.1065	81.697
2.1057	81.694
2.1048	81.680
2.1040	81.665
2.1031	81.657
2.1023	81.660
2.1014	81.672
2.1005	81.685
2.0997	81.692
2.0988	81.692
2.0980	81.693
2.0971	81.697
2.0963	81.707
2.0955	81.724
2.0946	81.746
2.0938	81.763
2.0929	81.763
2.0921	81.744
2.0912	81.712
2.0904	81.679
2.0895	81.659
2.0887	81.664
2.0879	81.697
2.0870	81.743
2.0862	81.784
2.0853	81.805
2.0845	81.787
2.0837	81.761
2.0828	81.720
2.0820	81.626
2.0812	81.668
2.0803	81.565
2.0795	81.489
2.0760	81.489
2.0720	81.773
2.0680	81.705
2.0640	81.421
2.0600	81.353
2.0560	81.231
2.0520	81.163
2.0480	80.961
2.0440	80.988
2.0400	80.920
2.0360	80.813
2.0320	80.667
2.0280	80.188
2.0240	80.067
2.0200	80.012
2.0160	80.133
2.0120	80.028
2.0080	79.525
2.0040	79.209
2.0000	79.144
1.9960	78.580
1.9920	78.551
1.9880	78.146
1.9840	78.054
1.9800	77.650
1.9760	77.461
1.9720	77.398
1.9680	77.152
1.9640	76.936
1.9600	76.570
1.9560	76.264
1.9520	76.018
1.9480	75.497
1.9440	75.129
1.9400	74.730
1.9360	74.418
1.9320	74.190
1.9280	74.127
1.9240	74.122
1.9200	73.842
1.9160	73.409
1.9120	73.036
1.9080	72.849
1.9040	72.892
1.9000	73.350
1.8960	73.950
1.8920	74.654
1.8880	75.572
1.8840	76.326
1.8800	77.226
1.8760	78.031
1.8720	78.516
1.8680	79.015
1.8640	79.469
1.8600	79.899
1.8560	79.767
1.8520	79.912
1.8480	79.803
1.8440	79.951
1.8400	80.231
1.8360	80.335
1.8320	80.442
1.8280	80.214
1.8240	80.154
1.8200	80.159
1.8160	79.916
1.8120	80.085
1.8080	80.201
1.8040	79.674
1.8000	79.853
1.7960	79.449
1.7920	79.575
1.7880	79.727
1.7840	79.548
1.7800	79.853
1.7760	79.727
1.7720	79.422
1.7680	79.350
1.7640	79.172
1.7600	79.092
1.7560	79.208
1.7520	79.022
1.7480	78.987
1.7440	79.530
1.7400	79.833
1.7360	80.403
1.7320	80.414
1.7280	80.362
1.7240	80.362
1.7200	80.414
1.7160	79.916
1.7120	80.249
1.7080	79.952
1.7040	79.843
1.7000	79.807
1.6960	79.638
1.6920	79.539
1.6880	79.664
1.6840	79.672
1.6800	79.985
1.6760	80.048
1.6720	79.969
1.6680	79.932
1.6640	79.459
1.6600	79.790
1.6560	79.307
1.6520	79.264
1.6480	79.450
1.6440	80.015
1.6400	79.584
1.6360	79.405
1.6320	79.593
1.6280	79.378
1.6240	78.985
1.6200	78.771
1.6160	78.881
1.6120	78.997
1.6080	79.638
1.6040	79.503
1.6000	79.566
1.5960	79.378
1.5920	79.566
1.5880	79.503
1.5840	79.566
1.5800	79.999
1.5760	79.800
1.5720	79.674
1.5680	79.603
1.5640	79.167
1.5600	78.593
1.5560	78.471
1.5520	78.627
1.5480	78.873
1.5440	78.989
1.5400	78.859
1.5360	79.237
1.5320	79.155
1.5280	78.680
1.5240	78.316
1.5200	78.428
1.5160	78.216
1.5120	78.311
1.5080	78.686
1.5040	78.789
1.5000	78.690
1.4960	77.995
1.4920	78.847
1.4880	78.331
1.4840	78.119
1.4800	77.875
1.4760	77.664
1.4720	77.515
1.4680	78.246
1.4640	78.584
1.4600	78.426
1.4560	78.454
1.4520	77.643
1.4480	77.193
1.4440	77.256
1.4400	77.299
1.4360	77.421
1.4320	77.362
1.4280	77.421
1.4240	77.328
1.4200	77.357
1.4160	77.268
1.4120	77.211
1.4080	77.178
1.4040	77.030
1.4000	76.582
1.3960	76.917
1.3920	77.581
1.3880	77.485
1.3840	77.424
1.3800	78.073
1.3760	78.478
1.3720	78.065
1.3680	78.354
1.3640	78.517
1.3600	78.538
1.3560	78.139
1.3520	78.028
1.3480	78.209
1.3440	78.444
1.3400	78.052
1.3360	78.173
1.3320	78.181
1.3280	78.124
1.3240	78.016
1.3200	78.157
1.3160	78.016
1.3120	78.044
1.3080	78.044
1.3040	77.923
1.3000	77.923
1.2960	77.834
1.2920	77.837
1.2880	77.779
1.2840	77.724
1.2800	77.700
1.2760	77.887
1.2720	77.705
1.2680	77.708
1.2640	77.748
1.2600	78.296
1.2560	78.354
1.2520	78.354
1.2480	78.383
1.2440	77.741
1.2400	77.659
1.2360	77.992
1.2320	78.053
1.2280	78.209
1.2240	77.690
1.2200	77.448
1.2160	77.479
1.2120	77.387
1.2080	77.144
1.2040	77.054
1.2000	77.054
1.1960	76.912
1.1920	76.822
1.1880	76.601
1.1840	76.631
1.1800	76.662
1.1760	76.484
1.1720	76.455
1.1680	76.455
1.1640	76.286
1.1600	76.274
1.1560	76.211
1.1520	75.916
1.1480	76.476
1.1440	76.354
1.1400	75.960
1.1360	76.787
1.1320	76.788
1.1280	76.396
1.1240	76.847
1.1200	77.127
1.1160	77.006
1.1120	77.096
1.1080	76.944
1.1040	76.340
1.1000	76.696
1.0960	76.975
1.0920	76.161
1.0880	76.431
1.0840	76.791
1.0800	75.771
1.0760	75.949
1.0720	75.992
1.0680	75.783
1.0640	75.491
1.0600	75.725
1.0560	75.169
1.0520	75.143
1.0480	75.721
1.0440	75.878
1.0400	75.902
1.0360	76.470
1.0320	76.289
1.0280	75.870
1.0240	75.898
1.0200	75.807
1.0160	75.867
1.0120	75.185
1.0080	75.418
1.0040	75.807
1.0000	75.153
0.99600	74.963
0.99200	75.520
0.98800	75.433
0.98400	75.239
0.98000	75.531
0.97600	75.144
0.97200	74.998
0.96800	74.660
0.96400	75.074
0.96000	74.660
0.95600	74.899
0.95200	74.725
0.94800	74.725
0.94400	74.635
0.94000	74.429
0.93600	74.674
0.93200	74.552
0.92800	74.387
0.92400	74.434
0.92000	74.387
0.91600	74.320
0.91200	74.352
0.90800	74.377
0.90400	74.173
0.90000	74.288
0.89600	74.052
0.89200	74.052
0.88800	73.751
0.88400	73.775
0.88000	73.676
0.87600	73.667
0.87200	73.888
0.86800	73.593
0.86400	73.674
0.86000	73.410
0.85600	73.417
0.85200	73.111
0.84800	73.391
0.84400	72.645
0.84000	73.100
0.83600	73.479
0.83200	73.020
0.82800	72.872
0.82400	72.792
0.82000	73.498
0.81600	72.993
0.81200	73.071
0.80800	73.364
0.80400	73.251
0.80000	73.351
0.79900	73.351
0.79800	73.351
0.79700	73.483
0.79600	73.608
0.79500	73.608
0.79400	73.446
0.79300	73.192
0.79200	73.351
0.79100	73.481
0.79000	73.800
0.78900	73.546
0.78800	73.421
0.78700	73.580
0.78600	73.685
0.78500	74.032
0.78400	74.029
0.78300	73.543
0.78200	73.042
0.78100	73.329
0.78000	73.543
0.77900	73.731
0.77800	73.703
0.77700	73.481
0.77600	73.297
0.77500	73.267
0.77400	73.654
0.77300	73.751
0.77200	73.202
0.77100	73.109
0.77000	73.217
0.76900	72.899
0.76800	73.009
0.76700	73.672
0.76600	73.964
0.76500	73.264
0.76400	73.126
0.76300	73.416
0.76200	73.197
0.76100	73.701
0.76000	73.326
0.75900	73.527
0.75800	72.948
0.75700	72.755
0.75600	73.194
0.75500	73.638
0.75400	73.890
0.75300	73.202
0.75200	73.168
0.75100	72.877
0.75000	72.948
0.74900	73.000
0.74800	73.000
0.74700	72.904
0.74600	72.877
0.74500	72.807
0.74400	72.642
0.74300	72.150
0.74200	72.581
0.74100	73.750
0.74000	73.459
0.73900	72.762
0.73800	72.956
0.73700	72.710
0.73600	73.003
0.73500	72.807
0.73400	72.956
0.73300	73.278
0.73200	73.400
0.73100	73.123
0.73000	72.072
0.72900	72.244
0.72800	72.721
0.72700	72.270
0.72600	72.552
0.72500	72.845
0.72400	72.695
0.72300	72.695
0.72200	72.507
0.72100	72.562
0.72000	72.485
0.71900	73.248
0.71800	73.311
0.71700	73.345
0.71600	72.799
0.71500	72.816
0.71400	73.108
0.71300	72.552
0.71200	72.219
0.71100	72.345
0.71000	72.790
0.70900	72.211
0.70800	72.237
0.70700	71.867
0.70600	72.185
0.70500	72.541
0.70400	72.433
0.70300	72.343
0.70200	72.049
0.70100	71.858
0.70000	72.263
0.69900	73.025
0.69800	72.290
0.69700	72.628
0.69600	72.474
0.69500	72.601
0.69400	72.401
0.69300	72.537
0.69200	72.248
0.69100	72.601
0.69000	72.437
0.68900	72.528
0.68800	72.501
0.68700	72.301
0.68600	72.401
0.68500	72.528
0.68400	72.401
0.68300	72.100
0.68200	71.837
0.68100	72.137
0.68000	72.227
0.67900	72.291
0.67800	72.227
0.67700	71.900
0.67600	72.301
0.67500	72.793
0.67400	72.592
0.67300	72.693
0.67200	72.437
0.67100	72.418
0.67000	72.254
0.66900	72.317
0.66800	72.153
0.66700	71.851
0.66600	71.588
0.66500	71.424
0.66400	71.137
0.66300	71.275
0.66200	71.940
0.66100	72.041
0.66000	72.016
0.65900	72.740
0.65800	72.639
0.65700	71.803
0.65600	71.588
0.65500	71.852
0.65400	72.127
0.65300	72.301
0.65200	72.201
0.65100	71.874
0.65000	71.350
0.64900	70.866
0.64800	71.065
0.64700	71.851
0.64600	72.133
0.64500	71.930
0.64400	71.830
0.64300	71.905
0.64200	71.789
0.64100	71.224
0.64000	71.665
0.63900	72.044
0.63800	71.852
0.63700	71.337
0.63600	71.051
0.63500	71.237
0.63400	70.899
0.63300	70.537
0.63200	70.676
0.63100	71.186
0.63000	70.899
0.62900	70.975
0.62800	70.913
0.62700	70.614
0.62600	70.476
0.62500	70.885
0.62400	71.124
0.62300	71.137
0.62200	70.714
0.62100	70.352
0.62000	70.546
0.61900	71.084
0.61800	71.502
0.61700	71.413
0.61600	71.223
0.61500	71.400
0.61400	70.948
0.61300	70.299
0.61200	70.593
0.61100	70.718
0.61000	70.453
0.60900	70.593
0.60800	70.531
0.60700	70.429
0.60600	70.249
0.60500	70.289
0.60400	70.289
0.60300	70.111
0.60200	69.993
0.60100	69.793
0.60000	70.167
0.59900	69.842
0.59800	70.025
0.59700	70.340
0.59600	70.116
0.59500	69.760
0.59400	69.739
0.59300	70.450
0.59200	70.120
0.59100	69.850
0.59000	69.536
0.58900	69.661
0.58800	69.602
0.58700	69.167
0.58600	69.292
0.58500	69.810
0.58400	68.896
0.58300	69.433
0.58200	69.430
0.58100	68.957
0.58000	69.249
0.57900	69.580
0.57800	69.311
0.57700	69.166
0.57600	69.166
0.57500	69.330
0.57400	69.309
0.57300	69.141
0.57200	69.201
0.57100	69.649
0.57000	68.695
0.56900	68.129
0.56800	68.231
0.56700	68.369
0.56600	68.431
0.56500	68.472
0.56400	68.351
0.56300	68.491
0.56200	68.329
0.56100	68.025
0.56000	68.270
0.55900	67.895
0.55800	67.895
0.55700	68.274
0.55600	67.965
0.55500	67.361
0.55400	67.472
0.55300	67.174
0.55200	67.045
0.55100	66.815
0.55000	66.783
0.54900	67.217
0.54800	66.882
0.54700	66.727
0.54600	66.905
0.54500	66.716
0.54400	66.295
0.54300	66.928
0.54200	66.884
0.54100	66.783
0.54000	66.482
0.53900	66.672
0.53800	66.628
0.53700	66.156
0.53600	66.358
0.53500	66.100
0.53400	66.414
0.53300	65.961
0.53200	65.480
0.53100	65.128
0.53000	64.838
0.52900	64.607
0.52800	65.130
0.52700	64.875
0.52600	64.473
0.52500	64.373
0.52400	64.681
0.52300	64.721
0.52200	64.976
0.52100	64.922
0.52000	65.145
0.51900	64.687
0.51800	64.326
0.51700	64.178
0.51600	63.923
0.51500	63.982
0.51400	63.722
0.51300	63.473
0.51200	63.060
0.51100	63.308
0.51000	63.517
0.50900	63.212
0.50800	63.171
0.50700	63.283
0.50600	63.330
0.50500	62.770
0.50400	62.975
0.50300	63.135
0.50200	62.927
0.50100	63.138
0.50000	63.189
0.49900	62.366
0.49800	62.166
0.49700	62.419
0.49600	62.214
0.49500	62.266
0.49400	61.762
0.49300	61.712
0.49200	61.967
0.49100	62.122
0.49000	61.460
0.48900	61.661
0.48800	61.914
0.48700	61.610
0.48600	61.407
0.48500	61.353
0.48400	61.660
0.48300	61.711
0.48200	61.154
0.48100	60.648
0.48000	60.991
0.47900	61.092
0.47800	61.038
0.47700	60.692
0.47600	60.789
0.47500	60.690
0.47400	61.399
0.47300	60.887
0.47200	60.583
0.47100	60.435
0.47000	60.537
0.46900	59.992
0.46800	59.980
0.46700	59.987
0.46600	60.137
0.46500	59.838
0.46400	60.129
0.46300	59.873
0.46200	59.611
0.46100	59.672
0.46000	59.532
0.45900	61.287
0.45800	61.179
0.45700	61.124
0.45600	60.915
0.45500	60.766
0.45400	60.508
0.45300	60.417
0.45200	60.508
0.45100	60.005
0.45000	60.249
0.44900	60.706
0.44800	60.452
0.44700	60.295
0.44600	60.380
0.44500	59.859
0.44400	59.656
0.44300	59.128
0.44200	59.627
0.44100	59.694
0.44000	59.375
0.43900	59.159
0.43800	59.351
0.43700	58.881
0.43600	59.094
0.43500	59.190
0.43400	59.081
0.43300	58.611
0.43200	58.344
0.43100	58.486
0.43000	58.055
0.42900	58.296
0.42800	57.944
0.42700	57.515
0.42600	57.746
0.42500	57.330
0.42400	57.317
0.42300	57.663
0.42200	57.216
0.42100	57.090
0.42000	57.206
0.41900	56.864
0.41800	56.576
0.41700	56.491
0.41600	56.590
0.41500	56.551
0.41400	56.414
0.41300	56.125
0.41200	56.124
0.41100	55.904
0.41000	55.584
0.40900	55.719
0.40800	56.062
0.40700	56.000
0.40600	55.764
0.40500	55.359
0.40400	55.383
0.40300	55.276
0.40200	54.894
0.40100	54.910
0.40000	55.023
