Name: Augen Gneiss
Type:  Rocks
Class: Metamorphic 
Subclass: Gneiss 
Particle Size:  0-75 Micrometer
Sample No.:  gneiss8.doc
Owner:  JHU
Wavelength Range:  All
Origin:  Sample No. 389, The Hunt and Salisbury Collection at the U.S. 
Geological Survey, Denver, Co.
Description:  Very large augen of microcline  enclose smaller albite and 
orthoclase euhedra along with anhedra of quartz and biotite euhedra.  There is 
minor sericitization  of the feldspars, scattered opaques (magnetite?) and some 
myrmeketic texture is present.  There are much lesser amounts of anhedral 
green amphibole in this rock along with trace amounts of zircon euhedra.  

Measurement:  Directional (10 Degree) Hemispherical Reflectance
First Column:  X
Second Column:  Y  
X Units:  Wavelength (micrometers)
Y Units:  Reflectance (percent)
First X Value: 14.9831
Last X Value:  0.4
Number of X Values: 2868
Additional information:  gneiss8a.txt

14.983	3.3140
14.940	3.4601
14.897	3.6190
14.854	3.7578
14.812	3.8551
14.770	3.9136
14.728	3.9378
14.686	3.9288
14.645	3.8843
14.603	3.7988
14.562	3.6666
14.521	3.4812
14.481	3.2574
14.441	3.0305
14.400	2.8406
14.361	2.7262
14.321	2.7101
14.281	2.7883
14.242	2.9344
14.203	3.1080
14.164	3.2721
14.126	3.4035
14.087	3.4923
14.049	3.5387
14.011	3.5501
13.973	3.5373
13.936	3.5096
13.899	3.4720
13.861	3.4296
13.824	3.3898
13.788	3.3583
13.751	3.3379
13.715	3.3313
13.679	3.3403
13.643	3.3618
13.607	3.3931
13.571	3.4317
13.536	3.4760
13.500	3.5238
13.465	3.5724
13.430	3.6169
13.396	3.6515
13.361	3.6706
13.327	3.6711
13.293	3.6512
13.259	3.6110
13.225	3.5534
13.191	3.4812
13.158	3.3971
13.124	3.3033
13.091	3.2041
13.058	3.1044
13.026	3.0102
12.993	2.9280
12.960	2.8643
12.928	2.8195
12.896	2.7897
12.864	2.7653
12.832	2.7371
12.800	2.6980
12.769	2.6488
12.737	2.5995
12.706	2.5659
12.675	2.5623
12.644	2.5983
12.614	2.6744
12.583	2.7797
12.552	2.8958
12.522	3.0038
12.492	3.0914
12.462	3.1558
12.432	3.2053
12.402	3.2612
12.373	3.3488
12.343	3.4921
12.314	3.7050
12.285	3.9911
12.256	4.3404
12.227	4.7328
12.198	5.1439
12.169	5.5524
12.141	5.9403
12.113	6.2965
12.084	6.6154
12.056	6.8947
12.028	7.1338
12.000	7.3351
11.973	7.5021
11.945	7.6397
11.918	7.7519
11.890	7.8426
11.863	7.9149
11.836	7.9719
11.809	8.0169
11.782	8.0543
11.755	8.0889
11.729	8.1230
11.702	8.1566
11.676	8.1872
11.650	8.2109
11.624	8.2248
11.598	8.2265
11.572	8.2159
11.546	8.1964
11.520	8.1739
11.495	8.1540
11.469	8.1405
11.444	8.1334
11.419	8.1296
11.394	8.1204
11.369	8.0958
11.344	8.0496
11.319	7.9790
11.294	7.8855
11.270	7.7732
11.245	7.6494
11.221	7.5208
11.197	7.3908
11.173	7.2596
11.149	7.1263
11.125	6.9880
11.101	6.8433
11.077	6.6924
11.054	6.5390
11.030	6.3893
11.007	6.2486
10.983	6.1207
10.960	6.0073
10.937	5.9071
10.914	5.8186
10.891	5.7395
10.868	5.6670
10.846	5.6012
10.823	5.5403
10.800	5.4835
10.778	5.4276
10.755	5.3698
10.733	5.3073
10.711	5.2384
10.689	5.1631
10.667	5.0837
10.645	5.0030
10.623	4.9241
10.602	4.8479
10.580	4.7740
10.558	4.7015
10.537	4.6297
10.516	4.5592
10.494	4.4922
10.473	4.4308
10.452	4.3771
10.431	4.3297
10.410	4.2868
10.389	4.2461
10.368	4.2051
10.348	4.1637
10.327	4.1239
10.306	4.0884
10.286	4.0590
10.266	4.0368
10.245	4.0211
10.225	4.0107
10.205	4.0029
10.185	3.9975
10.165	3.9975
10.145	4.0048
10.125	4.0214
10.106	4.0491
10.086	4.0893
10.066	4.1395
10.047	4.1971
10.027	4.2591
10.008	4.3233
9.9887	4.3849
9.9695	4.4408
9.9504	4.4905
9.9313	4.5348
9.9123	4.5722
9.8934	4.6011
9.8746	4.6186
9.8558	4.6207
9.8371	4.6037
9.8185	4.5675
9.7999	4.5177
9.7814	4.4609
9.7630	4.4036
9.7447	4.3510
9.7264	4.3055
9.7082	4.2669
9.6900	4.2338
9.6719	4.2077
9.6539	4.1914
9.6360	4.1869
9.6181	4.1961
9.6003	4.2210
9.5825	4.2613
9.5649	4.3145
9.5472	4.3775
9.5297	4.4476
9.5122	4.5206
9.4948	4.5940
9.4774	4.6702
9.4601	4.7569
9.4429	4.8647
9.4257	5.0037
9.4086	5.1818
9.3916	5.3963
9.3746	5.6353
9.3577	5.8799
9.3408	6.1082
9.3240	6.3002
9.3073	6.4419
9.2906	6.5278
9.2740	6.5612
9.2574	6.5520
9.2409	6.5141
9.2245	6.4634
9.2081	6.4120
9.1918	6.3670
9.1755	6.3280
9.1593	6.2901
9.1431	6.2472
9.1270	6.1946
9.1110	6.1302
9.0950	6.0563
9.0791	5.9779
9.0632	5.9017
9.0474	5.8318
9.0316	5.7726
9.0159	5.7269
9.0003	5.6952
8.9847	5.6765
8.9691	5.6682
8.9536	5.6675
8.9382	5.6717
8.9228	5.6774
8.9075	5.6824
8.8922	5.6831
8.8770	5.6781
8.8618	5.6670
8.8467	5.6518
8.8316	5.6346
8.8166	5.6182
8.8016	5.6064
8.7867	5.5988
8.7718	5.5931
8.7570	5.5848
8.7422	5.5671
8.7275	5.5289
8.7129	5.4591
8.6982	5.3520
8.6837	5.2123
8.6692	5.0586
8.6547	4.9243
8.6403	4.8474
8.6259	4.8573
8.6116	4.9608
8.5973	5.1403
8.5830	5.3596
8.5688	5.5763
8.5547	5.7558
8.5406	5.8839
8.5266	5.9630
8.5126	6.0066
8.4986	6.0286
8.4847	6.0400
8.4708	6.0469
8.4570	6.0518
8.4432	6.0561
8.4295	6.0622
8.4158	6.0741
8.4022	6.0949
8.3886	6.1252
8.3750	6.1638
8.3615	6.2095
8.3481	6.2621
8.3347	6.3216
8.3213	6.3881
8.3079	6.4644
8.2946	6.5527
8.2814	6.6536
8.2682	6.7649
8.2550	6.8819
8.2419	6.9991
8.2288	7.1071
8.2158	7.1942
8.2028	7.2492
8.1898	7.2629
8.1769	7.2271
8.1640	7.1369
8.1512	6.9932
8.1384	6.8025
8.1256	6.5759
8.1129	6.3261
8.1002	6.0682
8.0876	5.8145
8.0750	5.5739
8.0624	5.3504
8.0499	5.1436
8.0374	4.9521
8.0250	4.7728
8.0126	4.6023
8.0002	4.4367
7.9879	4.2738
7.9756	4.1116
7.9634	3.9489
7.9512	3.7846
7.9390	3.6207
7.9268	3.4611
7.9147	3.3093
7.9027	3.1693
7.8906	3.0450
7.8786	2.9382
7.8667	2.8484
7.8548	2.7731
7.8429	2.7108
7.8310	2.6606
7.8192	2.6216
7.8075	2.5946
7.7957	2.5789
7.7840	2.5740
7.7723	2.5758
7.7607	2.5811
7.7491	2.5867
7.7375	2.5912
7.7260	2.5941
7.7145	2.5957
7.7031	2.5962
7.6916	2.5964
7.6802	2.5969
7.6689	2.5979
7.6575	2.6009
7.6462	2.6078
7.6350	2.6201
7.6238	2.6381
7.6126	2.6609
7.6014	2.6886
7.5903	2.7196
7.5792	2.7535
7.5681	2.7902
7.5571	2.8302
7.5461	2.8730
7.5351	2.9173
7.5242	2.9626
7.5133	3.0078
7.5024	3.0521
7.4916	3.0961
7.4807	3.1411
7.4700	3.1887
7.4592	3.2404
7.4485	3.2974
7.4378	3.3607
7.4272	3.4286
7.4165	3.4992
7.4059	3.5695
7.3954	3.6387
7.3848	3.7055
7.3743	3.7703
7.3639	3.8348
7.3534	3.9013
7.3430	3.9719
7.3326	4.0479
7.3223	4.1308
7.3119	4.2227
7.3016	4.3240
7.2914	4.4337
7.2811	4.5509
7.2709	4.6750
7.2607	4.8048
7.2506	4.9374
7.2404	5.0700
7.2303	5.1995
7.2203	5.3229
7.2102	5.4366
7.2002	5.5401
7.1902	5.6362
7.1803	5.7307
7.1703	5.8299
7.1604	5.9396
7.1506	6.0622
7.1407	6.1970
7.1309	6.3377
7.1211	6.4760
7.1113	6.6034
7.1016	6.7140
7.0919	6.8049
7.0822	6.8781
7.0725	6.9392
7.0629	6.9958
7.0533	7.0547
7.0437	7.1211
7.0341	7.1961
7.0246	7.2776
7.0151	7.3609
7.0056	7.4434
6.9962	7.5239
6.9867	7.6042
6.9773	7.6878
6.9679	7.7789
6.9586	7.8796
6.9493	7.9873
6.9400	8.0958
6.9307	8.1960
6.9214	8.2793
6.9122	8.3388
6.9030	8.3743
6.8938	8.3909
6.8847	8.3994
6.8755	8.4112
6.8664	8.4349
6.8573	8.4716
6.8483	8.5164
6.8393	8.5599
6.8302	8.5940
6.8213	8.6123
6.8123	8.6156
6.8034	8.6104
6.7944	8.6042
6.7855	8.6026
6.7767	8.6068
6.7678	8.6168
6.7590	8.6308
6.7502	8.6457
6.7414	8.6613
6.7327	8.6812
6.7239	8.7110
6.7152	8.7567
6.7065	8.8226
6.6979	8.9121
6.6892	9.0234
6.6806	9.1489
6.6720	9.2756
6.6634	9.3921
6.6549	9.4925
6.6464	9.5761
6.6378	9.6441
6.6294	9.7002
6.6209	9.7452
6.6124	9.7746
6.6040	9.7829
6.5956	9.7687
6.5872	9.7409
6.5789	9.7144
6.5705	9.7083
6.5622	9.7400
6.5539	9.8212
6.5456	9.9531
6.5374	10.131
6.5292	10.344
6.5209	10.580
6.5128	10.829
6.5046	11.087
6.4964	11.353
6.4883	11.622
6.4802	11.886
6.4721	12.132
6.4640	12.339
6.4560	12.489
6.4480	12.573
6.4399	12.597
6.4320	12.578
6.4240	12.540
6.4160	12.502
6.4081	12.471
6.4002	12.436
6.3923	12.382
6.3844	12.292
6.3766	12.157
6.3687	11.985
6.3609	11.791
6.3531	11.593
6.3454	11.403
6.3376	11.223
6.3299	11.048
6.3221	10.869
6.3144	10.680
6.3068	10.477
6.2991	10.263
6.2914	10.043
6.2838	9.8208
6.2762	9.6012
6.2686	9.3888
6.2611	9.1887
6.2535	9.0071
6.2460	8.8472
6.2385	8.7089
6.2310	8.5905
6.2235	8.4915
6.2160	8.4131
6.2086	8.3605
6.2011	8.3440
6.1937	8.3759
6.1863	8.4633
6.1790	8.6054
6.1716	8.7963
6.1643	9.0236
6.1570	9.2706
6.1496	9.5198
6.1424	9.7606
6.1351	9.9882
6.1278	10.202
6.1206	10.407
6.1134	10.612
6.1062	10.819
6.0990	11.020
6.0918	11.205
6.0847	11.365
6.0776	11.493
6.0704	11.592
6.0633	11.677
6.0563	11.770
6.0492	11.884
6.0421	12.018
6.0351	12.164
6.0281	12.305
6.0211	12.419
6.0141	12.488
6.0071	12.512
6.0002	12.502
5.9932	12.467
5.9863	12.419
5.9794	12.366
5.9725	12.313
5.9657	12.257
5.9588	12.200
5.9520	12.154
5.9451	12.140
5.9383	12.173
5.9315	12.262
5.9247	12.405
5.9180	12.589
5.9112	12.796
5.9045	13.010
5.8978	13.227
5.8911	13.455
5.8844	13.701
5.8777	13.966
5.8711	14.243
5.8644	14.516
5.8578	14.766
5.8512	14.980
5.8446	15.154
5.8380	15.300
5.8314	15.438
5.8249	15.583
5.8184	15.745
5.8118	15.918
5.8053	16.089
5.7988	16.240
5.7923	16.357
5.7859	16.439
5.7794	16.500
5.7730	16.558
5.7666	16.629
5.7602	16.722
5.7538	16.833
5.7474	16.952
5.7410	17.061
5.7347	17.149
5.7283	17.211
5.7220	17.249
5.7157	17.266
5.7094	17.263
5.7031	17.240
5.6969	17.188
5.6906	17.100
5.6844	16.968
5.6782	16.788
5.6719	16.559
5.6657	16.286
5.6596	15.983
5.6534	15.669
5.6472	15.367
5.6411	15.099
5.6349	14.881
5.6288	14.720
5.6227	14.613
5.6166	14.548
5.6106	14.514
5.6045	14.500
5.5984	14.496
5.5924	14.503
5.5864	14.520
5.5804	14.554
5.5744	14.607
5.5684	14.683
5.5624	14.788
5.5564	14.927
5.5505	15.105
5.5445	15.324
5.5386	15.586
5.5327	15.888
5.5268	16.219
5.5209	16.567
5.5151	16.919
5.5092	17.263
5.5033	17.587
5.4975	17.885
5.4917	18.155
5.4859	18.399
5.4801	18.622
5.4743	18.826
5.4685	19.012
5.4628	19.174
5.4570	19.302
5.4513	19.380
5.4455	19.395
5.4398	19.334
5.4341	19.197
5.4284	18.987
5.4228	18.711
5.4171	18.374
5.4114	17.982
5.4058	17.539
5.4002	17.050
5.3945	16.530
5.3889	16.001
5.3833	15.491
5.3778	15.027
5.3722	14.632
5.3666	14.321
5.3611	14.102
5.3555	13.973
5.3500	13.928
5.3445	13.953
5.3390	14.032
5.3335	14.146
5.3280	14.281
5.3225	14.426
5.3171	14.577
5.3116	14.737
5.3062	14.909
5.3008	15.099
5.2954	15.316
5.2900	15.566
5.2846	15.854
5.2792	16.181
5.2738	16.547
5.2684	16.947
5.2631	17.382
5.2578	17.849
5.2524	18.352
5.2471	18.892
5.2418	19.465
5.2365	20.062
5.2312	20.665
5.2260	21.256
5.2207	21.812
5.2154	22.315
5.2102	22.751
5.2050	23.114
5.1998	23.404
5.1945	23.625
5.1893	23.787
5.1842	23.906
5.1790	23.993
5.1738	24.062
5.1686	24.121
5.1635	24.175
5.1584	24.226
5.1532	24.278
5.1481	24.334
5.1430	24.399
5.1379	24.479
5.1328	24.577
5.1277	24.691
5.1227	24.811
5.1176	24.925
5.1126	25.018
5.1075	25.072
5.1025	25.076
5.0975	25.028
5.0925	24.935
5.0875	24.812
5.0825	24.679
5.0775	24.553
5.0726	24.451
5.0676	24.378
5.0627	24.333
5.0577	24.314
5.0528	24.314
5.0479	24.326
5.0430	24.344
5.0380	24.364
5.0332	24.381
5.0283	24.398
5.0234	24.420
5.0185	24.455
5.0137	24.514
5.0088	24.608
5.0040	24.742
4.9992	24.923
4.9944	25.157
4.9896	25.449
4.9848	25.808
4.9800	26.236
4.9752	26.726
4.9704	27.258
4.9657	27.802
4.9609	28.321
4.9562	28.785
4.9514	29.176
4.9467	29.495
4.9420	29.761
4.9373	30.007
4.9326	30.270
4.9279	30.590
4.9232	30.997
4.9186	31.512
4.9139	32.135
4.9092	32.856
4.9046	33.647
4.9000	34.474
4.8953	35.298
4.8907	36.084
4.8861	36.805
4.8815	37.447
4.8769	38.007
4.8723	38.491
4.8678	38.910
4.8632	39.278
4.8586	39.601
4.8541	39.884
4.8495	40.133
4.8450	40.349
4.8405	40.537
4.8360	40.701
4.8315	40.845
4.8270	40.973
4.8225	41.086
4.8180	41.187
4.8135	41.282
4.8090	41.376
4.8046	41.476
4.8001	41.586
4.7957	41.706
4.7913	41.834
4.7868	41.965
4.7824	42.097
4.7780	42.227
4.7736	42.356
4.7692	42.487
4.7648	42.622
4.7605	42.765
4.7561	42.916
4.7517	43.072
4.7474	43.225
4.7431	43.366
4.7387	43.485
4.7344	43.574
4.7301	43.632
4.7258	43.660
4.7215	43.660
4.7172	43.636
4.7129	43.589
4.7086	43.519
4.7043	43.429
4.7000	43.327
4.6958	43.227
4.6915	43.146
4.6873	43.103
4.6831	43.113
4.6788	43.182
4.6746	43.310
4.6704	43.486
4.6662	43.698
4.6620	43.930
4.6578	44.171
4.6536	44.412
4.6495	44.651
4.6453	44.886
4.6411	45.117
4.6370	45.345
4.6328	45.569
4.6287	45.786
4.6246	46.000
4.6205	46.210
4.6163	46.419
4.6122	46.625
4.6081	46.826
4.6040	47.021
4.6000	47.205
4.5959	47.378
4.5918	47.540
4.5877	47.695
4.5837	47.846
4.5796	47.994
4.5756	48.144
4.5716	48.295
4.5675	48.447
4.5635	48.597
4.5595	48.743
4.5555	48.878
4.5515	48.997
4.5475	49.094
4.5435	49.168
4.5395	49.220
4.5356	49.250
4.5316	49.260
4.5276	49.249
4.5237	49.213
4.5197	49.148
4.5158	49.055
4.5119	48.939
4.5080	48.814
4.5040	48.695
4.5001	48.597
4.4962	48.529
4.4923	48.493
4.4884	48.482
4.4846	48.488
4.4807	48.505
4.4768	48.534
4.4730	48.583
4.4691	48.664
4.4652	48.790
4.4614	48.965
4.4576	49.180
4.4537	49.420
4.4499	49.664
4.4461	49.895
4.4423	50.107
4.4385	50.300
4.4347	50.483
4.4309	50.664
4.4271	50.850
4.4233	51.043
4.4196	51.241
4.4158	51.443
4.4120	51.648
4.4083	51.856
4.4045	52.070
4.4008	52.292
4.3971	52.522
4.3934	52.761
4.3896	53.007
4.3859	53.258
4.3822	53.508
4.3785	53.754
4.3748	53.990
4.3711	54.217
4.3674	54.435
4.3638	54.647
4.3601	54.854
4.3564	55.056
4.3528	55.252
4.3491	55.439
4.3455	55.616
4.3418	55.780
4.3382	55.933
4.3346	56.075
4.3310	56.207
4.3273	56.328
4.3237	56.438
4.3201	56.537
4.3165	56.625
4.3129	56.701
4.3094	56.768
4.3058	56.827
4.3022	56.882
4.2986	56.938
4.2951	56.999
4.2915	57.070
4.2880	57.154
4.2844	57.249
4.2809	57.356
4.2774	57.470
4.2738	57.589
4.2703	57.710
4.2668	57.828
4.2633	57.942
4.2598	58.048
4.2563	58.146
4.2528	58.232
4.2493	58.306
4.2458	58.368
4.2424	58.420
4.2389	58.465
4.2354	58.510
4.2320	58.559
4.2285	58.613
4.2251	58.672
4.2216	58.734
4.2182	58.793
4.2148	58.847
4.2113	58.895
4.2079	58.937
4.2045	58.977
4.2011	59.016
4.1977	59.058
4.1943	59.106
4.1909	59.163
4.1875	59.229
4.1841	59.305
4.1808	59.386
4.1774	59.467
4.1740	59.543
4.1707	59.613
4.1673	59.674
4.1640	59.732
4.1606	59.788
4.1573	59.846
4.1540	59.908
4.1506	59.973
4.1473	60.040
4.1440	60.107
4.1407	60.172
4.1374	60.234
4.1341	60.294
4.1308	60.352
4.1275	60.411
4.1242	60.473
4.1209	60.538
4.1177	60.606
4.1144	60.675
4.1111	60.742
4.1079	60.805
4.1046	60.864
4.1014	60.920
4.0981	60.976
4.0949	61.030
4.0917	61.081
4.0884	61.130
4.0852	61.174
4.0820	61.212
4.0788	61.247
4.0756	61.281
4.0724	61.314
4.0692	61.345
4.0660	61.374
4.0628	61.398
4.0596	61.417
4.0565	61.432
4.0533	61.444
4.0501	61.454
4.0470	61.462
4.0438	61.467
4.0406	61.470
4.0375	61.470
4.0344	61.466
4.0312	61.459
4.0281	61.451
4.0250	61.439
4.0218	61.427
4.0187	61.414
4.0156	61.405
4.0125	61.399
4.0094	61.395
4.0063	61.392
4.0032	61.388
4.0001	61.382
3.9970	61.375
3.9940	61.370
3.9909	61.371
3.9878	61.378
3.9847	61.390
3.9817	61.408
3.9786	61.430
3.9756	61.456
3.9725	61.489
3.9695	61.531
3.9665	61.580
3.9634	61.634
3.9604	61.691
3.9574	61.748
3.9544	61.804
3.9513	61.858
3.9483	61.910
3.9453	61.960
3.9423	62.006
3.9393	62.047
3.9363	62.080
3.9333	62.107
3.9304	62.130
3.9274	62.149
3.9244	62.166
3.9214	62.182
3.9185	62.197
3.9155	62.210
3.9126	62.221
3.9096	62.227
3.9067	62.228
3.9037	62.222
3.9008	62.210
3.8979	62.194
3.8949	62.176
3.8920	62.158
3.8891	62.141
3.8862	62.125
3.8833	62.110
3.8804	62.096
3.8775	62.080
3.8746	62.065
3.8717	62.051
3.8688	62.039
3.8659	62.031
3.8630	62.027
3.8601	62.024
3.8573	62.022
3.8544	62.019
3.8515	62.014
3.8487	62.008
3.8458	62.003
3.8430	62.002
3.8401	62.006
3.8373	62.013
3.8344	62.022
3.8316	62.029
3.8288	62.032
3.8259	62.030
3.8231	62.025
3.8203	62.019
3.8175	62.015
3.8147	62.014
3.8119	62.014
3.8091	62.013
3.8063	62.006
3.8035	61.992
3.8007	61.970
3.7979	61.942
3.7951	61.912
3.7924	61.883
3.7896	61.855
3.7868	61.829
3.7841	61.801
3.7813	61.769
3.7785	61.733
3.7758	61.696
3.7730	61.658
3.7703	61.622
3.7676	61.588
3.7648	61.555
3.7621	61.523
3.7594	61.491
3.7566	61.459
3.7539	61.425
3.7512	61.390
3.7485	61.352
3.7458	61.312
3.7431	61.271
3.7404	61.233
3.7377	61.198
3.7350	61.167
3.7323	61.143
3.7296	61.122
3.7269	61.103
3.7242	61.085
3.7216	61.067
3.7189	61.048
3.7162	61.029
3.7136	61.011
3.7109	60.993
3.7083	60.976
3.7056	60.959
3.7030	60.941
3.7003	60.922
3.6977	60.903
3.6950	60.884
3.6924	60.866
3.6898	60.850
3.6872	60.835
3.6845	60.823
3.6819	60.811
3.6793	60.798
3.6767	60.779
3.6741	60.753
3.6715	60.721
3.6689	60.684
3.6663	60.648
3.6637	60.618
3.6611	60.593
3.6585	60.571
3.6560	60.544
3.6534	60.509
3.6508	60.464
3.6482	60.410
3.6457	60.350
3.6431	60.290
3.6406	60.232
3.6380	60.178
3.6355	60.126
3.6329	60.076
3.6304	60.027
3.6278	59.978
3.6253	59.929
3.6227	59.879
3.6202	59.828
3.6177	59.777
3.6152	59.728
3.6127	59.679
3.6101	59.629
3.6076	59.576
3.6051	59.521
3.6026	59.462
3.6001	59.402
3.5976	59.343
3.5951	59.286
3.5926	59.228
3.5901	59.168
3.5876	59.104
3.5852	59.037
3.5827	58.969
3.5802	58.902
3.5777	58.838
3.5753	58.776
3.5728	58.715
3.5704	58.652
3.5679	58.587
3.5654	58.518
3.5630	58.447
3.5605	58.373
3.5581	58.296
3.5557	58.215
3.5532	58.131
3.5508	58.045
3.5484	57.957
3.5459	57.867
3.5435	57.774
3.5411	57.676
3.5387	57.572
3.5363	57.460
3.5338	57.344
3.5314	57.224
3.5290	57.098
3.5266	56.966
3.5242	56.825
3.5218	56.674
3.5195	56.513
3.5171	56.341
3.5147	56.159
3.5123	55.972
3.5099	55.784
3.5075	55.605
3.5052	55.445
3.5028	55.317
3.5004	55.228
3.4981	55.179
3.4957	55.164
3.4934	55.171
3.4910	55.187
3.4887	55.201
3.4863	55.205
3.4840	55.199
3.4816	55.183
3.4793	55.160
3.4770	55.131
3.4746	55.096
3.4723	55.053
3.4700	54.999
3.4677	54.929
3.4653	54.842
3.4630	54.739
3.4607	54.620
3.4584	54.489
3.4561	54.351
3.4538	54.209
3.4515	54.070
3.4492	53.936
3.4469	53.810
3.4446	53.692
3.4423	53.582
3.4400	53.482
3.4378	53.389
3.4355	53.300
3.4332	53.210
3.4309	53.109
3.4287	52.992
3.4264	52.857
3.4241	52.707
3.4219	52.552
3.4196	52.405
3.4174	52.280
3.4151	52.182
3.4129	52.110
3.4106	52.059
3.4084	52.022
3.4061	51.992
3.4039	51.961
3.4017	51.926
3.3994	51.884
3.3972	51.829
3.3950	51.757
3.3928	51.667
3.3906	51.564
3.3883	51.458
3.3861	51.357
3.3839	51.267
3.3817	51.191
3.3795	51.123
3.3773	51.060
3.3751	50.996
3.3729	50.930
3.3707	50.868
3.3685	50.810
3.3663	50.758
3.3641	50.708
3.3620	50.655
3.3598	50.598
3.3576	50.534
3.3554	50.468
3.3533	50.403
3.3511	50.341
3.3489	50.279
3.3468	50.214
3.3446	50.143
3.3425	50.066
3.3403	49.983
3.3382	49.897
3.3360	49.809
3.3339	49.719
3.3317	49.625
3.3296	49.527
3.3274	49.426
3.3253	49.325
3.3232	49.225
3.3210	49.129
3.3189	49.036
3.3168	48.941
3.3147	48.839
3.3126	48.729
3.3104	48.611
3.3083	48.485
3.3062	48.354
3.3041	48.225
3.3020	48.096
3.2999	47.969
3.2978	47.843
3.2957	47.720
3.2936	47.596
3.2915	47.473
3.2894	47.347
3.2874	47.220
3.2853	47.091
3.2832	46.959
3.2811	46.827
3.2790	46.699
3.2770	46.575
3.2749	46.453
3.2728	46.331
3.2708	46.208
3.2687	46.080
3.2666	45.946
3.2646	45.806
3.2625	45.663
3.2605	45.519
3.2584	45.376
3.2564	45.239
3.2543	45.110
3.2523	44.988
3.2503	44.871
3.2482	44.755
3.2462	44.634
3.2442	44.505
3.2421	44.368
3.2401	44.226
3.2381	44.085
3.2361	43.945
3.2340	43.806
3.2320	43.666
3.2300	43.520
3.2280	43.369
3.2260	43.214
3.2240	43.060
3.2220	42.909
3.2200	42.764
3.2180	42.623
3.2160	42.484
3.2140	42.344
3.2120	42.201
3.2100	42.055
3.2080	41.904
3.2060	41.751
3.2040	41.597
3.2021	41.442
3.2001	41.286
3.1981	41.130
3.1961	40.974
3.1942	40.819
3.1922	40.663
3.1902	40.509
3.1883	40.358
3.1863	40.211
3.1844	40.069
3.1824	39.932
3.1805	39.801
3.1785	39.670
3.1766	39.537
3.1746	39.398
3.1727	39.249
3.1707	39.095
3.1688	38.937
3.1669	38.782
3.1649	38.631
3.1630	38.485
3.1611	38.346
3.1591	38.209
3.1572	38.071
3.1553	37.932
3.1534	37.793
3.1515	37.656
3.1495	37.520
3.1476	37.389
3.1457	37.262
3.1438	37.135
3.1419	37.003
3.1400	36.864
3.1381	36.718
3.1362	36.566
3.1343	36.415
3.1324	36.270
3.1305	36.134
3.1286	36.005
3.1268	35.880
3.1249	35.753
3.1230	35.623
3.1211	35.490
3.1192	35.356
3.1174	35.225
3.1155	35.098
3.1136	34.975
3.1117	34.852
3.1099	34.731
3.1080	34.609
3.1061	34.490
3.1043	34.376
3.1024	34.268
3.1006	34.162
3.0987	34.058
3.0969	33.954
3.0950	33.854
3.0932	33.757
3.0913	33.666
3.0895	33.583
3.0876	33.503
3.0858	33.423
3.0840	33.341
3.0821	33.259
3.0803	33.177
3.0785	33.097
3.0766	33.019
3.0748	32.943
3.0730	32.869
3.0712	32.797
3.0694	32.729
3.0675	32.667
3.0657	32.608
3.0639	32.547
3.0621	32.479
3.0603	32.403
3.0585	32.318
3.0567	32.229
3.0549	32.144
3.0531	32.067
3.0513	31.999
3.0495	31.936
3.0477	31.875
3.0459	31.813
3.0441	31.747
3.0423	31.674
3.0406	31.596
3.0388	31.516
3.0370	31.432
3.0352	31.343
3.0334	31.249
3.0317	31.154
3.0299	31.058
3.0281	30.963
3.0264	30.871
3.0246	30.781
3.0228	30.689
3.0211	30.595
3.0193	30.496
3.0176	30.392
3.0158	30.282
3.0140	30.169
3.0123	30.053
3.0105	29.936
3.0088	29.822
3.0070	29.713
3.0053	29.611
3.0036	29.516
3.0018	29.422
3.0001	29.328
2.9984	29.229
2.9966	29.126
2.9949	29.019
2.9932	28.913
2.9914	28.809
2.9897	28.707
2.9880	28.605
2.9863	28.505
2.9845	28.404
2.9828	28.305
2.9811	28.207
2.9794	28.111
2.9777	28.020
2.9760	27.933
2.9743	27.851
2.9726	27.776
2.9709	27.707
2.9692	27.643
2.9675	27.579
2.9658	27.510
2.9641	27.434
2.9624	27.352
2.9607	27.270
2.9590	27.194
2.9573	27.130
2.9556	27.077
2.9539	27.032
2.9523	26.989
2.9506	26.941
2.9489	26.890
2.9472	26.837
2.9455	26.788
2.9439	26.747
2.9422	26.714
2.9405	26.687
2.9389	26.659
2.9372	26.628
2.9355	26.594
2.9339	26.560
2.9322	26.530
2.9306	26.508
2.9289	26.494
2.9272	26.489
2.9256	26.490
2.9239	26.493
2.9223	26.495
2.9207	26.496
2.9190	26.494
2.9174	26.487
2.9157	26.475
2.9141	26.461
2.9124	26.446
2.9108	26.433
2.9092	26.423
2.9075	26.419
2.9059	26.420
2.9043	26.425
2.9027	26.433
2.9010	26.443
2.8994	26.456
2.8978	26.468
2.8962	26.477
2.8946	26.485
2.8929	26.492
2.8913	26.499
2.8897	26.505
2.8881	26.509
2.8865	26.511
2.8849	26.509
2.8833	26.502
2.8817	26.496
2.8801	26.491
2.8785	26.487
2.8769	26.484
2.8753	26.479
2.8737	26.468
2.8721	26.452
2.8705	26.436
2.8689	26.423
2.8673	26.413
2.8658	26.402
2.8642	26.390
2.8626	26.371
2.8610	26.345
2.8594	26.315
2.8579	26.283
2.8563	26.250
2.8547	26.211
2.8531	26.162
2.8516	26.103
2.8500	26.032
2.8484	25.957
2.8469	25.885
2.8453	25.820
2.8437	25.764
2.8422	25.712
2.8406	25.659
2.8391	25.598
2.8375	25.523
2.8360	25.431
2.8344	25.324
2.8329	25.204
2.8313	25.076
2.8298	24.944
2.8282	24.815
2.8267	24.689
2.8252	24.566
2.8236	24.446
2.8221	24.326
2.8205	24.204
2.8190	24.078
2.8175	23.951
2.8159	23.826
2.8144	23.712
2.8129	23.614
2.8114	23.537
2.8098	23.480
2.8083	23.437
2.8068	23.401
2.8053	23.364
2.8038	23.321
2.8022	23.272
2.8007	23.216
2.7992	23.152
2.7977	23.075
2.7962	22.982
2.7947	22.872
2.7932	22.745
2.7917	22.605
2.7902	22.461
2.7887	22.320
2.7872	22.187
2.7857	22.067
2.7842	21.967
2.7827	21.891
2.7812	21.841
2.7797	21.813
2.7782	21.799
2.7767	21.794
2.7752	21.788
2.7738	21.768
2.7723	21.718
2.7708	21.622
2.7693	21.460
2.7678	21.228
2.7664	20.945
2.7649	20.660
2.7634	20.438
2.7619	20.329
2.7605	20.358
2.7590	20.517
2.7575	20.768
2.7561	21.060
2.7546	21.354
2.7531	21.636
2.7517	21.906
2.7502	22.160
2.7488	22.396
2.7473	22.604
2.7458	22.775
2.7444	22.905
2.7429	23.009
2.7415	23.117
2.7400	23.263
2.7386	23.477
2.7371	23.778
2.7357	24.162
2.7343	24.608
2.7328	25.080
2.7314	25.544
2.7299	25.982
2.7285	26.390
2.7271	26.798
2.7256	27.245
2.7242	27.771
2.7228	28.401
2.7213	29.128
2.7199	29.912
2.7185	30.686
2.7171	31.383
2.7156	31.949
2.7142	32.355
2.7128	32.605
2.7114	32.734
2.7100	32.796
2.7085	32.865
2.7071	33.034
2.7057	33.403
2.7043	34.059
2.7029	35.054
2.7015	36.391
2.7001	38.018
2.6987	39.840
2.6973	41.756
2.6959	43.689
2.6945	45.584
2.6931	47.413
2.6917	49.161
2.6903	50.814
2.6889	52.351
2.6875	53.745
2.6861	54.972
2.6847	56.020
2.6833	56.893
2.6819	57.608
2.6805	58.196
2.6791	58.695
2.6778	59.142
2.6764	59.544
2.6750	59.888
2.6736	60.164
2.6722	60.381
2.6709	60.552
2.6695	60.712
2.6681	60.910
2.6667	61.184
2.6654	61.533
2.6640	61.920
2.6626	62.311
2.6613	62.674
2.6599	62.975
2.6585	63.203
2.6572	63.374
2.6558	63.512
2.6545	63.636
2.6531	63.758
2.6517	63.887
2.6504	64.022
2.6490	64.150
2.6477	64.264
2.6463	64.361
2.6450	64.444
2.6436	64.523
2.6423	64.608
2.6409	64.695
2.6396	64.776
2.6382	64.836
2.6369	64.862
2.6356	64.840
2.6342	64.773
2.6329	64.693
2.6315	64.636
2.6302	64.629
2.6289	64.692
2.6275	64.821
2.6262	64.981
2.6249	65.116
2.6236	65.187
2.6222	65.195
2.6209	65.155
2.6196	65.105
2.6183	65.099
2.6169	65.167
2.6156	65.302
2.6143	65.460
2.6130	65.596
2.6117	65.674
2.6103	65.663
2.6090	65.577
2.6077	65.477
2.6064	65.430
2.6051	65.475
2.6038	65.603
2.6025	65.770
2.6012	65.898
2.5999	65.910
2.5986	65.781
2.5973	65.576
2.5960	65.396
2.5947	65.327
2.5934	65.404
2.5921	65.600
2.5908	65.839
2.5895	66.032
2.5882	66.118
2.5869	66.114
2.5856	66.071
2.5843	66.040
2.5830	66.050
2.5817	66.106
2.5805	66.186
2.5792	66.257
2.5779	66.288
2.5766	66.278
2.5753	66.249
2.5741	66.226
2.5728	66.227
2.5715	66.263
2.5702	66.326
2.5690	66.391
2.5677	66.427
2.5664	66.417
2.5651	66.373
2.5639	66.321
2.5626	66.295
2.5613	66.322
2.5601	66.410
2.5588	66.537
2.5575	66.667
2.5563	66.763
2.5550	66.808
2.5538	66.805
2.5525	66.774
2.5513	66.742
2.5500	66.727
2.5487	66.738
2.5475	66.766
2.5462	66.795
2.5450	66.819
2.5437	66.834
2.5425	66.843
2.5413	66.851
2.5400	66.858
2.5388	66.865
2.5375	66.864
2.5363	66.855
2.5350	66.845
2.5338	66.845
2.5326	66.859
2.5313	66.888
2.5301	66.925
2.5289	66.959
2.5276	66.979
2.5264	66.986
2.5252	66.986
2.5239	66.987
2.5227	66.994
2.5215	67.006
2.5202	67.021
2.5190	67.035
2.5178	67.046
2.5166	67.054
2.5154	67.064
2.5141	67.078
2.5129	67.096
2.5117	67.116
2.5105	67.137
2.5093	67.155
2.5081	67.166
2.5068	67.168
2.5056	67.162
2.5044	67.153
2.5032	67.148
2.5020	67.151
2.5008	67.167
2.4996	67.195
2.4984	67.228
2.4972	67.258
2.4960	67.281
2.4948	67.292
2.4936	67.293
2.4924	67.286
2.4912	67.275
2.4900	67.263
2.4888	67.254
2.4876	67.251
2.4864	67.254
2.4852	67.264
2.4840	67.282
2.4828	67.304
2.4816	67.330
2.4805	67.358
2.4793	67.385
2.4781	67.409
2.4769	67.426
2.4757	67.435
2.4745	67.435
2.4734	67.429
2.4722	67.422
2.4710	67.418
2.4698	67.417
2.4686	67.423
2.4675	67.432
2.4663	67.443
2.4651	67.452
2.4640	67.458
2.4628	67.458
2.4616	67.451
2.4604	67.440
2.4593	67.427
2.4581	67.420
2.4569	67.424
2.4558	67.438
2.4546	67.462
2.4535	67.489
2.4523	67.515
2.4511	67.534
2.4500	67.548
2.4488	67.557
2.4477	67.565
2.4465	67.572
2.4454	67.575
2.4442	67.574
2.4431	67.572
2.4419	67.569
2.4408	67.567
2.4396	67.570
2.4385	67.581
2.4373	67.595
2.4362	67.614
2.4350	67.636
2.4339	67.662
2.4327	67.688
2.4316	67.713
2.4305	67.735
2.4293	67.750
2.4282	67.754
2.4270	67.750
2.4259	67.743
2.4248	67.738
2.4236	67.739
2.4225	67.749
2.4214	67.767
2.4202	67.789
2.4191	67.809
2.4180	67.824
2.4169	67.832
2.4157	67.834
2.4146	67.832
2.4135	67.827
2.4124	67.820
2.4112	67.815
2.4101	67.811
2.4090	67.811
2.4079	67.814
2.4068	67.823
2.4056	67.833
2.4045	67.841
2.4034	67.844
2.4023	67.842
2.4012	67.836
2.4001	67.829
2.3990	67.824
2.3979	67.821
2.3967	67.822
2.3956	67.824
2.3945	67.825
2.3934	67.824
2.3923	67.820
2.3912	67.813
2.3901	67.803
2.3890	67.793
2.3879	67.786
2.3868	67.786
2.3857	67.792
2.3846	67.804
2.3835	67.820
2.3824	67.834
2.3813	67.845
2.3802	67.855
2.3791	67.866
2.3781	67.881
2.3770	67.899
2.3759	67.918
2.3748	67.935
2.3737	67.943
2.3726	67.943
2.3715	67.939
2.3704	67.932
2.3694	67.926
2.3683	67.922
2.3672	67.918
2.3661	67.911
2.3650	67.897
2.3640	67.877
2.3629	67.851
2.3618	67.826
2.3607	67.805
2.3597	67.793
2.3586	67.789
2.3575	67.795
2.3564	67.807
2.3554	67.820
2.3543	67.834
2.3532	67.846
2.3522	67.858
2.3511	67.868
2.3500	67.878
2.3490	67.886
2.3479	67.890
2.3468	67.889
2.3458	67.887
2.3447	67.887
2.3436	67.894
2.3426	67.912
2.3415	67.943
2.3405	67.982
2.3394	68.025
2.3384	68.068
2.3373	68.104
2.3363	68.134
2.3352	68.161
2.3342	68.192
2.3331	68.230
2.3321	68.276
2.3310	68.330
2.3300	68.388
2.3289	68.442
2.3279	68.487
2.3268	68.520
2.3258	68.543
2.3247	68.559
2.3237	68.577
2.3226	68.606
2.3216	68.649
2.3206	68.705
2.3195	68.768
2.3185	68.830
2.3175	68.883
2.3164	68.921
2.3154	68.949
2.3144	68.974
2.3133	69.001
2.3123	69.033
2.3113	69.065
2.3102	69.097
2.3092	69.126
2.3082	69.150
2.3071	69.171
2.3061	69.195
2.3051	69.223
2.3041	69.252
2.3030	69.280
2.3020	69.304
2.3010	69.321
2.3000	69.327
2.2990	69.324
2.2979	69.317
2.2969	69.310
2.2959	69.308
2.2949	69.318
2.2939	69.341
2.2929	69.370
2.2918	69.399
2.2908	69.422
2.2898	69.437
2.2888	69.447
2.2878	69.453
2.2868	69.461
2.2858	69.473
2.2848	69.483
2.2838	69.486
2.2828	69.480
2.2818	69.466
2.2808	69.446
2.2798	69.424
2.2787	69.410
2.2777	69.407
2.2767	69.413
2.2757	69.424
2.2747	69.433
2.2738	69.430
2.2728	69.409
2.2718	69.371
2.2708	69.326
2.2698	69.282
2.2688	69.244
2.2678	69.213
2.2668	69.183
2.2658	69.148
2.2648	69.105
2.2638	69.058
2.2628	69.011
2.2618	68.970
2.2609	68.937
2.2599	68.910
2.2589	68.884
2.2579	68.864
2.2569	68.853
2.2559	68.851
2.2550	68.856
2.2540	68.864
2.2530	68.870
2.2520	68.872
2.2510	68.870
2.2501	68.873
2.2491	68.891
2.2481	68.924
2.2471	68.969
2.2462	69.021
2.2452	69.071
2.2442	69.112
2.2433	69.137
2.2423	69.146
2.2413	69.147
2.2403	69.146
2.2394	69.152
2.2384	69.168
2.2374	69.196
2.2365	69.227
2.2355	69.249
2.2345	69.255
2.2336	69.245
2.2326	69.223
2.2317	69.196
2.2307	69.172
2.2297	69.154
2.2288	69.138
2.2278	69.123
2.2269	69.106
2.2259	69.090
2.2250	69.073
2.2240	69.059
2.2231	69.046
2.2221	69.028
2.2211	69.002
2.2202	68.970
2.2192	68.932
2.2183	68.891
2.2173	68.846
2.2164	68.797
2.2155	68.739
2.2145	68.667
2.2136	68.583
2.2126	68.493
2.2117	68.408
2.2107	68.336
2.2098	68.283
2.2088	68.247
2.2079	68.229
2.2070	68.224
2.2060	68.233
2.2051	68.259
2.2041	68.300
2.2032	68.353
2.2023	68.410
2.2013	68.458
2.2004	68.488
2.1995	68.497
2.1985	68.492
2.1976	68.484
2.1967	68.482
2.1957	68.493
2.1948	68.517
2.1939	68.549
2.1930	68.579
2.1920	68.606
2.1911	68.638
2.1902	68.680
2.1893	68.735
2.1883	68.799
2.1874	68.871
2.1865	68.938
2.1856	68.989
2.1846	69.020
2.1837	69.037
2.1828	69.047
2.1819	69.053
2.1810	69.063
2.1800	69.081
2.1791	69.110
2.1782	69.146
2.1773	69.187
2.1764	69.231
2.1755	69.273
2.1746	69.310
2.1736	69.341
2.1727	69.365
2.1718	69.380
2.1709	69.382
2.1700	69.371
2.1691	69.349
2.1682	69.323
2.1673	69.304
2.1664	69.301
2.1655	69.319
2.1646	69.351
2.1637	69.386
2.1628	69.415
2.1619	69.434
2.1610	69.444
2.1601	69.450
2.1592	69.459
2.1583	69.477
2.1574	69.507
2.1565	69.540
2.1556	69.571
2.1547	69.597
2.1538	69.610
2.1529	69.605
2.1520	69.586
2.1511	69.562
2.1502	69.545
2.1493	69.534
2.1484	69.533
2.1475	69.541
2.1466	69.549
2.1458	69.546
2.1449	69.533
2.1440	69.512
2.1431	69.491
2.1422	69.475
2.1413	69.470
2.1404	69.479
2.1396	69.495
2.1387	69.512
2.1378	69.523
2.1369	69.521
2.1360	69.503
2.1352	69.475
2.1343	69.449
2.1334	69.434
2.1325	69.437
2.1316	69.461
2.1308	69.497
2.1299	69.527
2.1290	69.541
2.1281	69.535
2.1273	69.516
2.1264	69.491
2.1255	69.469
2.1247	69.459
2.1238	69.456
2.1229	69.453
2.1220	69.439
2.1212	69.414
2.1203	69.384
2.1194	69.355
2.1186	69.336
2.1177	69.330
2.1168	69.334
2.1160	69.338
2.1151	69.334
2.1143	69.323
2.1134	69.313
2.1125	69.314
2.1117	69.332
2.1108	69.369
2.1100	69.411
2.1091	69.442
2.1082	69.448
2.1074	69.423
2.1065	69.374
2.1057	69.314
2.1048	69.259
2.1040	69.224
2.1031	69.214
2.1023	69.222
2.1014	69.242
2.1005	69.265
2.0997	69.283
2.0988	69.288
2.0980	69.280
2.0971	69.260
2.0963	69.227
2.0955	69.184
2.0946	69.137
2.0938	69.091
2.0929	69.054
2.0921	69.030
2.0912	69.023
2.0904	69.033
2.0895	69.049
2.0887	69.060
2.0879	69.065
2.0870	69.061
2.0862	69.058
2.0853	69.077
2.0845	69.091
2.0837	69.154
2.0828	69.217
2.0820	69.165
2.0812	69.319
2.0803	69.073
2.0795	68.786
2.0760	68.786
2.0720	68.976
2.0680	68.917
2.0640	68.728
2.0600	68.385
2.0560	68.443
2.0520	68.574
2.0480	68.305
2.0440	68.058
2.0400	67.812
2.0360	67.640
2.0320	67.168
2.0280	66.718
2.0240	66.774
2.0200	66.700
2.0160	66.737
2.0120	66.383
2.0080	66.271
2.0040	66.068
2.0000	65.827
1.9960	65.107
1.9920	65.161
1.9880	64.960
1.9840	64.960
1.9800	64.483
1.9760	64.139
1.9720	63.994
1.9680	63.757
1.9640	63.468
1.9600	63.534
1.9560	63.494
1.9520	63.166
1.9480	62.930
1.9440	62.470
1.9400	62.153
1.9360	61.898
1.9320	61.911
1.9280	61.711
1.9240	61.493
1.9200	61.306
1.9160	60.882
1.9120	60.695
1.9080	60.416
1.9040	60.243
1.9000	60.221
1.8960	60.459
1.8920	60.758
1.8880	60.981
1.8840	61.325
1.8800	61.979
1.8760	62.488
1.8720	62.925
1.8680	62.659
1.8640	62.873
1.8600	63.049
1.8560	62.886
1.8520	63.056
1.8480	63.116
1.8440	63.438
1.8400	63.225
1.8360	63.290
1.8320	63.173
1.8280	63.009
1.8240	62.872
1.8200	62.247
1.8160	62.197
1.8120	61.868
1.8080	61.818
1.8040	61.698
1.8000	61.698
1.7960	61.719
1.7920	61.908
1.7880	61.599
1.7840	60.972
1.7800	60.980
1.7760	60.972
1.7720	60.785
1.7680	60.459
1.7640	60.280
1.7600	60.022
1.7560	59.974
1.7520	59.652
1.7480	59.468
1.7440	59.611
1.7400	59.706
1.7360	60.048
1.7320	59.923
1.7280	59.929
1.7240	59.929
1.7200	59.923
1.7160	59.682
1.7120	59.820
1.7080	59.644
1.7040	59.491
1.7000	58.818
1.6960	59.138
1.6920	58.818
1.6880	58.823
1.6840	58.408
1.6800	58.681
1.6760	58.549
1.6720	58.380
1.6680	57.841
1.6640	57.708
1.6600	57.664
1.6560	57.573
1.6520	57.345
1.6480	57.481
1.6440	57.715
1.6400	57.531
1.6360	57.531
1.6320	57.400
1.6280	56.950
1.6240	56.860
1.6200	56.769
1.6160	56.144
1.6120	55.922
1.6080	55.921
1.6040	55.964
1.6000	55.740
1.5960	55.517
1.5920	55.740
1.5880	55.875
1.5840	55.740
1.5800	55.558
1.5760	55.127
1.5720	55.039
1.5680	54.775
1.5640	54.295
1.5600	53.905
1.5560	53.644
1.5520	53.724
1.5480	53.982
1.5440	53.850
1.5400	53.285
1.5360	53.485
1.5320	53.612
1.5280	53.744
1.5240	53.616
1.5200	53.091
1.5160	52.830
1.5120	52.688
1.5080	52.974
1.5040	52.775
1.5000	52.562
1.4960	52.282
1.4920	51.317
1.4880	51.155
1.4840	51.075
1.4800	50.915
1.4760	50.835
1.4720	50.706
1.4680	51.007
1.4640	51.168
1.4600	50.827
1.4560	50.787
1.4520	50.578
1.4480	50.191
1.4440	50.259
1.4400	50.197
1.4360	50.006
1.4320	49.994
1.4280	49.916
1.4240	49.528
1.4200	49.220
1.4160	48.681
1.4120	48.512
1.4080	48.409
1.4040	48.602
1.4000	48.155
1.3960	48.193
1.3920	47.949
1.3880	47.541
1.3840	47.233
1.3800	47.592
1.3760	47.874
1.3720	47.874
1.3680	47.612
1.3640	47.603
1.3600	47.509
1.3560	47.342
1.3520	47.327
1.3480	46.906
1.3440	46.834
1.3400	46.566
1.3360	46.549
1.3320	46.675
1.3280	46.479
1.3240	45.989
1.3200	45.925
1.3160	45.721
1.3120	45.596
1.3080	45.418
1.3040	45.259
1.3000	45.080
1.2960	44.813
1.2920	44.738
1.2880	44.538
1.2840	44.530
1.2800	44.411
1.2760	44.528
1.2720	44.528
1.2680	44.541
1.2640	44.437
1.2600	44.163
1.2560	44.094
1.2520	44.094
1.2480	43.877
1.2440	43.764
1.2400	43.682
1.2360	43.353
1.2320	43.205
1.2280	43.248
1.2240	43.114
1.2200	43.081
1.2160	42.966
1.2120	42.776
1.2080	42.915
1.2040	42.915
1.2000	42.735
1.1960	42.620
1.1920	42.523
1.1880	42.239
1.1840	42.117
1.1800	42.085
1.1760	41.989
1.1720	41.926
1.1680	41.836
1.1640	41.667
1.1600	41.573
1.1560	41.551
1.1520	41.325
1.1480	41.293
1.1440	41.325
1.1400	41.356
1.1360	40.908
1.1320	40.905
1.1280	40.846
1.1240	40.576
1.1200	40.494
1.1160	40.525
1.1120	40.893
1.1080	40.679
1.1040	40.283
1.1000	40.545
1.0960	40.830
1.0920	40.463
1.0880	40.556
1.0840	41.015
1.0800	40.583
1.0760	40.494
1.0720	40.471
1.0680	40.308
1.0640	40.078
1.0600	40.379
1.0560	40.138
1.0520	39.899
1.0480	40.067
1.0440	40.049
1.0400	40.561
1.0360	40.624
1.0320	40.352
1.0280	40.049
1.0240	40.109
1.0200	40.019
1.0160	40.049
1.0120	39.568
1.0080	39.959
1.0040	40.019
1.0000	39.688
0.99600	39.589
0.99200	39.561
0.98800	39.779
0.98400	39.500
0.98000	39.292
0.97600	39.318
0.97200	39.296
0.96800	39.258
0.96400	39.376
0.96000	39.167
0.95600	39.016
0.95200	38.748
0.94800	38.748
0.94400	38.748
0.94000	38.600
0.93600	38.542
0.93200	38.571
0.92800	38.399
0.92400	38.508
0.92000	38.399
0.91600	38.361
0.91200	38.333
0.90800	38.390
0.90400	38.243
0.90000	38.300
0.89600	38.272
0.89200	38.004
0.88800	38.032
0.88400	37.999
0.88000	37.990
0.87600	38.075
0.87200	38.186
0.86800	37.948
0.86400	37.943
0.86000	38.074
0.85600	37.905
0.85200	37.934
0.84800	37.975
0.84400	37.838
0.84000	37.655
0.83600	37.890
0.83200	37.661
0.82800	37.633
0.82400	37.819
0.82000	37.991
0.81600	37.743
0.81200	37.691
0.80800	37.838
0.80400	38.051
0.80000	37.966
0.79900	36.823
0.79800	36.823
0.79700	36.791
0.79600	36.660
0.79500	36.660
0.79400	36.625
0.79300	36.596
0.79200	36.823
0.79100	36.885
0.79000	37.047
0.78900	36.531
0.78800	36.467
0.78700	36.499
0.78600	36.307
0.78500	36.433
0.78400	36.334
0.78300	36.431
0.78200	36.179
0.78100	36.176
0.78000	36.431
0.77900	36.429
0.77800	36.365
0.77700	36.010
0.77600	36.113
0.77500	36.145
0.77400	35.854
0.77300	35.854
0.77200	36.014
0.77100	35.823
0.77000	35.638
0.76900	35.669
0.76800	35.917
0.76700	36.396
0.76600	36.202
0.76500	35.948
0.76400	36.070
0.76300	35.976
0.76200	36.014
0.76100	36.262
0.76000	36.076
0.75900	35.693
0.75800	35.500
0.75700	35.500
0.75600	35.526
0.75500	35.650
0.75400	35.968
0.75300	35.337
0.75200	35.561
0.75100	35.368
0.75000	35.306
0.74900	35.332
0.74800	35.526
0.74700	35.429
0.74600	35.271
0.74500	35.041
0.74400	35.392
0.74300	35.245
0.74200	35.555
0.74100	35.604
0.74000	35.508
0.73900	34.969
0.73800	35.163
0.73700	34.944
0.73600	34.944
0.73500	34.847
0.73400	34.969
0.73300	35.224
0.73200	35.186
0.73100	35.002
0.73000	34.913
0.72900	34.708
0.72800	35.091
0.72700	35.158
0.72600	35.251
0.72500	35.153
0.72400	35.030
0.72300	34.835
0.72200	35.032
0.72100	34.769
0.72000	34.730
0.71900	35.107
0.71800	35.236
0.71700	35.203
0.71600	35.177
0.71500	34.797
0.71400	34.797
0.71300	34.860
0.71200	35.179
0.71100	35.342
0.71000	35.270
0.70900	35.177
0.70800	35.239
0.70700	34.858
0.70600	34.919
0.70500	34.950
0.70400	35.239
0.70300	35.144
0.70200	35.144
0.70100	34.854
0.70000	35.203
0.69900	35.486
0.69800	34.869
0.69700	35.139
0.69600	35.112
0.69500	35.175
0.69400	35.375
0.69300	35.243
0.69200	35.348
0.69100	35.475
0.69000	35.543
0.68900	35.439
0.68800	35.275
0.68700	35.275
0.68600	35.475
0.68500	35.640
0.68400	35.575
0.68300	35.575
0.68200	35.443
0.68100	35.543
0.68000	35.439
0.67900	35.371
0.67800	35.339
0.67700	35.075
0.67600	35.275
0.67500	35.371
0.67400	35.472
0.67300	35.874
0.67200	35.643
0.67100	35.838
0.67000	35.806
0.66900	35.737
0.66800	35.805
0.66700	35.704
0.66600	35.672
0.66500	35.740
0.66400	35.443
0.66300	35.511
0.66200	35.903
0.66100	35.903
0.66000	36.039
0.65900	36.307
0.65800	36.104
0.65700	35.835
0.65600	35.572
0.65500	35.403
0.65400	35.439
0.65300	35.676
0.65200	35.375
0.65100	35.711
0.65000	35.646
0.64900	35.451
0.64800	35.550
0.64700	35.905
0.64600	36.408
0.64500	36.204
0.64400	36.206
0.64300	36.240
0.64200	35.874
0.64100	35.841
0.64000	36.172
0.63900	36.410
0.63800	36.007
0.63700	35.743
0.63600	35.547
0.63500	35.743
0.63400	35.776
0.63300	35.743
0.63200	35.811
0.63100	35.974
0.63000	35.676
0.62900	35.611
0.62800	35.579
0.62700	35.679
0.62600	36.011
0.62500	36.075
0.62400	36.142
0.62300	36.043
0.62200	35.878
0.62100	35.945
0.62000	36.007
0.61900	36.239
0.61800	36.508
0.61700	36.509
0.61600	36.711
0.61500	36.240
0.61400	35.906
0.61300	35.776
0.61200	36.139
0.61100	36.206
0.61000	36.374
0.60900	36.240
0.60800	36.207
0.60700	35.904
0.60600	35.766
0.60500	35.634
0.60400	35.533
0.60300	35.700
0.60200	35.697
0.60100	35.657
0.60000	35.650
0.59900	35.647
0.59800	35.478
0.59700	35.747
0.59600	36.157
0.59500	35.960
0.59400	35.647
0.59300	36.018
0.59200	35.954
0.59100	35.920
0.59000	35.917
0.58900	35.923
0.58800	35.954
0.58700	35.783
0.58600	36.265
0.58500	36.328
0.58400	35.888
0.58300	35.753
0.58200	35.647
0.58100	35.511
0.58000	35.613
0.57900	35.887
0.57800	35.956
0.57700	36.027
0.57600	35.822
0.57500	35.753
0.57400	35.994
0.57300	35.792
0.57200	35.599
0.57100	35.629
0.57000	35.498
0.56900	35.464
0.56800	35.263
0.56700	35.087
0.56600	35.223
0.56500	35.190
0.56400	35.126
0.56300	35.153
0.56200	35.121
0.56100	35.019
0.56000	35.051
0.55900	34.870
0.55800	34.870
0.55700	35.202
0.55600	35.143
0.55500	34.886
0.55400	34.946
0.55300	34.846
0.55200	34.739
0.55100	34.730
0.55000	34.522
0.54900	34.900
0.54800	34.720
0.54700	34.789
0.54600	34.640
0.54500	34.700
0.54400	34.481
0.54300	34.761
0.54200	34.891
0.54100	34.590
0.54000	34.691
0.53900	34.700
0.53800	34.732
0.53700	34.337
0.53600	34.236
0.53500	34.307
0.53400	34.569
0.53300	34.070
0.53200	33.865
0.53100	33.638
0.53000	33.696
0.52900	33.641
0.52800	33.714
0.52700	33.685
0.52600	33.283
0.52500	33.484
0.52400	33.542
0.52300	33.355
0.52200	33.385
0.52100	33.456
0.52000	33.528
0.51900	33.297
0.51800	33.212
0.51700	33.140
0.51600	33.111
0.51500	33.197
0.51400	32.809
0.51300	32.737
0.51200	32.670
0.51100	32.642
0.51000	32.653
0.50900	32.497
0.50800	32.535
0.50700	32.703
0.50600	32.572
0.50500	32.288
0.50400	32.545
0.50300	32.481
0.50200	32.270
0.50100	32.383
0.50000	32.206
0.49900	31.932
0.49800	31.582
0.49700	31.609
0.49600	31.602
0.49500	31.481
0.49400	31.529
0.49300	31.609
0.49200	31.642
0.49100	31.675
0.49000	31.338
0.48900	31.438
0.48800	31.158
0.48700	31.103
0.48600	30.952
0.48500	30.825
0.48400	30.929
0.48300	31.007
0.48200	30.776
0.48100	30.776
0.48000	30.802
0.47900	30.444
0.47800	30.521
0.47700	30.242
0.47600	30.648
0.47500	30.292
0.47400	30.547
0.47300	30.391
0.47200	30.341
0.47100	30.062
0.47000	29.960
0.46900	29.485
0.46800	29.529
0.46700	29.633
0.46600	29.455
0.46500	29.407
0.46400	29.857
0.46300	29.780
0.46200	29.650
0.46100	29.323
0.46000	29.101
0.45900	30.229
0.45800	30.380
0.45700	30.352
0.45600	30.402
0.45500	30.327
0.45400	29.992
0.45300	29.794
0.45200	29.684
0.45100	29.587
0.45000	29.811
0.44900	29.781
0.44800	29.602
0.44700	29.523
0.44600	29.664
0.44500	29.247
0.44400	29.354
0.44300	28.929
0.44200	29.017
0.44100	29.214
0.44000	29.102
0.43900	29.045
0.43800	29.034
0.43700	28.797
0.43600	28.906
0.43500	28.952
0.43400	28.529
0.43300	28.397
0.43200	28.211
0.43100	28.383
0.43000	28.322
0.42900	28.279
0.42800	28.212
0.42700	28.057
0.42600	28.168
0.42500	27.590
0.42400	27.633
0.42300	27.857
0.42200	27.572
0.42100	27.185
0.42000	27.339
0.41900	27.121
0.41800	27.143
0.41700	27.049
0.41600	26.939
0.41500	27.134
0.41400	27.111
0.41300	26.603
0.41200	26.479
0.41100	26.382
0.41000	26.167
0.40900	26.440
0.40800	26.287
0.40700	26.413
0.40600	26.233
0.40500	26.089
0.40400	26.146
0.40300	26.146
0.40200	25.846
0.40100	25.789
0.40000	25.796
