Name:  Pink Quartzite 
Type:  Rocks
Class:  Metamorphic 
Subclass: Quartzite
Particle Size:  0-75 Micrometer
Sample No.:  qtzite3.doc
Owner:  JHU
Wavelength Range:  All
Origin:  Sample No. 379, The Hunt and Salisbury Collection at the U.S. 
Geological Survey, Denver, Co.
Description:  A medium-grained quartzite composed of subrounded equant 
quartz with some secondary silica (chalcedony) and quartz deposition; 
sometimes the chalcedony is pseudomorphic to quartz grains.  These quartz 
grains contain numerous fluid inclusions, are often strained and occasionally 
show pressure solution effects.  Ferric material (plus clay?) is scattered 
throughout the sample giving this rock its reddish hue.   
Measurement:  Directional (10 Degree) Hemispherical Reflectance
First Column:  X
Second Column:  Y  
X Units:  Wavelength (micrometers)
Y Units:  Reflectance (percent)
First X Value: 14.9831	
Last X Value:  0.4
Number of X Values: 2868
Additional Information:  qrtzit3a.txt

14.983	11.293
14.940	11.167
14.897	10.824
14.854	10.566
14.812	10.233
14.770	9.7563
14.728	9.1044
14.686	8.3575
14.645	7.5769
14.603	6.6424
14.562	5.5997
14.521	4.5499
14.481	3.5025
14.441	2.6422
14.400	2.0840
14.361	1.8869
14.321	2.0522
14.281	2.6104
14.242	3.4622
14.203	4.4862
14.164	5.5296
14.126	6.4890
14.087	7.3221
14.049	8.0515
14.011	8.6748
13.973	9.2323
13.936	9.7244
13.899	10.135
13.861	10.451
13.824	10.675
13.788	10.820
13.751	10.897
13.715	10.893
13.679	10.854
13.643	10.791
13.607	10.690
13.571	10.568
13.536	10.459
13.500	10.343
13.465	10.203
13.430	10.024
13.396	9.8075
13.361	9.5219
13.327	9.1397
13.293	8.6990
13.259	8.2154
13.225	7.6972
13.191	7.1585
13.158	6.5866
13.124	5.9990
13.091	5.4214
13.058	4.8595
13.026	4.3432
12.993	3.9068
12.960	3.5695
12.928	3.3268
12.896	3.1731
12.864	3.1023
12.832	3.0720
12.800	3.0303
12.769	2.9434
12.737	2.8134
12.706	2.6476
12.675	2.4944
12.644	2.3997
12.614	2.3620
12.583	2.3625
12.552	2.3809
12.522	2.3693
12.492	2.3026
12.462	2.1510
12.432	1.9265
12.402	1.6551
12.373	1.3851
12.343	1.1801
12.314	1.0920
12.285	1.1478
12.256	1.3619
12.227	1.7051
12.198	2.1510
12.169	2.6729
12.141	3.2579
12.113	3.8843
12.084	4.5293
12.056	5.1782
12.028	5.8171
12.000	6.4198
11.973	6.9709
11.945	7.4642
11.918	7.9179
11.890	8.3468
11.863	8.7638
11.836	9.1875
11.809	9.6259
11.782	10.064
11.755	10.477
11.729	10.849
11.702	11.187
11.676	11.479
11.650	11.708
11.624	11.876
11.598	12.009
11.572	12.123
11.546	12.240
11.520	12.364
11.495	12.513
11.469	12.686
11.444	12.862
11.419	13.022
11.394	13.165
11.369	13.292
11.344	13.393
11.319	13.455
11.294	13.481
11.270	13.484
11.245	13.475
11.221	13.452
11.197	13.430
11.173	13.426
11.149	13.437
11.125	13.448
11.101	13.439
11.077	13.403
11.054	13.325
11.030	13.214
11.007	13.091
10.983	12.983
10.960	12.909
10.937	12.866
10.914	12.839
10.891	12.820
10.868	12.794
10.846	12.763
10.823	12.725
10.800	12.675
10.778	12.611
10.755	12.525
10.733	12.411
10.711	12.266
10.689	12.091
10.667	11.901
10.645	11.714
10.623	11.541
10.602	11.393
10.580	11.286
10.558	11.217
10.537	11.163
10.516	11.102
10.494	11.033
10.473	10.964
10.452	10.881
10.431	10.782
10.410	10.666
10.389	10.535
10.368	10.382
10.348	10.213
10.327	10.045
10.306	9.8830
10.286	9.7327
10.266	9.5861
10.245	9.4222
10.225	9.2453
10.205	9.0471
10.185	8.8261
10.165	8.5862
10.145	8.3352
10.125	8.0910
10.106	7.8542
10.086	7.6205
10.066	7.4074
10.047	7.2200
10.027	7.0585
10.008	6.9290
9.9887	6.8407
9.9695	6.7793
9.9504	6.7244
9.9313	6.6678
9.9123	6.6086
9.8934	6.5378
9.8746	6.4449
9.8558	6.3405
9.8371	6.2257
9.8185	6.0987
9.7999	5.9670
9.7814	5.8261
9.7630	5.6871
9.7447	5.5443
9.7264	5.3902
9.7082	5.2362
9.6900	5.0823
9.6719	4.9329
9.6539	4.7934
9.6360	4.6674
9.6181	4.5795
9.6003	4.5364
9.5825	4.5284
9.5649	4.5587
9.5472	4.6141
9.5297	4.6714
9.5122	4.7266
9.4948	4.7986
9.4774	4.9113
9.4601	5.0873
9.4429	5.3454
9.4257	5.7148
9.4086	6.1870
9.3916	6.7289
9.3746	7.2897
9.3577	7.8083
9.3408	8.2256
9.3240	8.5010
9.3073	8.6400
9.2906	8.6765
9.2740	8.6371
9.2574	8.5571
9.2409	8.4740
9.2245	8.3980
9.2081	8.3272
9.1918	8.2592
9.1755	8.2009
9.1593	8.1538
9.1431	8.1055
9.1270	8.0539
9.1110	8.0138
9.0950	7.9767
9.0791	7.9366
9.0632	7.8943
9.0474	7.8547
9.0316	7.8171
9.0159	7.7761
9.0003	7.7237
8.9847	7.6757
8.9691	7.6295
8.9536	7.5862
8.9382	7.5483
8.9228	7.5080
8.9075	7.4632
8.8922	7.4178
8.8770	7.3567
8.8618	7.2871
8.8467	7.2139
8.8316	7.1419
8.8166	7.0637
8.8016	6.9742
8.7867	6.8845
8.7718	6.7924
8.7570	6.6846
8.7422	6.5721
8.7275	6.4547
8.7129	6.3175
8.6982	6.1236
8.6837	5.8347
8.6692	5.4539
8.6547	5.0548
8.6403	4.7591
8.6259	4.6736
8.6116	4.8223
8.5973	5.1588
8.5830	5.5770
8.5688	5.9479
8.5547	6.1937
8.5406	6.3265
8.5266	6.3843
8.5126	6.3945
8.4986	6.3729
8.4847	6.3353
8.4708	6.2863
8.4570	6.2365
8.4432	6.1965
8.4295	6.1743
8.4158	6.1636
8.4022	6.1589
8.3886	6.1636
8.3750	6.1892
8.3615	6.2363
8.3481	6.3085
8.3347	6.4049
8.3213	6.5207
8.3079	6.6581
8.2946	6.8231
8.2814	7.0183
8.2682	7.2485
8.2550	7.5099
8.2419	7.7964
8.2288	8.0982
8.2158	8.3999
8.2028	8.6821
8.1898	8.9270
8.1769	9.1051
8.1640	9.1825
8.1512	9.1470
8.1384	9.0087
8.1256	8.7885
8.1129	8.5131
8.1002	8.2106
8.0876	7.9115
8.0750	7.6169
8.0624	7.3231
8.0499	7.0410
8.0374	6.7803
8.0250	6.5446
8.0126	6.3284
8.0002	6.1193
7.9879	5.9067
7.9756	5.6746
7.9634	5.4143
7.9512	5.1245
7.9390	4.8194
7.9268	4.5163
7.9147	4.2269
7.9027	3.9544
7.8906	3.6984
7.8786	3.4653
7.8667	3.2557
7.8548	3.0625
7.8429	2.8934
7.8310	2.7551
7.8192	2.6448
7.8075	2.5583
7.7957	2.4925
7.7840	2.4432
7.7723	2.4008
7.7607	2.3528
7.7491	2.2943
7.7375	2.2223
7.7260	2.1387
7.7145	2.0494
7.7031	1.9625
7.6916	1.8791
7.6802	1.7953
7.6689	1.7070
7.6575	1.6144
7.6462	1.5180
7.6350	1.4254
7.6238	1.3378
7.6126	1.2570
7.6014	1.1824
7.5903	1.1126
7.5792	1.0510
7.5681	1.0010
7.5571	0.95740
7.5461	0.91740
7.5351	0.87790
7.5242	0.83360
7.5133	0.78500
7.5024	0.73770
7.4916	0.69530
7.4807	0.66020
7.4700	0.63680
7.4592	0.62470
7.4485	0.61620
7.4378	0.60890
7.4272	0.60220
7.4165	0.59700
7.4059	0.59420
7.3954	0.59720
7.3848	0.60440
7.3743	0.60860
7.3639	0.61500
7.3534	0.62640
7.3430	0.64130
7.3326	0.65980
7.3222	0.68180
7.3119	0.71330
7.3016	0.74120
7.2914	0.76590
7.2811	0.81110
7.2709	0.87410
7.2607	0.94560
7.2506	1.0216
7.2404	1.1031
7.2303	1.1921
7.2203	1.2724
7.2102	1.3480
7.2002	1.4285
7.1902	1.5019
7.1803	1.5680
7.1703	1.6409
7.1604	1.7271
7.1506	1.8318
7.1407	1.9530
7.1309	2.0847
7.1211	2.2201
7.1113	2.3473
7.1016	2.4648
7.0919	2.5756
7.0822	2.6741
7.0725	2.7667
7.0629	2.8607
7.0533	2.9609
7.0437	3.0729
7.0341	3.1980
7.0246	3.3386
7.0151	3.4959
7.0056	3.6607
6.9962	3.8307
6.9867	4.0012
6.9773	4.1770
6.9679	4.3593
6.9586	4.5483
6.9493	4.7311
6.9400	4.9009
6.9307	5.0586
6.9214	5.2002
6.9122	5.3141
6.9030	5.4020
6.8938	5.4619
6.8847	5.4960
6.8755	5.5100
6.8664	5.5164
6.8573	5.5278
6.8483	5.5488
6.8393	5.5775
6.8302	5.6028
6.8213	5.6069
6.8123	5.5943
6.8034	5.5732
6.7944	5.5368
6.7855	5.4813
6.7767	5.4110
6.7678	5.3324
6.7590	5.2488
6.7502	5.1633
6.7414	5.0873
6.7327	5.0219
6.7239	4.9719
6.7152	4.9490
6.7065	4.9608
6.6979	5.0222
6.6892	5.1408
6.6806	5.3087
6.6720	5.5043
6.6634	5.6878
6.6549	5.8425
6.6464	5.9566
6.6378	6.0203
6.6294	6.0424
6.6209	6.0348
6.6124	6.0116
6.6040	5.9699
6.5956	5.8960
6.5872	5.8150
6.5789	5.7359
6.5705	5.6703
6.5622	5.6421
6.5539	5.6841
6.5456	5.8273
6.5374	6.1049
6.5292	6.5252
6.5209	7.0751
6.5128	7.7219
6.5046	8.4354
6.4964	9.1733
6.4883	9.8994
6.4802	10.578
6.4721	11.210
6.4640	11.781
6.4560	12.261
6.4480	12.648
6.4399	12.921
6.4320	13.077
6.4240	13.149
6.4160	13.135
6.4081	13.033
6.4002	12.836
6.3923	12.540
6.3844	12.163
6.3766	11.715
6.3687	11.232
6.3609	10.774
6.3531	10.356
6.3454	9.9619
6.3376	9.5600
6.3299	9.1359
6.3221	8.7063
6.3144	8.2774
6.3068	7.8462
6.2991	7.4313
6.2914	7.0474
6.2838	6.6882
6.2762	6.3405
6.2686	6.0113
6.2611	5.7182
6.2535	5.4643
6.2460	5.2478
6.2385	5.0688
6.2310	4.9319
6.2235	4.8448
6.2160	4.7955
6.2086	4.7882
6.2011	4.8426
6.1937	4.9689
6.1863	5.1747
6.1790	5.4669
6.1716	5.8600
6.1643	6.3566
6.1570	6.9283
6.1496	7.5544
6.1424	8.2064
6.1351	8.8481
6.1278	9.4655
6.1206	10.049
6.1134	10.609
6.1062	11.149
6.0990	11.648
6.0918	12.094
6.0847	12.486
6.0776	12.794
6.0704	12.980
6.0633	13.073
6.0563	13.133
6.0492	13.185
6.0421	13.221
6.0351	13.238
6.0281	13.248
6.0211	13.207
6.0141	13.052
6.0071	12.804
6.0002	12.504
5.9932	12.155
5.9863	11.757
5.9794	11.336
5.9725	10.922
5.9657	10.543
5.9588	10.200
5.9520	9.9214
5.9451	9.7568
5.9383	9.7237
5.9315	9.8350
5.9247	10.088
5.9180	10.448
5.9112	10.914
5.9045	11.438
5.8978	11.993
5.8911	12.591
5.8844	13.215
5.8777	13.858
5.8711	14.504
5.8644	15.136
5.8578	15.776
5.8512	16.399
5.8446	16.979
5.8380	17.533
5.8314	18.078
5.8249	18.620
5.8184	19.158
5.8118	19.704
5.8053	20.262
5.7988	20.810
5.7923	21.317
5.7859	21.757
5.7794	22.174
5.7730	22.581
5.7666	22.972
5.7602	23.361
5.7538	23.754
5.7474	24.142
5.7410	24.502
5.7347	24.793
5.7283	25.019
5.7220	25.184
5.7157	25.261
5.7094	25.235
5.7031	25.101
5.6969	24.833
5.6906	24.407
5.6844	23.817
5.6782	23.053
5.6719	22.135
5.6657	21.087
5.6596	19.942
5.6534	18.765
5.6472	17.623
5.6411	16.571
5.6349	15.656
5.6288	14.896
5.6227	14.278
5.6166	13.783
5.6106	13.386
5.6045	13.069
5.5984	12.816
5.5924	12.622
5.5864	12.497
5.5804	12.443
5.5744	12.454
5.5684	12.536
5.5624	12.687
5.5564	12.891
5.5505	13.137
5.5445	13.439
5.5386	13.804
5.5327	14.220
5.5268	14.684
5.5209	15.194
5.5151	15.731
5.5092	16.273
5.5033	16.813
5.4975	17.344
5.4917	17.860
5.4859	18.349
5.4801	18.806
5.4743	19.233
5.4685	19.606
5.4628	19.888
5.4570	20.039
5.4513	20.031
5.4455	19.847
5.4398	19.458
5.4341	18.863
5.4284	18.098
5.4228	17.189
5.4171	16.155
5.4114	15.027
5.4058	13.847
5.4002	12.664
5.3945	11.517
5.3889	10.452
5.3833	9.5143
5.3778	8.7321
5.3722	8.1076
5.3666	7.6264
5.3611	7.2766
5.3555	7.0455
5.3500	6.9193
5.3445	6.8755
5.3390	6.8928
5.3335	6.9520
5.3280	7.0363
5.3225	7.1298
5.3171	7.2354
5.3116	7.3598
5.3062	7.5116
5.3008	7.6986
5.2954	7.9260
5.2900	8.2014
5.2846	8.5363
5.2792	8.9379
5.2738	9.4049
5.2684	9.9347
5.2631	10.532
5.2578	11.206
5.2524	11.962
5.2471	12.813
5.2418	13.761
5.2365	14.784
5.2312	15.840
5.2260	16.878
5.2207	17.850
5.2154	18.699
5.2102	19.385
5.2050	19.895
5.1998	20.225
5.1945	20.393
5.1893	20.433
5.1842	20.392
5.1790	20.308
5.1738	20.199
5.1686	20.085
5.1635	19.967
5.1584	19.838
5.1532	19.700
5.1481	19.565
5.1430	19.440
5.1379	19.334
5.1328	19.261
5.1277	19.233
5.1227	19.226
5.1176	19.210
5.1126	19.164
5.1075	19.059
5.1025	18.858
5.0975	18.567
5.0925	18.206
5.0875	17.809
5.0825	17.412
5.0775	17.054
5.0726	16.771
5.0676	16.568
5.0627	16.429
5.0577	16.349
5.0528	16.306
5.0479	16.278
5.0430	16.250
5.0380	16.213
5.0332	16.160
5.0283	16.095
5.0234	16.027
5.0185	15.980
5.0137	15.978
5.0088	16.032
5.0040	16.146
4.9992	16.329
4.9944	16.588
4.9896	16.941
4.9848	17.412
4.9800	18.029
4.9752	18.794
4.9704	19.671
4.9657	20.607
4.9609	21.527
4.9562	22.364
4.9514	23.071
4.9467	23.641
4.9420	24.105
4.9373	24.525
4.9326	24.969
4.9279	25.530
4.9232	26.287
4.9186	27.295
4.9139	28.584
4.9092	30.136
4.9046	31.905
4.9000	33.813
4.8953	35.765
4.8907	37.683
4.8861	39.500
4.8815	41.166
4.8769	42.671
4.8723	44.027
4.8678	45.240
4.8632	46.326
4.8586	47.314
4.8541	48.220
4.8495	49.046
4.8450	49.797
4.8405	50.492
4.8360	51.144
4.8315	51.749
4.8270	52.314
4.8225	52.851
4.8180	53.365
4.8135	53.855
4.8090	54.320
4.8046	54.764
4.8001	55.190
4.7957	55.602
4.7913	55.994
4.7868	56.369
4.7824	56.730
4.7780	57.070
4.7736	57.389
4.7692	57.688
4.7648	57.965
4.7605	58.229
4.7561	58.475
4.7517	58.703
4.7474	58.910
4.7431	59.087
4.7387	59.236
4.7344	59.353
4.7301	59.426
4.7258	59.456
4.7215	59.421
4.7172	59.301
4.7129	59.083
4.7086	58.741
4.7043	58.260
4.7000	57.656
4.6958	56.995
4.6915	56.379
4.6873	55.912
4.6831	55.695
4.6788	55.778
4.6746	56.140
4.6704	56.704
4.6662	57.375
4.6620	58.076
4.6578	58.754
4.6536	59.392
4.6495	59.998
4.6453	60.583
4.6411	61.152
4.6370	61.701
4.6328	62.220
4.6287	62.687
4.6246	63.096
4.6205	63.447
4.6163	63.748
4.6122	64.004
4.6081	64.224
4.6040	64.409
4.6000	64.561
4.5959	64.684
4.5918	64.780
4.5877	64.849
4.5837	64.893
4.5796	64.906
4.5756	64.884
4.5716	64.822
4.5675	64.715
4.5635	64.561
4.5595	64.350
4.5555	64.071
4.5515	63.721
4.5475	63.298
4.5435	62.816
4.5395	62.281
4.5356	61.696
4.5316	61.065
4.5276	60.375
4.5237	59.621
4.5197	58.805
4.5158	57.939
4.5119	57.041
4.5080	56.155
4.5040	55.338
4.5001	54.628
4.4962	54.047
4.4923	53.595
4.4884	53.254
4.4846	52.973
4.4807	52.707
4.4768	52.467
4.4730	52.284
4.4691	52.195
4.4652	52.239
4.4614	52.432
4.4576	52.760
4.4537	53.160
4.4499	53.563
4.4461	53.932
4.4423	54.250
4.4385	54.524
4.4347	54.780
4.4309	55.053
4.4271	55.355
4.4233	55.684
4.4196	56.031
4.4158	56.395
4.4120	56.768
4.4083	57.149
4.4045	57.548
4.4008	57.975
4.3971	58.427
4.3934	58.898
4.3896	59.387
4.3859	59.890
4.3822	60.397
4.3785	60.897
4.3748	61.384
4.3711	61.858
4.3674	62.312
4.3638	62.739
4.3601	63.139
4.3564	63.509
4.3528	63.850
4.3491	64.157
4.3455	64.422
4.3418	64.652
4.3382	64.847
4.3346	65.005
4.3310	65.127
4.3273	65.212
4.3237	65.257
4.3201	65.261
4.3165	65.228
4.3129	65.165
4.3094	65.088
4.3058	65.007
4.3022	64.927
4.2986	64.856
4.2951	64.798
4.2915	64.763
4.2880	64.757
4.2844	64.782
4.2809	64.841
4.2774	64.941
4.2738	65.074
4.2703	65.240
4.2668	65.433
4.2633	65.634
4.2598	65.818
4.2563	65.963
4.2528	66.051
4.2493	66.083
4.2458	66.070
4.2424	66.035
4.2389	65.997
4.2354	65.976
4.2320	65.983
4.2285	66.022
4.2251	66.078
4.2216	66.141
4.2182	66.203
4.2148	66.248
4.2113	66.274
4.2079	66.289
4.2045	66.299
4.2011	66.313
4.1977	66.342
4.1943	66.396
4.1909	66.479
4.1875	66.592
4.1841	66.730
4.1808	66.889
4.1774	67.054
4.1740	67.216
4.1707	67.365
4.1673	67.499
4.1640	67.621
4.1606	67.736
4.1573	67.837
4.1540	67.940
4.1506	68.054
4.1473	68.185
4.1440	68.318
4.1407	68.450
4.1374	68.586
4.1341	68.723
4.1308	68.860
4.1275	68.999
4.1242	69.143
4.1209	69.297
4.1177	69.447
4.1144	69.594
4.1111	69.752
4.1079	69.915
4.1046	70.084
4.1014	70.249
4.0981	70.402
4.0949	70.543
4.0917	70.680
4.0884	70.815
4.0852	70.946
4.0820	71.062
4.0788	71.170
4.0756	71.270
4.0724	71.351
4.0692	71.414
4.0660	71.472
4.0628	71.516
4.0596	71.545
4.0565	71.569
4.0533	71.589
4.0501	71.597
4.0470	71.593
4.0438	71.582
4.0406	71.567
4.0375	71.544
4.0344	71.524
4.0312	71.512
4.0281	71.501
4.0250	71.485
4.0218	71.471
4.0187	71.462
4.0156	71.456
4.0125	71.451
4.0094	71.453
4.0063	71.465
4.0032	71.486
4.0001	71.516
3.9970	71.561
3.9940	71.613
3.9909	71.666
3.9878	71.725
3.9847	71.788
3.9817	71.855
3.9786	71.928
3.9756	72.010
3.9725	72.102
3.9695	72.197
3.9665	72.296
3.9634	72.404
3.9604	72.508
3.9574	72.607
3.9544	72.709
3.9513	72.806
3.9483	72.903
3.9453	73.000
3.9423	73.088
3.9393	73.162
3.9363	73.218
3.9333	73.263
3.9304	73.302
3.9274	73.333
3.9244	73.362
3.9214	73.392
3.9185	73.412
3.9155	73.414
3.9126	73.406
3.9096	73.391
3.9067	73.364
3.9037	73.323
3.9008	73.271
3.8979	73.217
3.8949	73.155
3.8920	73.089
3.8891	73.025
3.8862	72.959
3.8833	72.886
3.8804	72.813
3.8775	72.744
3.8746	72.676
3.8717	72.610
3.8688	72.554
3.8659	72.509
3.8630	72.476
3.8601	72.455
3.8573	72.442
3.8544	72.433
3.8515	72.423
3.8487	72.417
3.8458	72.419
3.8430	72.424
3.8401	72.438
3.8373	72.459
3.8344	72.479
3.8316	72.505
3.8288	72.535
3.8259	72.570
3.8231	72.604
3.8203	72.631
3.8175	72.652
3.8147	72.666
3.8119	72.680
3.8091	72.692
3.8063	72.693
3.8035	72.691
3.8007	72.677
3.7979	72.653
3.7951	72.624
3.7924	72.591
3.7896	72.552
3.7868	72.510
3.7841	72.454
3.7813	72.385
3.7785	72.307
3.7758	72.233
3.7730	72.164
3.7703	72.092
3.7676	72.016
3.7648	71.949
3.7621	71.879
3.7594	71.806
3.7566	71.738
3.7539	71.677
3.7512	71.625
3.7485	71.577
3.7458	71.533
3.7431	71.506
3.7404	71.483
3.7377	71.463
3.7350	71.442
3.7323	71.432
3.7296	71.441
3.7269	71.460
3.7242	71.490
3.7216	71.535
3.7189	71.580
3.7162	71.630
3.7136	71.678
3.7109	71.724
3.7083	71.782
3.7056	71.842
3.7030	71.901
3.7003	71.970
3.6977	72.043
3.6950	72.117
3.6924	72.187
3.6898	72.257
3.6872	72.326
3.6845	72.384
3.6819	72.436
3.6793	72.490
3.6767	72.536
3.6741	72.570
3.6715	72.607
3.6689	72.645
3.6663	72.669
3.6637	72.681
3.6611	72.688
3.6585	72.691
3.6560	72.686
3.6534	72.674
3.6508	72.655
3.6482	72.633
3.6457	72.602
3.6431	72.571
3.6406	72.542
3.6380	72.514
3.6355	72.487
3.6329	72.452
3.6304	72.402
3.6278	72.349
3.6253	72.301
3.6227	72.261
3.6202	72.221
3.6177	72.182
3.6152	72.141
3.6127	72.092
3.6101	72.040
3.6076	71.991
3.6051	71.949
3.6026	71.911
3.6001	71.871
3.5976	71.833
3.5951	71.799
3.5926	71.762
3.5901	71.725
3.5876	71.687
3.5852	71.650
3.5827	71.612
3.5802	71.571
3.5777	71.529
3.5753	71.487
3.5728	71.449
3.5704	71.417
3.5679	71.393
3.5654	71.366
3.5630	71.332
3.5605	71.296
3.5581	71.257
3.5557	71.208
3.5532	71.168
3.5508	71.131
3.5484	71.090
3.5459	71.039
3.5435	70.981
3.5411	70.927
3.5387	70.870
3.5363	70.803
3.5338	70.734
3.5314	70.668
3.5290	70.610
3.5266	70.539
3.5242	70.456
3.5218	70.365
3.5195	70.261
3.5171	70.146
3.5147	70.008
3.5123	69.857
3.5099	69.703
3.5075	69.550
3.5052	69.419
3.5028	69.319
3.5004	69.253
3.4981	69.224
3.4957	69.214
3.4934	69.205
3.4910	69.201
3.4887	69.198
3.4863	69.185
3.4840	69.156
3.4816	69.114
3.4793	69.070
3.4770	69.023
3.4746	68.965
3.4723	68.906
3.4700	68.843
3.4677	68.777
3.4653	68.711
3.4630	68.646
3.4607	68.579
3.4584	68.498
3.4561	68.404
3.4538	68.306
3.4515	68.199
3.4492	68.094
3.4469	67.992
3.4446	67.876
3.4423	67.743
3.4400	67.611
3.4378	67.493
3.4355	67.375
3.4332	67.239
3.4309	67.104
3.4287	66.960
3.4264	66.786
3.4241	66.592
3.4219	66.406
3.4196	66.248
3.4174	66.104
3.4151	65.982
3.4129	65.907
3.4106	65.871
3.4084	65.851
3.4061	65.837
3.4039	65.826
3.4017	65.815
3.3994	65.788
3.3972	65.743
3.3950	65.691
3.3928	65.637
3.3906	65.583
3.3883	65.524
3.3861	65.450
3.3839	65.360
3.3817	65.260
3.3795	65.153
3.3773	65.050
3.3751	64.965
3.3729	64.901
3.3707	64.849
3.3685	64.798
3.3663	64.742
3.3641	64.681
3.3620	64.615
3.3598	64.537
3.3576	64.449
3.3554	64.357
3.3533	64.267
3.3511	64.176
3.3489	64.088
3.3468	64.001
3.3446	63.914
3.3425	63.816
3.3403	63.709
3.3382	63.606
3.3360	63.502
3.3339	63.400
3.3317	63.309
3.3296	63.219
3.3274	63.123
3.3253	63.023
3.3232	62.916
3.3210	62.805
3.3189	62.693
3.3168	62.591
3.3147	62.493
3.3126	62.378
3.3104	62.251
3.3083	62.125
3.3062	61.995
3.3041	61.864
3.3020	61.738
3.2999	61.627
3.2978	61.527
3.2957	61.414
3.2936	61.302
3.2915	61.191
3.2894	61.072
3.2874	60.951
3.2853	60.831
3.2832	60.715
3.2811	60.602
3.2790	60.478
3.2770	60.361
3.2749	60.247
3.2728	60.122
3.2708	59.994
3.2687	59.866
3.2666	59.744
3.2646	59.625
3.2625	59.506
3.2605	59.398
3.2584	59.301
3.2564	59.197
3.2543	59.080
3.2523	58.956
3.2503	58.833
3.2482	58.714
3.2462	58.597
3.2442	58.484
3.2421	58.370
3.2401	58.253
3.2381	58.130
3.2361	58.004
3.2340	57.873
3.2320	57.744
3.2300	57.618
3.2280	57.493
3.2260	57.369
3.2240	57.253
3.2220	57.129
3.2200	56.997
3.2180	56.864
3.2160	56.734
3.2140	56.605
3.2120	56.489
3.2100	56.383
3.2080	56.266
3.2060	56.124
3.2040	55.972
3.2021	55.821
3.2001	55.677
3.1981	55.537
3.1961	55.410
3.1942	55.297
3.1922	55.183
3.1902	55.066
3.1883	54.941
3.1863	54.811
3.1844	54.696
3.1824	54.581
3.1805	54.462
3.1785	54.343
3.1766	54.222
3.1746	54.088
3.1727	53.942
3.1707	53.806
3.1688	53.681
3.1669	53.558
3.1649	53.437
3.1630	53.313
3.1611	53.185
3.1591	53.048
3.1572	52.908
3.1553	52.776
3.1534	52.639
3.1515	52.501
3.1495	52.373
3.1476	52.246
3.1457	52.125
3.1438	52.002
3.1419	51.879
3.1400	51.755
3.1381	51.617
3.1362	51.474
3.1343	51.337
3.1324	51.201
3.1305	51.075
3.1286	50.954
3.1268	50.841
3.1249	50.733
3.1230	50.628
3.1211	50.523
3.1192	50.405
3.1174	50.286
3.1155	50.174
3.1136	50.066
3.1117	49.958
3.1099	49.855
3.1080	49.755
3.1061	49.645
3.1043	49.524
3.1024	49.415
3.1006	49.315
3.0987	49.207
3.0969	49.092
3.0950	48.988
3.0932	48.893
3.0913	48.801
3.0895	48.708
3.0876	48.615
3.0858	48.529
3.0840	48.431
3.0821	48.323
3.0803	48.228
3.0785	48.142
3.0766	48.050
3.0748	47.955
3.0730	47.861
3.0712	47.778
3.0694	47.698
3.0675	47.621
3.0657	47.544
3.0639	47.472
3.0621	47.394
3.0603	47.308
3.0585	47.212
3.0567	47.113
3.0549	47.021
3.0531	46.926
3.0513	46.833
3.0495	46.754
3.0477	46.667
3.0459	46.557
3.0441	46.441
3.0423	46.323
3.0406	46.201
3.0388	46.073
3.0370	45.952
3.0352	45.827
3.0334	45.698
3.0317	45.584
3.0299	45.487
3.0281	45.398
3.0264	45.308
3.0246	45.220
3.0228	45.134
3.0211	45.034
3.0193	44.942
3.0176	44.868
3.0158	44.798
3.0140	44.735
3.0123	44.675
3.0105	44.629
3.0088	44.585
3.0070	44.546
3.0053	44.522
3.0036	44.504
3.0018	44.474
3.0001	44.444
2.9984	44.417
2.9966	44.378
2.9949	44.322
2.9932	44.267
2.9914	44.203
2.9897	44.121
2.9880	44.024
2.9863	43.912
2.9845	43.779
2.9828	43.625
2.9811	43.459
2.9794	43.277
2.9777	43.061
2.9760	42.820
2.9743	42.562
2.9726	42.276
2.9709	41.964
2.9692	41.654
2.9675	41.356
2.9658	41.069
2.9641	40.809
2.9624	40.603
2.9607	40.459
2.9590	40.378
2.9573	40.369
2.9556	40.441
2.9539	40.583
2.9523	40.761
2.9506	40.956
2.9489	41.161
2.9472	41.348
2.9455	41.512
2.9439	41.667
2.9422	41.811
2.9405	41.944
2.9389	42.057
2.9372	42.146
2.9355	42.224
2.9339	42.284
2.9322	42.322
2.9306	42.357
2.9289	42.398
2.9272	42.437
2.9256	42.467
2.9239	42.501
2.9223	42.545
2.9207	42.586
2.9190	42.625
2.9174	42.667
2.9157	42.727
2.9141	42.796
2.9124	42.874
2.9108	42.966
2.9092	43.064
2.9075	43.168
2.9059	43.281
2.9043	43.401
2.9027	43.519
2.9010	43.630
2.8994	43.742
2.8978	43.856
2.8962	43.955
2.8946	44.041
2.8929	44.104
2.8913	44.140
2.8897	44.132
2.8881	44.078
2.8865	44.000
2.8849	43.924
2.8833	43.855
2.8817	43.818
2.8801	43.833
2.8785	43.911
2.8769	44.048
2.8753	44.224
2.8737	44.423
2.8721	44.632
2.8705	44.841
2.8689	45.045
2.8673	45.242
2.8658	45.421
2.8642	45.576
2.8626	45.716
2.8610	45.842
2.8594	45.949
2.8579	46.056
2.8563	46.172
2.8547	46.281
2.8531	46.378
2.8516	46.476
2.8500	46.580
2.8484	46.677
2.8469	46.759
2.8453	46.835
2.8437	46.915
2.8422	46.980
2.8406	47.031
2.8391	47.089
2.8375	47.153
2.8360	47.217
2.8344	47.277
2.8329	47.341
2.8313	47.414
2.8298	47.486
2.8282	47.557
2.8267	47.636
2.8252	47.736
2.8236	47.846
2.8221	47.968
2.8205	48.100
2.8190	48.220
2.8175	48.322
2.8159	48.419
2.8144	48.505
2.8129	48.588
2.8114	48.671
2.8098	48.757
2.8083	48.820
2.8068	48.853
2.8053	48.876
2.8038	48.910
2.8022	48.944
2.8007	48.970
2.7992	48.988
2.7977	48.995
2.7962	48.968
2.7947	48.912
2.7932	48.839
2.7917	48.748
2.7902	48.674
2.7887	48.651
2.7872	48.684
2.7857	48.745
2.7842	48.805
2.7827	48.859
2.7812	48.896
2.7797	48.928
2.7782	48.984
2.7767	49.061
2.7752	49.106
2.7738	49.072
2.7723	48.928
2.7708	48.618
2.7693	47.966
2.7678	46.686
2.7664	44.783
2.7649	42.782
2.7634	41.359
2.7619	40.992
2.7605	41.768
2.7590	43.475
2.7575	45.607
2.7561	47.487
2.7546	48.801
2.7531	49.669
2.7517	50.288
2.7502	50.740
2.7488	50.973
2.7473	50.963
2.7458	50.694
2.7444	50.123
2.7429	49.309
2.7415	48.403
2.7400	47.597
2.7386	47.129
2.7371	47.184
2.7357	47.761
2.7343	48.670
2.7328	49.612
2.7314	50.337
2.7299	50.691
2.7285	50.661
2.7271	50.518
2.7256	50.538
2.7242	50.840
2.7228	51.479
2.7213	52.330
2.7199	53.158
2.7185	53.725
2.7171	53.895
2.7156	53.655
2.7142	53.015
2.7128	52.056
2.7114	50.936
2.7100	49.764
2.7085	48.699
2.7071	47.983
2.7057	47.838
2.7043	48.390
2.7029	49.691
2.7015	51.640
2.7001	53.974
2.6987	56.347
2.6973	58.534
2.6959	60.518
2.6945	62.311
2.6931	63.964
2.6917	65.518
2.6903	66.967
2.6889	68.245
2.6875	69.286
2.6861	70.143
2.6847	70.893
2.6833	71.505
2.6819	71.986
2.6805	72.336
2.6791	72.617
2.6778	72.885
2.6764	73.159
2.6750	73.335
2.6736	73.466
2.6722	73.694
2.6709	74.014
2.6695	74.388
2.6681	74.885
2.6667	75.556
2.6654	76.260
2.6640	76.783
2.6626	77.187
2.6613	77.587
2.6599	77.863
2.6585	78.005
2.6572	78.083
2.6558	78.174
2.6545	78.276
2.6531	78.399
2.6517	78.548
2.6504	78.702
2.6490	78.805
2.6477	78.883
2.6463	78.948
2.6450	79.002
2.6436	79.074
2.6423	79.173
2.6409	79.282
2.6396	79.378
2.6382	79.423
2.6369	79.465
2.6356	79.489
2.6342	79.411
2.6329	79.345
2.6315	79.327
2.6302	79.313
2.6289	79.360
2.6275	79.466
2.6262	79.643
2.6249	79.743
2.6236	79.698
2.6222	79.698
2.6209	79.662
2.6196	79.561
2.6183	79.543
2.6169	79.617
2.6156	79.747
2.6143	79.824
2.6130	79.870
2.6117	79.950
2.6103	79.943
2.6090	79.825
2.6077	79.726
2.6064	79.679
2.6051	79.681
2.6038	79.727
2.6025	79.841
2.6012	80.015
2.5999	80.090
2.5986	79.910
2.5973	79.668
2.5960	79.520
2.5947	79.480
2.5934	79.554
2.5921	79.735
2.5908	79.954
2.5895	80.105
2.5882	80.056
2.5869	79.940
2.5856	79.879
2.5843	79.854
2.5830	79.896
2.5817	79.955
2.5805	79.994
2.5792	80.060
2.5779	80.066
2.5766	80.014
2.5753	79.991
2.5741	79.967
2.5728	79.976
2.5715	80.016
2.5702	80.076
2.5690	80.148
2.5677	80.177
2.5664	80.178
2.5651	80.178
2.5639	80.150
2.5626	80.137
2.5613	80.189
2.5601	80.293
2.5588	80.401
2.5575	80.486
2.5563	80.526
2.5550	80.504
2.5538	80.462
2.5525	80.435
2.5513	80.436
2.5500	80.483
2.5487	80.546
2.5475	80.593
2.5462	80.603
2.5450	80.601
2.5437	80.606
2.5425	80.628
2.5413	80.665
2.5400	80.710
2.5388	80.747
2.5375	80.760
2.5363	80.750
2.5350	80.741
2.5338	80.750
2.5326	80.775
2.5313	80.799
2.5301	80.820
2.5289	80.854
2.5276	80.879
2.5264	80.891
2.5252	80.904
2.5239	80.918
2.5227	80.933
2.5215	80.946
2.5202	80.966
2.5190	80.988
2.5178	80.993
2.5166	80.982
2.5154	80.974
2.5141	80.972
2.5129	80.989
2.5117	81.013
2.5105	81.029
2.5093	81.041
2.5081	81.065
2.5068	81.092
2.5056	81.110
2.5044	81.127
2.5032	81.147
2.5020	81.156
2.5008	81.150
2.4996	81.150
2.4984	81.172
2.4972	81.195
2.4960	81.204
2.4948	81.217
2.4936	81.229
2.4924	81.238
2.4912	81.244
2.4900	81.247
2.4888	81.246
2.4876	81.247
2.4864	81.258
2.4852	81.282
2.4840	81.312
2.4828	81.357
2.4816	81.414
2.4805	81.463
2.4793	81.497
2.4781	81.521
2.4769	81.535
2.4757	81.542
2.4745	81.547
2.4734	81.555
2.4722	81.569
2.4710	81.584
2.4698	81.597
2.4686	81.605
2.4675	81.624
2.4663	81.646
2.4651	81.662
2.4640	81.666
2.4628	81.674
2.4616	81.688
2.4604	81.701
2.4593	81.708
2.4581	81.724
2.4569	81.734
2.4558	81.744
2.4546	81.770
2.4535	81.808
2.4523	81.836
2.4511	81.849
2.4500	81.854
2.4488	81.853
2.4477	81.850
2.4465	81.866
2.4454	81.900
2.4442	81.929
2.4431	81.935
2.4419	81.934
2.4408	81.943
2.4396	81.963
2.4385	81.991
2.4373	82.033
2.4362	82.074
2.4350	82.110
2.4339	82.139
2.4327	82.162
2.4316	82.180
2.4305	82.190
2.4293	82.201
2.4282	82.212
2.4270	82.227
2.4259	82.262
2.4248	82.310
2.4236	82.350
2.4225	82.371
2.4214	82.383
2.4202	82.400
2.4191	82.405
2.4180	82.413
2.4169	82.441
2.4157	82.458
2.4146	82.451
2.4135	82.436
2.4124	82.426
2.4112	82.429
2.4101	82.435
2.4090	82.442
2.4079	82.462
2.4068	82.474
2.4056	82.481
2.4045	82.499
2.4034	82.517
2.4023	82.537
2.4012	82.544
2.4001	82.532
2.3990	82.514
2.3979	82.486
2.3967	82.459
2.3956	82.441
2.3945	82.419
2.3934	82.404
2.3923	82.399
2.3912	82.401
2.3901	82.414
2.3890	82.437
2.3879	82.456
2.3868	82.463
2.3857	82.449
2.3846	82.437
2.3835	82.427
2.3824	82.422
2.3813	82.433
2.3802	82.453
2.3791	82.464
2.3781	82.479
2.3770	82.494
2.3759	82.502
2.3748	82.506
2.3737	82.532
2.3726	82.558
2.3715	82.551
2.3704	82.541
2.3694	82.539
2.3683	82.540
2.3672	82.537
2.3661	82.542
2.3650	82.557
2.3640	82.566
2.3629	82.553
2.3618	82.546
2.3607	82.539
2.3597	82.544
2.3586	82.562
2.3575	82.573
2.3564	82.574
2.3554	82.588
2.3543	82.596
2.3532	82.595
2.3522	82.595
2.3511	82.607
2.3500	82.622
2.3490	82.633
2.3479	82.641
2.3468	82.651
2.3458	82.656
2.3447	82.655
2.3436	82.665
2.3426	82.684
2.3415	82.679
2.3405	82.670
2.3394	82.651
2.3384	82.641
2.3373	82.639
2.3363	82.635
2.3352	82.633
2.3342	82.632
2.3331	82.625
2.3321	82.619
2.3310	82.608
2.3300	82.618
2.3289	82.632
2.3279	82.640
2.3268	82.632
2.3258	82.625
2.3247	82.631
2.3237	82.639
2.3226	82.638
2.3216	82.632
2.3206	82.634
2.3195	82.633
2.3185	82.614
2.3175	82.597
2.3164	82.595
2.3154	82.609
2.3144	82.606
2.3133	82.598
2.3123	82.616
2.3113	82.644
2.3102	82.657
2.3092	82.662
2.3082	82.669
2.3071	82.674
2.3061	82.666
2.3051	82.669
2.3041	82.679
2.3030	82.685
2.3020	82.690
2.3010	82.686
2.3000	82.680
2.2990	82.685
2.2979	82.689
2.2969	82.686
2.2959	82.681
2.2949	82.685
2.2939	82.699
2.2929	82.707
2.2918	82.715
2.2908	82.726
2.2898	82.727
2.2888	82.714
2.2878	82.696
2.2868	82.678
2.2858	82.671
2.2848	82.683
2.2838	82.697
2.2828	82.698
2.2818	82.702
2.2808	82.704
2.2798	82.685
2.2787	82.664
2.2777	82.672
2.2767	82.699
2.2757	82.704
2.2747	82.690
2.2738	82.684
2.2728	82.671
2.2718	82.652
2.2708	82.645
2.2698	82.657
2.2688	82.679
2.2678	82.681
2.2668	82.688
2.2658	82.692
2.2648	82.657
2.2638	82.620
2.2628	82.596
2.2618	82.579
2.2609	82.574
2.2599	82.584
2.2589	82.612
2.2579	82.611
2.2569	82.578
2.2559	82.561
2.2550	82.554
2.2540	82.544
2.2530	82.548
2.2520	82.572
2.2510	82.578
2.2501	82.564
2.2491	82.559
2.2481	82.573
2.2471	82.593
2.2462	82.608
2.2452	82.616
2.2442	82.601
2.2433	82.556
2.2423	82.513
2.2413	82.487
2.2403	82.484
2.2394	82.501
2.2384	82.521
2.2374	82.537
2.2365	82.536
2.2355	82.534
2.2345	82.525
2.2336	82.508
2.2326	82.507
2.2317	82.506
2.2307	82.504
2.2297	82.502
2.2288	82.492
2.2278	82.486
2.2269	82.475
2.2259	82.446
2.2250	82.418
2.2240	82.384
2.2231	82.364
2.2221	82.358
2.2211	82.348
2.2202	82.335
2.2192	82.325
2.2183	82.281
2.2173	82.219
2.2164	82.146
2.2155	82.066
2.2145	81.956
2.2136	81.798
2.2126	81.623
2.2117	81.433
2.2107	81.236
2.2098	81.092
2.2088	81.043
2.2079	81.083
2.2070	81.195
2.2060	81.358
2.2051	81.530
2.2041	81.643
2.2032	81.712
2.2023	81.763
2.2013	81.808
2.2004	81.840
2.1995	81.869
2.1985	81.901
2.1976	81.932
2.1967	81.947
2.1957	81.957
2.1948	81.982
2.1939	82.017
2.1930	82.029
2.1920	82.021
2.1911	82.027
2.1902	82.060
2.1893	82.088
2.1883	82.107
2.1874	82.152
2.1865	82.200
2.1856	82.222
2.1846	82.232
2.1837	82.257
2.1828	82.278
2.1819	82.294
2.1810	82.335
2.1800	82.396
2.1791	82.441
2.1782	82.460
2.1773	82.458
2.1764	82.451
2.1755	82.433
2.1746	82.432
2.1736	82.456
2.1727	82.480
2.1718	82.494
2.1709	82.499
2.1700	82.492
2.1691	82.488
2.1682	82.483
2.1673	82.476
2.1664	82.466
2.1655	82.457
2.1646	82.467
2.1637	82.487
2.1628	82.493
2.1619	82.496
2.1610	82.494
2.1601	82.484
2.1592	82.490
2.1583	82.524
2.1574	82.575
2.1565	82.614
2.1556	82.637
2.1547	82.666
2.1538	82.694
2.1529	82.709
2.1520	82.717
2.1511	82.727
2.1502	82.742
2.1493	82.761
2.1484	82.796
2.1475	82.843
2.1466	82.892
2.1458	82.940
2.1449	82.983
2.1440	82.996
2.1431	83.000
2.1422	82.999
2.1413	82.998
2.1404	82.996
2.1396	83.012
2.1387	83.052
2.1378	83.098
2.1369	83.108
2.1360	83.088
2.1352	83.058
2.1343	83.045
2.1334	83.059
2.1325	83.078
2.1316	83.099
2.1308	83.103
2.1299	83.080
2.1290	83.039
2.1281	83.010
2.1273	82.999
2.1264	83.012
2.1255	83.026
2.1247	83.036
2.1238	83.045
2.1229	83.051
2.1220	83.059
2.1212	83.062
2.1203	83.039
2.1194	83.034
2.1186	83.057
2.1177	83.090
2.1168	83.116
2.1160	83.116
2.1151	83.098
2.1143	83.065
2.1134	83.030
2.1125	83.032
2.1117	83.051
2.1108	83.078
2.1100	83.067
2.1091	83.030
2.1082	83.021
2.1074	83.029
2.1065	83.051
2.1057	83.089
2.1048	83.121
2.1040	83.140
2.1031	83.130
2.1023	83.098
2.1014	83.069
2.1005	83.057
2.0997	83.046
2.0988	83.045
2.0980	83.060
2.0971	83.066
2.0963	83.057
2.0955	83.034
2.0946	83.022
2.0938	83.047
2.0929	83.069
2.0921	83.083
2.0912	83.099
2.0904	83.098
2.0895	83.063
2.0887	83.012
2.0879	82.976
2.0870	82.962
2.0862	82.952
2.0853	82.971
2.0845	83.014
2.0837	83.050
2.0828	83.073
2.0820	83.080
2.0812	83.015
2.0803	83.031
2.0795	82.981
2.0760	82.981
2.0720	82.981
2.0680	82.817
2.0640	82.438
2.0600	82.653
2.0560	82.627
2.0520	82.748
2.0480	82.541
2.0440	82.566
2.0400	82.780
2.0360	82.386
2.0320	82.045
2.0280	81.656
2.0240	81.630
2.0200	81.858
2.0160	81.697
2.0120	81.682
2.0080	81.361
2.0040	81.135
2.0000	80.790
1.9960	80.499
1.9920	80.658
1.9880	80.804
1.9840	80.526
1.9800	80.395
1.9760	80.107
1.9720	80.042
1.9680	79.885
1.9640	79.480
1.9600	79.582
1.9560	79.646
1.9520	79.582
1.9480	79.425
1.9440	79.149
1.9400	79.030
1.9360	78.825
1.9320	78.705
1.9280	78.569
1.9240	78.949
1.9200	78.763
1.9160	78.698
1.9120	78.698
1.9080	79.071
1.9040	79.261
1.9000	79.490
1.8960	79.306
1.8920	79.443
1.8880	79.533
1.8840	79.280
1.8800	79.470
1.8760	79.745
1.8720	79.879
1.8680	79.731
1.8640	79.906
1.8600	79.966
1.8560	79.742
1.8520	79.887
1.8480	79.415
1.8440	79.469
1.8400	79.746
1.8360	79.848
1.8320	80.049
1.8280	79.825
1.8240	79.768
1.8200	79.415
1.8160	79.622
1.8120	79.523
1.8080	79.192
1.8040	79.110
1.8000	79.110
1.7960	78.888
1.7920	78.834
1.7880	78.717
1.7840	79.075
1.7800	79.379
1.7760	79.075
1.7720	78.593
1.7680	78.432
1.7640	78.432
1.7600	78.263
1.7560	78.290
1.7520	78.106
1.7480	78.162
1.7440	78.524
1.7400	78.737
1.7360	79.388
1.7320	79.217
1.7280	79.252
1.7240	79.343
1.7200	79.397
1.7160	79.083
1.7120	78.966
1.7080	78.760
1.7040	78.834
1.7000	78.534
1.6960	78.630
1.6920	78.534
1.6880	78.657
1.6840	77.961
1.6800	78.709
1.6760	78.861
1.6720	78.691
1.6680	78.657
1.6640	78.183
1.6600	78.244
1.6560	78.121
1.6520	77.905
1.6480	77.910
1.6440	78.284
1.6400	77.858
1.6360	77.948
1.6320	78.491
1.6280	78.099
1.6240	77.887
1.6200	77.407
1.6160	77.076
1.6120	77.016
1.6080	77.647
1.6040	78.222
1.6000	78.284
1.5960	78.009
1.5920	78.104
1.5880	78.043
1.5840	78.284
1.5800	78.802
1.5760	78.426
1.5720	77.943
1.5680	77.788
1.5640	77.363
1.5600	76.974
1.5560	76.854
1.5520	77.271
1.5480	76.978
1.5440	76.740
1.5400	76.531
1.5360	77.248
1.5320	77.430
1.5280	77.490
1.5240	77.130
1.5200	76.711
1.5160	76.769
1.5120	76.949
1.5080	77.404
1.5040	77.320
1.5000	77.026
1.4960	77.696
1.4920	76.665
1.4880	76.604
1.4840	76.573
1.4800	76.335
1.4760	76.305
1.4720	76.334
1.4680	77.054
1.4640	77.567
1.4600	77.054
1.4560	76.904
1.4520	76.365
1.4480	76.097
1.4440	76.156
1.4400	76.284
1.4360	76.405
1.4320	76.615
1.4280	76.585
1.4240	76.404
1.4200	76.344
1.4160	75.985
1.4120	75.833
1.4080	75.701
1.4040	75.455
1.4000	75.372
1.3960	75.523
1.3920	75.829
1.3880	75.651
1.3840	75.140
1.3800	75.127
1.3760	76.344
1.3720	76.142
1.3680	76.084
1.3640	75.871
1.3600	75.774
1.3560	75.927
1.3520	76.024
1.3480	75.869
1.3440	75.485
1.3400	75.194
1.3360	75.133
1.3320	75.482
1.3280	75.510
1.3240	75.489
1.3200	75.270
1.3160	74.863
1.3120	74.805
1.3080	74.805
1.3040	74.690
1.3000	74.600
1.2960	74.511
1.2920	74.595
1.2880	74.353
1.2840	74.283
1.2800	74.148
1.2760	74.772
1.2720	74.772
1.2680	74.675
1.2640	74.710
1.2600	74.619
1.2560	74.410
1.2520	74.592
1.2480	74.898
1.2440	74.636
1.2400	74.463
1.2360	74.431
1.2320	74.217
1.2280	74.268
1.2240	73.945
1.2200	73.705
1.2160	73.730
1.2120	73.829
1.2080	73.328
1.2040	73.418
1.2000	73.599
1.1960	73.460
1.1920	73.379
1.1880	73.160
1.1840	73.193
1.1800	73.137
1.1760	73.057
1.1720	72.945
1.1680	72.856
1.1640	72.597
1.1600	72.487
1.1560	72.407
1.1520	72.279
1.1480	72.280
1.1440	72.155
1.1400	72.030
1.1360	72.504
1.1320	72.155
1.1280	71.849
1.1240	72.379
1.1200	72.025
1.1160	71.627
1.1120	72.601
1.1080	72.636
1.1040	72.228
1.1000	71.689
1.0960	72.215
1.0920	71.697
1.0880	71.774
1.0840	71.928
1.0800	71.406
1.0760	71.662
1.0720	70.998
1.0680	70.284
1.0640	70.526
1.0600	70.653
1.0560	70.400
1.0520	70.114
1.0480	69.863
1.0440	70.635
1.0400	70.907
1.0360	70.910
1.0320	70.547
1.0280	70.691
1.0240	70.528
1.0200	70.166
1.0160	70.130
1.0120	69.842
1.0080	69.877
1.0040	69.894
1.0000	69.265
0.99600	68.895
0.99200	69.508
0.98800	69.306
0.98400	69.006
0.98000	69.148
0.97600	68.715
0.97200	68.468
0.96800	68.406
0.96400	68.436
0.96000	68.226
0.95600	68.278
0.95200	68.121
0.94800	67.761
0.94400	67.580
0.94000	67.297
0.93600	67.464
0.93200	67.245
0.92800	66.939
0.92400	66.891
0.92000	66.760
0.91600	66.699
0.91200	66.381
0.90800	66.392
0.90400	65.935
0.90000	65.856
0.89600	65.717
0.89200	65.627
0.88800	65.319
0.88400	65.150
0.88000	65.051
0.87600	64.841
0.87200	65.008
0.86800	64.548
0.86400	64.515
0.86000	64.507
0.85600	64.401
0.85200	64.268
0.84800	64.260
0.84400	63.870
0.84000	64.053
0.83600	64.209
0.83200	63.996
0.82800	63.856
0.82400	64.162
0.82000	64.368
0.81600	64.294
0.81200	64.139
0.80800	64.237
0.80400	64.319
0.80000	64.262
0.79900	63.202
0.79800	63.202
0.79700	63.244
0.79600	63.452
0.79500	63.452
0.79400	63.102
0.79300	63.147
0.79200	62.910
0.79100	62.950
0.79000	63.450
0.78900	63.202
0.78800	63.092
0.78700	63.341
0.78600	63.176
0.78500	63.397
0.78400	63.491
0.78300	63.589
0.78200	63.024
0.78100	62.730
0.78000	63.102
0.77900	63.268
0.77800	63.158
0.77700	63.241
0.77600	62.691
0.77500	62.966
0.77400	63.159
0.77300	63.159
0.77200	63.101
0.77100	63.008
0.77000	62.655
0.76900	62.735
0.76800	63.005
0.76700	63.336
0.76600	63.433
0.76500	63.253
0.76400	63.109
0.76300	63.086
0.76200	62.882
0.76100	63.275
0.76000	62.921
0.75900	62.757
0.75800	62.950
0.75700	62.563
0.75600	63.170
0.75500	63.489
0.75400	63.247
0.75300	62.811
0.75200	63.060
0.75100	63.253
0.75000	62.950
0.74900	62.491
0.74800	62.685
0.74700	62.782
0.74600	62.673
0.74500	62.685
0.74400	62.527
0.74300	61.877
0.74200	62.376
0.74100	63.273
0.74000	63.080
0.73900	62.516
0.73800	62.418
0.73700	62.297
0.73600	62.225
0.73500	62.297
0.73400	62.418
0.73300	62.553
0.73200	62.758
0.73100	62.621
0.73000	62.460
0.72900	62.498
0.72800	62.371
0.72700	62.510
0.72600	62.383
0.72500	62.285
0.72400	61.969
0.72300	61.969
0.72200	61.998
0.72100	62.024
0.72000	61.813
0.71900	62.630
0.71800	62.882
0.71700	63.022
0.71600	62.994
0.71500	61.979
0.71400	61.881
0.71300	62.188
0.71200	62.629
0.71100	62.742
0.71000	61.885
0.70900	61.426
0.70800	61.535
0.70700	61.014
0.70600	61.122
0.70500	61.470
0.70400	61.633
0.70300	61.664
0.70200	61.566
0.70100	60.787
0.70000	61.055
0.69900	61.844
0.69800	61.112
0.69700	61.559
0.69600	61.236
0.69500	61.247
0.69400	61.147
0.69300	61.192
0.69200	60.927
0.69100	61.347
0.69000	61.192
0.68900	61.358
0.68800	61.347
0.68700	61.047
0.68600	60.746
0.68500	60.856
0.68400	60.746
0.68300	60.646
0.68200	60.692
0.68100	60.692
0.68000	60.756
0.67900	60.811
0.67800	60.656
0.67700	60.346
0.67600	60.146
0.67500	60.711
0.67400	60.711
0.67300	60.812
0.67200	60.292
0.67100	60.620
0.67000	60.666
0.66900	60.419
0.66800	60.163
0.66700	59.861
0.66600	59.406
0.66500	59.051
0.66400	59.291
0.66300	59.238
0.66200	59.722
0.66100	59.722
0.66000	59.514
0.65900	59.786
0.65800	59.786
0.65700	59.676
0.65600	59.707
0.65500	59.359
0.65400	59.352
0.65300	59.145
0.65200	58.944
0.65100	58.838
0.65000	58.633
0.64900	58.377
0.64800	58.674
0.64700	59.057
0.64600	59.280
0.64500	58.976
0.64400	58.775
0.64300	58.668
0.64200	58.402
0.64100	58.249
0.64000	58.519
0.63900	58.515
0.63800	58.153
0.63700	57.891
0.63600	57.636
0.63500	57.891
0.63400	58.044
0.63300	57.491
0.63200	57.340
0.63100	57.598
0.63000	57.643
0.62900	57.739
0.62800	57.388
0.62700	57.388
0.62600	57.739
0.62500	57.699
0.62400	57.547
0.62300	57.291
0.62200	56.789
0.62100	56.837
0.62000	56.947
0.61900	57.108
0.61800	57.268
0.61700	57.009
0.61600	56.854
0.61500	56.851
0.61400	56.646
0.61300	56.442
0.61200	56.751
0.61100	56.348
0.61000	55.691
0.60900	55.338
0.60800	55.187
0.60700	54.985
0.60600	54.881
0.60500	54.631
0.60400	54.429
0.60300	54.225
0.60200	54.170
0.60100	53.905
0.60000	53.894
0.59900	53.733
0.59800	54.046
0.59700	53.985
0.59600	53.928
0.59500	53.589
0.59400	53.322
0.59300	53.405
0.59200	53.310
0.59100	52.951
0.59000	52.637
0.58900	52.392
0.58800	52.482
0.58700	51.869
0.58600	51.861
0.58500	51.993
0.58400	50.966
0.58300	51.062
0.58200	50.853
0.58100	50.601
0.58000	50.434
0.57900	50.010
0.57800	50.068
0.57700	49.371
0.57600	49.268
0.57500	49.108
0.57400	48.813
0.57300	48.649
0.57200	48.360
0.57100	48.229
0.57000	47.754
0.56900	47.205
0.56800	46.903
0.56700	46.461
0.56600	46.301
0.56500	45.955
0.56400	45.671
0.56300	45.529
0.56200	44.981
0.56100	44.676
0.56000	44.534
0.55900	43.973
0.55800	42.327
0.55700	42.449
0.55600	42.181
0.55500	41.617
0.55400	41.293
0.55300	41.095
0.55200	40.706
0.55100	40.611
0.55000	40.218
0.54900	40.224
0.54800	39.819
0.54700	39.686
0.54600	39.456
0.54500	39.523
0.54400	39.189
0.54300	39.491
0.54200	39.123
0.54100	38.821
0.54000	38.521
0.53900	38.347
0.53800	38.381
0.53700	38.080
0.53600	37.676
0.53500	37.845
0.53400	37.607
0.53300	37.389
0.53200	37.070
0.53100	36.940
0.53000	36.903
0.52900	36.459
0.52800	36.542
0.52700	36.411
0.52600	36.310
0.52500	36.411
0.52400	36.271
0.52300	36.380
0.52200	36.612
0.52100	36.381
0.52000	36.160
0.51900	35.928
0.51800	35.738
0.51700	35.768
0.51600	35.637
0.51500	35.626
0.51400	35.335
0.51300	35.465
0.51200	35.189
0.51100	34.860
0.51000	34.976
0.50900	34.918
0.50800	34.862
0.50700	34.733
0.50600	34.399
0.50500	34.314
0.50400	34.775
0.50300	34.615
0.50200	34.603
0.50100	34.923
0.50000	34.747
0.49900	34.359
0.49800	34.213
0.49700	34.241
0.49600	34.129
0.49500	33.911
0.49400	33.855
0.49300	33.939
0.49200	33.877
0.49100	33.916
0.49000	33.978
0.48900	33.875
0.48800	33.800
0.48700	33.332
0.48600	32.981
0.48500	33.161
0.48400	33.164
0.48300	33.245
0.48200	33.008
0.48100	33.008
0.48000	32.942
0.47900	32.791
0.47800	32.872
0.47700	32.579
0.47600	32.685
0.47500	32.530
0.47400	32.280
0.47300	32.021
0.47200	32.275
0.47100	32.299
0.47000	32.197
0.46900	32.118
0.46800	31.867
0.46700	31.764
0.46600	31.789
0.46500	31.738
0.46400	31.687
0.46300	31.611
0.46200	31.789
0.46100	31.559
0.46000	31.129
0.45900	32.469
0.45800	32.524
0.45700	32.294
0.45600	31.934
0.45500	31.754
0.45400	31.624
0.45300	31.629
0.45200	31.521
0.45100	31.422
0.45000	31.443
0.44900	31.518
0.44800	31.029
0.44700	30.951
0.44600	30.990
0.44500	30.780
0.44400	30.783
0.44300	30.462
0.44200	30.344
0.44100	30.437
0.44000	30.221
0.43900	30.164
0.43800	30.257
0.43700	30.020
0.43600	30.129
0.43500	30.176
0.43400	29.962
0.43300	29.621
0.43200	29.539
0.43100	29.502
0.43000	29.652
0.42900	29.503
0.42800	29.226
0.42700	29.176
0.42600	29.182
0.42500	28.919
0.42400	28.962
0.42300	28.976
0.42200	28.797
0.42100	28.622
0.42000	28.778
0.41900	28.664
0.41800	28.579
0.41700	28.379
0.41600	28.373
0.41500	28.673
0.41400	28.546
0.41300	28.143
0.41200	28.021
0.41100	27.922
0.41000	27.706
0.40900	27.876
0.40800	28.041
0.40700	27.955
0.40600	27.670
0.40500	27.631
0.40400	27.584
0.40300	27.584
0.40200	27.497
0.40100	27.335
0.40000	27.555
