Name: Picrite
Type: Rocks
Class: Igneous
Subclass: Ultramafic
Particle Size: 0-75 micrometers
Sample No.: Picrite.H2
Owner: JHU
Wavelength range: All
Origin: from Kilauea, via Rosalind Helz, USGS, Reston, VA (Cat. No.: KI 
79-5-180.8)
Description: Powder derived from sample that was light gray porphyritic, 
slightly vesicular rock.  Green olivine  phenocrysts range in size from 
approx. 0.5 mm to 4.0 mm and make up about 2-3% of the rock.  The 
grayish groundmass is very fine-grained.


Measurement: Directional (10 degree) hemispherical reflectance
First Column: X
Second Column: Y
X Units: Wavelength (micrometers)
Y Units: Reflectance (percent)
First X Value: 14.0112
Last X Value: 0.4000
Number of X Values: 2844
Additional information: picrit2a.txt

14.011	2.6632
13.973	2.6585
13.936	2.5498
13.899	2.3859
13.861	2.2805
13.824	2.2763
13.788	2.3766
13.751	2.5641
13.715	2.7715
13.679	2.9283
13.643	3.0333
13.607	3.1106
13.571	3.1807
13.536	3.2678
13.500	3.3748
13.465	3.4748
13.430	3.5205
13.396	3.4772
13.361	3.3992
13.327	3.3467
13.293	3.3270
13.259	3.3584
13.225	3.4566
13.191	3.5800
13.158	3.6724
13.124	3.6916
13.091	3.6778
13.058	3.6680
13.026	3.6593
12.993	3.6686
12.960	3.7045
12.928	3.7509
12.896	3.7992
12.864	3.8423
12.832	3.8890
12.800	3.9410
12.769	3.9914
12.737	4.0425
12.706	4.0922
12.675	4.1402
12.644	4.1906
12.614	4.2464
12.583	4.3090
12.552	4.3743
12.522	4.4407
12.492	4.5010
12.462	4.5574
12.432	4.6120
12.402	4.6613
12.373	4.7006
12.343	4.7304
12.314	4.7442
12.285	4.7431
12.256	4.7250
12.227	4.6982
12.198	4.6636
12.169	4.6172
12.141	4.5480
12.113	4.4538
12.084	4.3404
12.056	4.2148
12.028	4.0793
12.000	3.9467
11.973	3.8268
11.945	3.7275
11.918	3.6485
11.890	3.6002
11.863	3.5920
11.836	3.6145
11.809	3.6509
11.782	3.6937
11.755	3.7340
11.729	3.7680
11.702	3.8016
11.676	3.8456
11.650	3.9059
11.624	3.9790
11.598	4.0650
11.572	4.1667
11.546	4.2787
11.520	4.3940
11.495	4.5086
11.469	4.6181
11.444	4.7179
11.419	4.7969
11.394	4.8535
11.369	4.8940
11.344	4.9223
11.319	4.9380
11.294	4.9408
11.270	4.9399
11.245	4.9371
11.221	4.9231
11.197	4.8996
11.173	4.8761
11.149	4.8530
11.125	4.8246
11.101	4.7958
11.077	4.7796
11.054	4.7735
11.030	4.7695
11.007	4.7745
10.983	4.7976
10.960	4.8249
10.937	4.8450
10.914	4.8644
10.891	4.8914
10.868	4.9163
10.846	4.9284
10.823	4.9355
10.800	4.9444
10.778	4.9470
10.755	4.9428
10.733	4.9411
10.711	4.9465
10.689	4.9495
10.667	4.9397
10.645	4.9143
10.623	4.8675
10.602	4.7883
10.580	4.6730
10.558	4.5275
10.537	4.3655
10.516	4.2060
10.494	4.0735
10.473	3.9816
10.452	3.9296
10.431	3.9054
10.410	3.8925
10.389	3.8796
10.368	3.8606
10.348	3.8393
10.327	3.8283
10.306	3.8290
10.286	3.8353
10.266	3.8393
10.245	3.8288
10.225	3.7980
10.205	3.7434
10.185	3.6696
10.165	3.5943
10.145	3.5271
10.125	3.4737
10.106	3.4369
10.086	3.4148
10.066	3.4057
10.047	3.4067
10.027	3.4137
10.008	3.4275
9.9887	3.4462
9.9695	3.4643
9.9504	3.4779
9.9313	3.4863
9.9123	3.4915
9.8934	3.4945
9.8746	3.4929
9.8558	3.4884
9.8371	3.4828
9.8185	3.4764
9.7999	3.4696
9.7814	3.4673
9.7630	3.4706
9.7447	3.4756
9.7264	3.4788
9.7082	3.4826
9.6900	3.4854
9.6719	3.4839
9.6539	3.4748
9.6360	3.4592
9.6181	3.4361
9.6003	3.4088
9.5825	3.3865
9.5649	3.3785
9.5472	3.3870
9.5297	3.4088
9.5122	3.4366
9.4948	3.4617
9.4774	3.4784
9.4601	3.4870
9.4429	3.4860
9.4257	3.4760
9.4086	3.4610
9.3916	3.4444
9.3746	3.4268
9.3577	3.4055
9.3408	3.3828
9.3240	3.3616
9.3073	3.3354
9.2906	3.3036
9.2740	3.2707
9.2574	3.2407
9.2409	3.2154
9.2245	3.1955
9.2081	3.1860
9.1918	3.1886
9.1755	3.1943
9.1593	3.1956
9.1431	3.1922
9.1270	3.1868
9.1110	3.1805
9.0950	3.1737
9.0791	3.1737
9.0632	3.1802
9.0474	3.1821
9.0316	3.1711
9.0159	3.1493
9.0003	3.1197
8.9847	3.0816
8.9691	3.0363
8.9536	2.9953
8.9382	2.9597
8.9228	2.9221
8.9075	2.8802
8.8922	2.8340
8.8770	2.7778
8.8618	2.7096
8.8467	2.6337
8.8316	2.5545
8.8166	2.4745
8.8016	2.3974
8.7867	2.3301
8.7718	2.2764
8.7570	2.2357
8.7423	2.2085
8.7275	2.1924
8.7129	2.1778
8.6982	2.1618
8.6837	2.1462
8.6692	2.1354
8.6547	2.1342
8.6403	2.1431
8.6259	2.1598
8.6116	2.1792
8.5973	2.1949
8.5830	2.2055
8.5688	2.2130
8.5547	2.2214
8.5406	2.2329
8.5266	2.2502
8.5126	2.2741
8.4986	2.3023
8.4847	2.3325
8.4708	2.3632
8.4570	2.3956
8.4432	2.4300
8.4295	2.4659
8.4158	2.5094
8.4022	2.5598
8.3886	2.6102
8.3750	2.6587
8.3615	2.7063
8.3481	2.7541
8.3347	2.8021
8.3213	2.8500
8.3079	2.9006
8.2946	2.9475
8.2814	2.9831
8.2682	3.0108
8.2550	3.0371
8.2419	3.0644
8.2288	3.0956
8.2158	3.1319
8.2028	3.1764
8.1898	3.2273
8.1769	3.2775
8.1640	3.3293
8.1512	3.3857
8.1384	3.4457
8.1256	3.5104
8.1129	3.5855
8.1002	3.6778
8.0876	3.7860
8.0750	3.9039
8.0624	4.0273
8.0499	4.1519
8.0374	4.2698
8.0250	4.3795
8.0126	4.4868
8.0002	4.5977
7.9879	4.7119
7.9756	4.8314
7.9634	4.9584
7.9512	5.0922
7.9390	5.2286
7.9268	5.3678
7.9147	5.5111
7.9027	5.6555
7.8906	5.7953
7.8786	5.9316
7.8667	6.0633
7.8548	6.1919
7.8429	6.3199
7.8310	6.4502
7.8192	6.5890
7.8075	6.7390
7.7957	6.8979
7.7840	7.0636
7.7723	7.2281
7.7607	7.3870
7.7491	7.5363
7.7375	7.6748
7.7260	7.8070
7.7145	7.9402
7.7031	8.0774
7.6916	8.2190
7.6802	8.3618
7.6689	8.5045
7.6575	8.6426
7.6462	8.7731
7.6350	8.8980
7.6238	9.0231
7.6126	9.1537
7.6014	9.2909
7.5903	9.4340
7.5792	9.5798
7.5681	9.7239
7.5571	9.8652
7.5461	10.007
7.5351	10.152
7.5242	10.307
7.5133	10.473
7.5024	10.644
7.4916	10.814
7.4807	10.978
7.4700	11.135
7.4592	11.286
7.4485	11.436
7.4378	11.585
7.4272	11.737
7.4165	11.891
7.4059	12.046
7.3954	12.201
7.3848	12.354
7.3743	12.507
7.3639	12.658
7.3534	12.803
7.3430	12.940
7.3326	13.070
7.3223	13.189
7.3119	13.298
7.3016	13.400
7.2914	13.502
7.2811	13.605
7.2709	13.710
7.2607	13.817
7.2506	13.926
7.2404	14.036
7.2303	14.145
7.2203	14.255
7.2102	14.365
7.2002	14.476
7.1902	14.589
7.1803	14.703
7.1703	14.818
7.1604	14.931
7.1506	15.043
7.1407	15.151
7.1309	15.255
7.1211	15.359
7.1113	15.465
7.1016	15.575
7.0919	15.690
7.0822	15.808
7.0725	15.928
7.0629	16.046
7.0533	16.165
7.0437	16.288
7.0341	16.416
7.0246	16.550
7.0151	16.686
7.0056	16.820
6.9962	16.948
6.9867	17.064
6.9773	17.169
6.9679	17.266
6.9586	17.357
6.9493	17.447
6.9400	17.538
6.9307	17.630
6.9214	17.721
6.9122	17.806
6.9030	17.883
6.8938	17.952
6.8847	18.014
6.8755	18.069
6.8664	18.119
6.8573	18.167
6.8483	18.213
6.8393	18.258
6.8302	18.300
6.8213	18.340
6.8123	18.379
6.8034	18.414
6.7944	18.445
6.7855	18.471
6.7767	18.491
6.7678	18.508
6.7590	18.518
6.7502	18.519
6.7414	18.512
6.7327	18.493
6.7239	18.461
6.7152	18.422
6.7065	18.380
6.6979	18.342
6.6892	18.308
6.6806	18.276
6.6720	18.243
6.6634	18.206
6.6549	18.167
6.6464	18.131
6.6378	18.101
6.6294	18.083
6.6209	18.077
6.6124	18.077
6.6040	18.079
6.5956	18.080
6.5872	18.076
6.5789	18.068
6.5705	18.056
6.5622	18.042
6.5539	18.027
6.5456	18.014
6.5374	18.002
6.5292	17.992
6.5209	17.984
6.5128	17.981
6.5046	17.983
6.4964	17.988
6.4883	17.998
6.4802	18.014
6.4721	18.036
6.4640	18.064
6.4560	18.098
6.4480	18.136
6.4399	18.178
6.4320	18.220
6.4240	18.263
6.4160	18.306
6.4081	18.352
6.4002	18.401
6.3923	18.451
6.3844	18.501
6.3766	18.549
6.3687	18.593
6.3609	18.632
6.3531	18.668
6.3454	18.704
6.3376	18.743
6.3299	18.783
6.3221	18.826
6.3144	18.871
6.3068	18.914
6.2991	18.954
6.2914	18.991
6.2838	19.026
6.2762	19.056
6.2686	19.081
6.2611	19.101
6.2535	19.119
6.2460	19.135
6.2385	19.155
6.2310	19.181
6.2235	19.212
6.2160	19.244
6.2086	19.271
6.2011	19.290
6.1937	19.299
6.1863	19.300
6.1790	19.300
6.1716	19.301
6.1643	19.303
6.1570	19.305
6.1496	19.301
6.1424	19.287
6.1351	19.265
6.1278	19.240
6.1206	19.215
6.1134	19.189
6.1062	19.161
6.0990	19.128
6.0918	19.084
6.0847	19.025
6.0776	18.952
6.0704	18.868
6.0633	18.778
6.0563	18.684
6.0492	18.595
6.0421	18.521
6.0351	18.470
6.0281	18.448
6.0211	18.459
6.0141	18.500
6.0071	18.569
6.0002	18.660
5.9932	18.772
5.9863	18.903
5.9794	19.046
5.9725	19.195
5.9657	19.346
5.9588	19.494
5.9520	19.636
5.9451	19.774
5.9383	19.912
5.9315	20.054
5.9247	20.197
5.9180	20.337
5.9112	20.474
5.9045	20.603
5.8978	20.723
5.8911	20.835
5.8844	20.943
5.8777	21.051
5.8711	21.158
5.8644	21.268
5.8578	21.382
5.8512	21.497
5.8446	21.611
5.8380	21.722
5.8314	21.832
5.8249	21.944
5.8184	22.060
5.8118	22.182
5.8053	22.309
5.7988	22.438
5.7923	22.564
5.7859	22.683
5.7794	22.791
5.7730	22.885
5.7666	22.962
5.7602	23.021
5.7538	23.060
5.7474	23.079
5.7410	23.080
5.7347	23.065
5.7283	23.033
5.7220	22.990
5.7157	22.935
5.7094	22.870
5.7031	22.795
5.6969	22.712
5.6906	22.626
5.6844	22.542
5.6782	22.468
5.6719	22.409
5.6657	22.373
5.6596	22.360
5.6534	22.371
5.6472	22.408
5.6411	22.470
5.6349	22.558
5.6288	22.667
5.6227	22.797
5.6166	22.945
5.6106	23.107
5.6045	23.278
5.5984	23.457
5.5924	23.641
5.5864	23.824
5.5804	23.999
5.5744	24.162
5.5684	24.311
5.5624	24.443
5.5564	24.557
5.5505	24.653
5.5445	24.735
5.5386	24.802
5.5327	24.856
5.5268	24.897
5.5209	24.928
5.5151	24.954
5.5092	24.975
5.5033	24.994
5.4975	25.015
5.4917	25.038
5.4859	25.062
5.4801	25.090
5.4743	25.124
5.4685	25.164
5.4628	25.209
5.4570	25.259
5.4513	25.316
5.4455	25.375
5.4398	25.438
5.4341	25.507
5.4284	25.581
5.4228	25.659
5.4171	25.738
5.4114	25.816
5.4058	25.896
5.4002	25.974
5.3945	26.047
5.3889	26.116
5.3833	26.178
5.3778	26.233
5.3722	26.284
5.3666	26.333
5.3611	26.386
5.3555	26.438
5.3500	26.482
5.3445	26.518
5.3390	26.543
5.3335	26.559
5.3280	26.569
5.3225	26.579
5.3171	26.592
5.3116	26.606
5.3062	26.620
5.3008	26.634
5.2954	26.647
5.2900	26.660
5.2846	26.673
5.2792	26.689
5.2738	26.711
5.2684	26.739
5.2631	26.776
5.2578	26.823
5.2524	26.878
5.2471	26.940
5.2418	27.007
5.2365	27.078
5.2312	27.152
5.2260	27.229
5.2207	27.309
5.2154	27.391
5.2102	27.472
5.2050	27.551
5.1998	27.623
5.1945	27.692
5.1893	27.758
5.1842	27.824
5.1790	27.895
5.1738	27.971
5.1686	28.050
5.1635	28.131
5.1584	28.211
5.1532	28.290
5.1481	28.368
5.1430	28.447
5.1379	28.527
5.1328	28.609
5.1277	28.690
5.1227	28.768
5.1176	28.843
5.1126	28.912
5.1075	28.977
5.1025	29.037
5.0975	29.094
5.0925	29.151
5.0875	29.211
5.0825	29.279
5.0775	29.355
5.0726	29.440
5.0676	29.533
5.0627	29.631
5.0577	29.734
5.0528	29.844
5.0479	29.961
5.0430	30.083
5.0380	30.208
5.0332	30.330
5.0283	30.449
5.0234	30.564
5.0185	30.672
5.0137	30.778
5.0088	30.886
5.0040	30.997
4.9992	31.108
4.9944	31.219
4.9896	31.332
4.9848	31.448
4.9800	31.569
4.9752	31.698
4.9704	31.839
4.9657	31.988
4.9609	32.142
4.9562	32.300
4.9514	32.466
4.9467	32.637
4.9420	32.816
4.9373	33.006
4.9326	33.202
4.9279	33.403
4.9232	33.606
4.9186	33.809
4.9139	34.009
4.9092	34.204
4.9046	34.395
4.9000	34.583
4.8953	34.768
4.8907	34.950
4.8861	35.129
4.8815	35.300
4.8769	35.466
4.8723	35.624
4.8678	35.776
4.8632	35.928
4.8586	36.082
4.8541	36.237
4.8495	36.394
4.8450	36.549
4.8405	36.701
4.8360	36.844
4.8315	36.978
4.8270	37.106
4.8225	37.231
4.8180	37.353
4.8135	37.478
4.8090	37.606
4.8046	37.738
4.8001	37.874
4.7957	38.010
4.7913	38.145
4.7868	38.279
4.7824	38.411
4.7780	38.541
4.7736	38.670
4.7692	38.802
4.7648	38.938
4.7605	39.076
4.7561	39.213
4.7517	39.352
4.7474	39.491
4.7431	39.633
4.7387	39.779
4.7344	39.925
4.7301	40.067
4.7258	40.202
4.7215	40.332
4.7172	40.458
4.7129	40.589
4.7086	40.735
4.7043	40.891
4.7000	41.048
4.6958	41.202
4.6915	41.355
4.6873	41.506
4.6831	41.654
4.6788	41.805
4.6746	41.961
4.6704	42.117
4.6662	42.268
4.6620	42.415
4.6578	42.563
4.6536	42.713
4.6495	42.864
4.6453	43.020
4.6411	43.179
4.6370	43.341
4.6328	43.502
4.6287	43.661
4.6246	43.814
4.6205	43.962
4.6163	44.108
4.6122	44.257
4.6081	44.408
4.6040	44.563
4.6000	44.722
4.5959	44.879
4.5918	45.029
4.5877	45.171
4.5837	45.309
4.5796	45.444
4.5756	45.575
4.5716	45.705
4.5675	45.835
4.5635	45.965
4.5595	46.096
4.5555	46.229
4.5515	46.365
4.5475	46.501
4.5435	46.631
4.5395	46.755
4.5356	46.871
4.5316	46.979
4.5276	47.080
4.5237	47.177
4.5197	47.273
4.5158	47.366
4.5119	47.458
4.5080	47.551
4.5040	47.641
4.5001	47.725
4.4962	47.805
4.4923	47.883
4.4884	47.959
4.4846	48.035
4.4807	48.112
4.4768	48.190
4.4730	48.264
4.4691	48.333
4.4652	48.398
4.4614	48.463
4.4576	48.529
4.4537	48.595
4.4499	48.662
4.4461	48.726
4.4423	48.784
4.4385	48.839
4.4347	48.894
4.4309	48.951
4.4271	49.013
4.4233	49.077
4.4196	49.141
4.4158	49.203
4.4120	49.261
4.4083	49.316
4.4045	49.371
4.4008	49.426
4.3971	49.481
4.3934	49.535
4.3896	49.589
4.3859	49.640
4.3822	49.689
4.3785	49.738
4.3748	49.791
4.3711	49.845
4.3674	49.898
4.3638	49.949
4.3601	49.998
4.3564	50.046
4.3528	50.092
4.3491	50.140
4.3455	50.194
4.3418	50.250
4.3382	50.303
4.3346	50.356
4.3310	50.410
4.3273	50.468
4.3237	50.528
4.3201	50.588
4.3165	50.645
4.3129	50.693
4.3094	50.730
4.3058	50.763
4.3022	50.798
4.2986	50.838
4.2951	50.884
4.2915	50.934
4.2880	50.984
4.2844	51.030
4.2809	51.076
4.2774	51.122
4.2738	51.169
4.2703	51.217
4.2668	51.266
4.2633	51.313
4.2598	51.359
4.2563	51.406
4.2528	51.454
4.2493	51.497
4.2458	51.534
4.2424	51.570
4.2389	51.604
4.2354	51.637
4.2320	51.674
4.2285	51.718
4.2251	51.766
4.2216	51.813
4.2182	51.856
4.2148	51.894
4.2113	51.929
4.2079	51.962
4.2045	51.995
4.2011	52.033
4.1977	52.075
4.1943	52.116
4.1909	52.154
4.1875	52.186
4.1841	52.214
4.1808	52.244
4.1774	52.277
4.1740	52.313
4.1707	52.350
4.1673	52.388
4.1640	52.422
4.1606	52.449
4.1573	52.473
4.1540	52.499
4.1506	52.528
4.1473	52.555
4.1440	52.583
4.1407	52.612
4.1374	52.639
4.1341	52.662
4.1308	52.685
4.1275	52.713
4.1242	52.743
4.1209	52.773
4.1177	52.801
4.1144	52.826
4.1111	52.843
4.1079	52.854
4.1046	52.867
4.1014	52.884
4.0981	52.906
4.0949	52.929
4.0917	52.948
4.0884	52.964
4.0852	52.977
4.0820	52.989
4.0788	53.005
4.0756	53.026
4.0724	53.052
4.0692	53.078
4.0660	53.105
4.0628	53.130
4.0596	53.153
4.0565	53.173
4.0533	53.189
4.0501	53.203
4.0470	53.213
4.0438	53.222
4.0406	53.232
4.0375	53.244
4.0344	53.257
4.0312	53.268
4.0281	53.278
4.0250	53.288
4.0218	53.300
4.0187	53.315
4.0156	53.334
4.0125	53.355
4.0094	53.375
4.0063	53.392
4.0032	53.409
4.0001	53.429
3.9970	53.449
3.9940	53.472
3.9909	53.497
3.9878	53.521
3.9847	53.542
3.9817	53.565
3.9786	53.590
3.9756	53.617
3.9725	53.640
3.9695	53.660
3.9665	53.679
3.9634	53.695
3.9604	53.708
3.9574	53.720
3.9544	53.733
3.9513	53.745
3.9483	53.754
3.9453	53.765
3.9423	53.780
3.9393	53.798
3.9363	53.816
3.9333	53.833
3.9304	53.849
3.9274	53.866
3.9244	53.883
3.9214	53.901
3.9185	53.921
3.9155	53.941
3.9126	53.956
3.9096	53.967
3.9067	53.975
3.9037	53.980
3.9008	53.981
3.8979	53.979
3.8949	53.978
3.8920	53.980
3.8891	53.987
3.8862	54.001
3.8833	54.020
3.8804	54.035
3.8775	54.045
3.8746	54.049
3.8717	54.052
3.8688	54.058
3.8659	54.067
3.8630	54.083
3.8601	54.100
3.8573	54.113
3.8544	54.124
3.8515	54.133
3.8487	54.138
3.8458	54.142
3.8430	54.146
3.8401	54.154
3.8373	54.165
3.8344	54.181
3.8316	54.199
3.8288	54.213
3.8259	54.223
3.8231	54.225
3.8203	54.222
3.8175	54.220
3.8147	54.220
3.8119	54.225
3.8091	54.235
3.8063	54.246
3.8035	54.257
3.8007	54.267
3.7979	54.277
3.7951	54.286
3.7924	54.295
3.7896	54.304
3.7868	54.309
3.7841	54.307
3.7813	54.304
3.7785	54.302
3.7758	54.302
3.7730	54.303
3.7703	54.306
3.7676	54.310
3.7648	54.311
3.7621	54.311
3.7594	54.314
3.7566	54.319
3.7539	54.324
3.7512	54.328
3.7485	54.334
3.7458	54.343
3.7431	54.353
3.7404	54.363
3.7377	54.370
3.7350	54.374
3.7323	54.373
3.7296	54.368
3.7269	54.363
3.7242	54.362
3.7216	54.364
3.7189	54.366
3.7162	54.369
3.7136	54.374
3.7109	54.381
3.7083	54.385
3.7056	54.385
3.7030	54.382
3.7003	54.379
3.6977	54.374
3.6950	54.370
3.6924	54.368
3.6898	54.369
3.6872	54.371
3.6845	54.373
3.6819	54.372
3.6793	54.369
3.6767	54.366
3.6741	54.362
3.6715	54.356
3.6689	54.353
3.6663	54.350
3.6637	54.348
3.6611	54.343
3.6585	54.336
3.6560	54.333
3.6534	54.334
3.6508	54.337
3.6482	54.340
3.6457	54.341
3.6431	54.339
3.6406	54.332
3.6380	54.320
3.6355	54.311
3.6329	54.305
3.6304	54.299
3.6278	54.293
3.6253	54.288
3.6227	54.285
3.6202	54.281
3.6177	54.277
3.6152	54.275
3.6127	54.272
3.6101	54.265
3.6076	54.254
3.6051	54.239
3.6026	54.221
3.6001	54.200
3.5976	54.179
3.5951	54.162
3.5926	54.151
3.5901	54.142
3.5876	54.135
3.5852	54.133
3.5827	54.132
3.5802	54.128
3.5777	54.122
3.5753	54.114
3.5728	54.107
3.5704	54.097
3.5679	54.086
3.5654	54.079
3.5630	54.070
3.5605	54.055
3.5581	54.036
3.5557	54.018
3.5532	54.005
3.5508	53.995
3.5484	53.986
3.5459	53.978
3.5435	53.967
3.5411	53.948
3.5387	53.925
3.5363	53.900
3.5338	53.876
3.5314	53.853
3.5290	53.826
3.5266	53.790
3.5242	53.747
3.5218	53.699
3.5195	53.642
3.5171	53.576
3.5147	53.506
3.5123	53.433
3.5099	53.358
3.5075	53.285
3.5052	53.225
3.5028	53.185
3.5004	53.162
3.4981	53.155
3.4957	53.161
3.4934	53.174
3.4910	53.186
3.4887	53.193
3.4863	53.201
3.4840	53.207
3.4816	53.207
3.4793	53.204
3.4770	53.200
3.4746	53.196
3.4723	53.192
3.4700	53.190
3.4677	53.190
3.4653	53.186
3.4630	53.170
3.4607	53.146
3.4584	53.118
3.4561	53.085
3.4538	53.048
3.4515	53.007
3.4492	52.963
3.4469	52.917
3.4446	52.869
3.4423	52.826
3.4400	52.790
3.4378	52.753
3.4355	52.708
3.4332	52.647
3.4309	52.568
3.4287	52.474
3.4264	52.372
3.4241	52.272
3.4219	52.186
3.4196	52.117
3.4174	52.071
3.4151	52.053
3.4129	52.063
3.4106	52.095
3.4084	52.143
3.4061	52.201
3.4039	52.257
3.4017	52.302
3.3994	52.336
3.3972	52.364
3.3950	52.382
3.3928	52.392
3.3906	52.395
3.3883	52.392
3.3861	52.384
3.3839	52.369
3.3817	52.354
3.3795	52.344
3.3773	52.342
3.3751	52.350
3.3729	52.366
3.3707	52.388
3.3685	52.416
3.3663	52.446
3.3641	52.475
3.3620	52.504
3.3598	52.531
3.3576	52.552
3.3554	52.565
3.3533	52.570
3.3511	52.574
3.3489	52.582
3.3468	52.593
3.3446	52.608
3.3425	52.622
3.3403	52.632
3.3382	52.630
3.3360	52.618
3.3339	52.600
3.3317	52.580
3.3296	52.561
3.3274	52.541
3.3253	52.522
3.3232	52.506
3.3210	52.494
3.3189	52.483
3.3168	52.472
3.3147	52.463
3.3126	52.450
3.3104	52.429
3.3083	52.402
3.3062	52.375
3.3041	52.349
3.3020	52.322
3.2999	52.296
3.2978	52.272
3.2957	52.246
3.2936	52.220
3.2915	52.199
3.2894	52.187
3.2874	52.175
3.2853	52.160
3.2832	52.139
3.2811	52.110
3.2790	52.073
3.2770	52.030
3.2749	51.987
3.2728	51.950
3.2708	51.921
3.2687	51.901
3.2666	51.890
3.2646	51.883
3.2625	51.871
3.2605	51.850
3.2584	51.818
3.2564	51.779
3.2543	51.740
3.2523	51.703
3.2503	51.675
3.2482	51.652
3.2462	51.631
3.2442	51.612
3.2421	51.594
3.2401	51.576
3.2381	51.555
3.2361	51.529
3.2340	51.502
3.2320	51.470
3.2300	51.429
3.2280	51.385
3.2260	51.340
3.2240	51.298
3.2220	51.260
3.2200	51.231
3.2180	51.208
3.2160	51.187
3.2140	51.160
3.2120	51.127
3.2100	51.092
3.2080	51.060
3.2060	51.032
3.2041	51.011
3.2021	50.994
3.2001	50.975
3.1981	50.949
3.1961	50.913
3.1942	50.871
3.1922	50.826
3.1902	50.785
3.1883	50.753
3.1863	50.731
3.1844	50.714
3.1824	50.699
3.1805	50.679
3.1785	50.653
3.1766	50.624
3.1746	50.591
3.1727	50.558
3.1707	50.527
3.1688	50.493
3.1669	50.457
3.1649	50.418
3.1630	50.380
3.1611	50.345
3.1591	50.310
3.1572	50.282
3.1553	50.257
3.1534	50.233
3.1515	50.208
3.1495	50.176
3.1476	50.137
3.1457	50.093
3.1438	50.048
3.1419	50.010
3.1400	49.984
3.1381	49.968
3.1362	49.957
3.1343	49.943
3.1324	49.923
3.1305	49.896
3.1286	49.862
3.1268	49.823
3.1249	49.783
3.1230	49.745
3.1211	49.711
3.1192	49.684
3.1174	49.661
3.1155	49.640
3.1136	49.614
3.1117	49.581
3.1099	49.539
3.1080	49.496
3.1061	49.455
3.1043	49.416
3.1024	49.383
3.1006	49.354
3.0987	49.329
3.0969	49.306
3.0950	49.286
3.0932	49.273
3.0913	49.265
3.0895	49.255
3.0876	49.241
3.0858	49.219
3.0840	49.187
3.0821	49.145
3.0803	49.104
3.0785	49.068
3.0766	49.042
3.0748	49.028
3.0730	49.021
3.0712	49.010
3.0694	48.992
3.0675	48.966
3.0657	48.937
3.0639	48.903
3.0621	48.874
3.0603	48.851
3.0585	48.832
3.0567	48.813
3.0549	48.795
3.0531	48.778
3.0513	48.767
3.0495	48.754
3.0477	48.737
3.0459	48.713
3.0441	48.683
3.0423	48.653
3.0406	48.626
3.0388	48.608
3.0370	48.601
3.0352	48.597
3.0334	48.585
3.0317	48.563
3.0299	48.533
3.0281	48.496
3.0264	48.461
3.0246	48.431
3.0228	48.407
3.0211	48.385
3.0193	48.359
3.0176	48.324
3.0158	48.281
3.0140	48.235
3.0123	48.195
3.0105	48.162
3.0088	48.141
3.0070	48.129
3.0053	48.120
3.0036	48.104
3.0018	48.077
3.0001	48.041
2.9984	48.001
2.9966	47.961
2.9949	47.927
2.9932	47.899
2.9914	47.875
2.9897	47.851
2.9880	47.821
2.9863	47.785
2.9845	47.748
2.9828	47.720
2.9811	47.704
2.9794	47.697
2.9777	47.694
2.9760	47.692
2.9743	47.680
2.9726	47.652
2.9709	47.612
2.9692	47.570
2.9675	47.530
2.9658	47.491
2.9641	47.457
2.9624	47.431
2.9607	47.412
2.9590	47.392
2.9573	47.371
2.9556	47.351
2.9539	47.329
2.9523	47.306
2.9506	47.284
2.9489	47.268
2.9472	47.254
2.9455	47.242
2.9439	47.227
2.9422	47.206
2.9405	47.178
2.9389	47.148
2.9372	47.121
2.9355	47.101
2.9339	47.090
2.9322	47.094
2.9306	47.103
2.9289	47.109
2.9272	47.108
2.9256	47.098
2.9239	47.083
2.9223	47.067
2.9207	47.051
2.9190	47.041
2.9174	47.034
2.9157	47.026
2.9141	47.014
2.9124	47.000
2.9108	46.988
2.9092	46.979
2.9075	46.966
2.9059	46.951
2.9043	46.935
2.9027	46.918
2.9010	46.905
2.8994	46.898
2.8978	46.899
2.8962	46.900
2.8946	46.892
2.8929	46.874
2.8913	46.855
2.8897	46.842
2.8881	46.836
2.8865	46.840
2.8849	46.853
2.8833	46.867
2.8817	46.872
2.8801	46.868
2.8785	46.860
2.8769	46.846
2.8753	46.825
2.8737	46.804
2.8721	46.791
2.8705	46.784
2.8689	46.785
2.8673	46.793
2.8658	46.805
2.8642	46.814
2.8626	46.819
2.8610	46.825
2.8594	46.831
2.8579	46.831
2.8563	46.829
2.8547	46.827
2.8531	46.824
2.8516	46.819
2.8500	46.819
2.8484	46.830
2.8469	46.847
2.8453	46.859
2.8437	46.871
2.8422	46.885
2.8406	46.901
2.8391	46.913
2.8375	46.922
2.8360	46.933
2.8344	46.944
2.8329	46.948
2.8313	46.950
2.8298	46.957
2.8282	46.969
2.8267	46.978
2.8252	46.980
2.8236	46.980
2.8221	46.984
2.8205	46.991
2.8190	47.008
2.8175	47.040
2.8159	47.085
2.8144	47.131
2.8129	47.170
2.8114	47.201
2.8098	47.230
2.8083	47.256
2.8068	47.285
2.8053	47.317
2.8038	47.344
2.8022	47.365
2.8007	47.378
2.7992	47.387
2.7977	47.399
2.7962	47.419
2.7947	47.445
2.7932	47.475
2.7917	47.507
2.7902	47.545
2.7887	47.586
2.7872	47.629
2.7857	47.675
2.7842	47.718
2.7827	47.755
2.7812	47.792
2.7797	47.833
2.7782	47.886
2.7767	47.953
2.7752	48.027
2.7738	48.103
2.7723	48.173
2.7708	48.237
2.7693	48.301
2.7678	48.370
2.7664	48.452
2.7649	48.545
2.7634	48.636
2.7619	48.719
2.7605	48.797
2.7590	48.877
2.7575	48.968
2.7561	49.078
2.7546	49.209
2.7531	49.349
2.7517	49.484
2.7502	49.614
2.7488	49.748
2.7473	49.887
2.7458	50.034
2.7444	50.190
2.7429	50.354
2.7415	50.518
2.7400	50.681
2.7386	50.849
2.7371	51.026
2.7357	51.205
2.7343	51.382
2.7328	51.556
2.7314	51.726
2.7299	51.895
2.7285	52.064
2.7271	52.232
2.7256	52.394
2.7242	52.541
2.7228	52.675
2.7213	52.802
2.7199	52.930
2.7185	53.066
2.7171	53.206
2.7156	53.340
2.7142	53.459
2.7128	53.560
2.7114	53.646
2.7100	53.725
2.7085	53.803
2.7071	53.886
2.7057	53.973
2.7043	54.060
2.7029	54.142
2.7015	54.221
2.7001	54.292
2.6987	54.357
2.6973	54.415
2.6959	54.467
2.6945	54.514
2.6931	54.555
2.6917	54.593
2.6903	54.626
2.6889	54.652
2.6875	54.673
2.6861	54.690
2.6847	54.697
2.6833	54.697
2.6819	54.696
2.6805	54.698
2.6791	54.703
2.6778	54.712
2.6764	54.727
2.6750	54.743
2.6736	54.757
2.6722	54.764
2.6709	54.764
2.6695	54.759
2.6681	54.750
2.6667	54.734
2.6654	54.717
2.6640	54.706
2.6626	54.705
2.6613	54.709
2.6599	54.708
2.6585	54.699
2.6572	54.680
2.6558	54.652
2.6545	54.622
2.6531	54.603
2.6517	54.598
2.6504	54.597
2.6490	54.590
2.6477	54.572
2.6463	54.548
2.6450	54.521
2.6436	54.500
2.6423	54.488
2.6409	54.478
2.6396	54.458
2.6382	54.420
2.6369	54.373
2.6356	54.326
2.6342	54.283
2.6329	54.251
2.6315	54.228
2.6302	54.208
2.6289	54.188
2.6275	54.164
2.6262	54.143
2.6249	54.122
2.6236	54.096
2.6222	54.066
2.6209	54.028
2.6196	53.986
2.6183	53.946
2.6169	53.911
2.6156	53.886
2.6143	53.865
2.6130	53.841
2.6117	53.814
2.6103	53.778
2.6090	53.730
2.6077	53.676
2.6064	53.623
2.6051	53.577
2.6038	53.544
2.6025	53.523
2.6012	53.509
2.5999	53.492
2.5986	53.465
2.5973	53.429
2.5960	53.388
2.5947	53.348
2.5934	53.319
2.5921	53.303
2.5908	53.292
2.5895	53.278
2.5882	53.258
2.5869	53.231
2.5856	53.189
2.5843	53.137
2.5830	53.088
2.5817	53.043
2.5805	53.003
2.5792	52.969
2.5779	52.944
2.5766	52.924
2.5753	52.899
2.5741	52.870
2.5728	52.839
2.5715	52.800
2.5702	52.756
2.5690	52.710
2.5677	52.664
2.5664	52.616
2.5651	52.570
2.5639	52.533
2.5626	52.504
2.5613	52.482
2.5601	52.468
2.5588	52.450
2.5575	52.422
2.5563	52.385
2.5550	52.344
2.5538	52.301
2.5525	52.263
2.5513	52.232
2.5500	52.203
2.5487	52.167
2.5475	52.126
2.5462	52.085
2.5450	52.041
2.5437	51.996
2.5425	51.954
2.5413	51.916
2.5400	51.877
2.5388	51.837
2.5375	51.800
2.5363	51.767
2.5350	51.731
2.5338	51.690
2.5326	51.648
2.5313	51.609
2.5301	51.570
2.5289	51.534
2.5276	51.507
2.5264	51.488
2.5252	51.467
2.5239	51.443
2.5227	51.415
2.5215	51.380
2.5202	51.333
2.5190	51.275
2.5178	51.219
2.5166	51.165
2.5154	51.117
2.5141	51.081
2.5129	51.055
2.5117	51.033
2.5105	51.010
2.5093	50.984
2.5081	50.960
2.5068	50.934
2.5056	50.905
2.5044	50.878
2.5032	50.849
2.5020	50.814
2.5008	50.779
2.4996	50.741
2.4984	50.702
2.4972	50.664
2.4960	50.624
2.4948	50.591
2.4936	50.563
2.4924	50.538
2.4912	50.518
2.4900	50.497
2.4888	50.468
2.4876	50.432
2.4864	50.388
2.4852	50.341
2.4840	50.297
2.4828	50.254
2.4816	50.215
2.4805	50.179
2.4793	50.141
2.4781	50.102
2.4769	50.066
2.4757	50.034
2.4745	50.002
2.4734	49.964
2.4722	49.922
2.4710	49.878
2.4698	49.837
2.4686	49.806
2.4675	49.787
2.4663	49.777
2.4651	49.769
2.4640	49.753
2.4628	49.728
2.4616	49.694
2.4604	49.657
2.4593	49.623
2.4581	49.597
2.4569	49.575
2.4558	49.554
2.4546	49.528
2.4535	49.492
2.4523	49.450
2.4511	49.407
2.4500	49.366
2.4488	49.331
2.4477	49.296
2.4465	49.261
2.4454	49.225
2.4442	49.188
2.4431	49.153
2.4419	49.121
2.4408	49.093
2.4396	49.065
2.4385	49.032
2.4373	49.002
2.4362	48.978
2.4350	48.957
2.4339	48.936
2.4327	48.917
2.4316	48.900
2.4305	48.876
2.4293	48.848
2.4282	48.828
2.4270	48.817
2.4259	48.799
2.4248	48.771
2.4236	48.738
2.4225	48.702
2.4214	48.656
2.4202	48.611
2.4191	48.586
2.4180	48.571
2.4169	48.554
2.4157	48.535
2.4146	48.520
2.4135	48.505
2.4124	48.485
2.4112	48.463
2.4101	48.441
2.4090	48.410
2.4079	48.371
2.4068	48.333
2.4056	48.300
2.4045	48.275
2.4034	48.257
2.4023	48.243
2.4012	48.229
2.4001	48.211
2.3990	48.195
2.3979	48.180
2.3967	48.164
2.3956	48.149
2.3945	48.133
2.3934	48.112
2.3923	48.086
2.3912	48.055
2.3901	48.027
2.3890	48.007
2.3879	47.996
2.3868	47.987
2.3857	47.973
2.3846	47.951
2.3835	47.916
2.3824	47.876
2.3813	47.842
2.3802	47.825
2.3791	47.823
2.3781	47.822
2.3770	47.817
2.3759	47.804
2.3748	47.779
2.3737	47.752
2.3726	47.731
2.3715	47.721
2.3704	47.720
2.3694	47.723
2.3683	47.727
2.3672	47.726
2.3661	47.715
2.3650	47.694
2.3640	47.663
2.3629	47.623
2.3618	47.582
2.3607	47.542
2.3597	47.509
2.3586	47.488
2.3575	47.479
2.3564	47.482
2.3554	47.493
2.3543	47.508
2.3532	47.520
2.3522	47.520
2.3511	47.507
2.3500	47.484
2.3490	47.458
2.3479	47.440
2.3468	47.438
2.3458	47.448
2.3447	47.460
2.3436	47.462
2.3426	47.448
2.3415	47.423
2.3405	47.397
2.3394	47.381
2.3384	47.376
2.3373	47.379
2.3363	47.382
2.3352	47.378
2.3342	47.365
2.3331	47.350
2.3321	47.336
2.3310	47.323
2.3300	47.311
2.3289	47.298
2.3279	47.287
2.3268	47.279
2.3258	47.277
2.3247	47.279
2.3237	47.275
2.3226	47.262
2.3216	47.241
2.3206	47.208
2.3195	47.169
2.3185	47.136
2.3175	47.117
2.3164	47.111
2.3154	47.111
2.3144	47.120
2.3133	47.131
2.3123	47.133
2.3113	47.129
2.3102	47.129
2.3092	47.136
2.3082	47.146
2.3071	47.158
2.3061	47.164
2.3051	47.152
2.3041	47.120
2.3030	47.082
2.3020	47.045
2.3010	47.014
2.3000	46.999
2.2990	47.001
2.2979	47.010
2.2969	47.016
2.2959	47.015
2.2949	47.008
2.2939	46.993
2.2929	46.978
2.2918	46.972
2.2908	46.976
2.2898	46.984
2.2888	46.986
2.2878	46.971
2.2868	46.938
2.2858	46.900
2.2848	46.871
2.2838	46.864
2.2828	46.880
2.2818	46.909
2.2808	46.936
2.2798	46.944
2.2787	46.931
2.2777	46.909
2.2767	46.891
2.2757	46.877
2.2747	46.871
2.2738	46.875
2.2728	46.887
2.2718	46.895
2.2708	46.903
2.2698	46.919
2.2688	46.937
2.2678	46.940
2.2668	46.929
2.2658	46.914
2.2648	46.895
2.2638	46.874
2.2628	46.869
2.2618	46.884
2.2609	46.905
2.2599	46.918
2.2589	46.923
2.2579	46.924
2.2569	46.923
2.2559	46.925
2.2550	46.933
2.2540	46.940
2.2530	46.931
2.2520	46.907
2.2510	46.880
2.2501	46.862
2.2491	46.861
2.2481	46.882
2.2471	46.914
2.2462	46.940
2.2452	46.946
2.2442	46.936
2.2433	46.918
2.2423	46.896
2.2413	46.879
2.2403	46.877
2.2394	46.885
2.2384	46.893
2.2374	46.900
2.2365	46.906
2.2355	46.913
2.2345	46.917
2.2336	46.923
2.2326	46.934
2.2317	46.947
2.2307	46.960
2.2297	46.976
2.2288	46.990
2.2278	46.998
2.2269	46.994
2.2259	46.981
2.2250	46.963
2.2240	46.951
2.2231	46.950
2.2221	46.961
2.2211	46.977
2.2202	46.990
2.2192	46.993
2.2183	46.989
2.2173	46.983
2.2164	46.982
2.2155	46.985
2.2145	46.989
2.2136	46.995
2.2126	47.000
2.2117	47.003
2.2107	47.006
2.2098	47.008
2.2088	47.008
2.2079	47.006
2.2070	47.008
2.2060	47.013
2.2051	47.026
2.2041	47.042
2.2032	47.062
2.2023	47.079
2.2013	47.091
2.2004	47.102
2.1995	47.111
2.1985	47.119
2.1976	47.126
2.1967	47.132
2.1957	47.137
2.1948	47.139
2.1939	47.140
2.1930	47.143
2.1920	47.140
2.1911	47.131
2.1902	47.122
2.1893	47.120
2.1883	47.132
2.1874	47.153
2.1865	47.185
2.1856	47.219
2.1846	47.240
2.1837	47.243
2.1828	47.230
2.1819	47.213
2.1810	47.205
2.1800	47.215
2.1791	47.240
2.1782	47.272
2.1773	47.296
2.1764	47.297
2.1755	47.274
2.1746	47.238
2.1736	47.210
2.1727	47.206
2.1718	47.226
2.1709	47.260
2.1700	47.298
2.1691	47.327
2.1682	47.342
2.1673	47.345
2.1664	47.343
2.1655	47.344
2.1646	47.350
2.1637	47.357
2.1628	47.370
2.1619	47.383
2.1610	47.390
2.1601	47.386
2.1592	47.373
2.1583	47.355
2.1574	47.342
2.1565	47.337
2.1556	47.346
2.1547	47.368
2.1538	47.398
2.1529	47.429
2.1520	47.457
2.1511	47.485
2.1502	47.514
2.1493	47.534
2.1484	47.544
2.1475	47.546
2.1466	47.540
2.1458	47.524
2.1449	47.504
2.1440	47.488
2.1431	47.482
2.1422	47.483
2.1413	47.488
2.1404	47.498
2.1396	47.517
2.1387	47.544
2.1378	47.577
2.1369	47.604
2.1360	47.624
2.1352	47.635
2.1343	47.640
2.1334	47.640
2.1325	47.646
2.1316	47.662
2.1308	47.681
2.1299	47.691
2.1290	47.689
2.1281	47.685
2.1273	47.687
2.1264	47.694
2.1255	47.706
2.1247	47.720
2.1238	47.729
2.1229	47.731
2.1220	47.723
2.1212	47.716
2.1203	47.716
2.1194	47.721
2.1186	47.727
2.1177	47.733
2.1168	47.742
2.1160	47.761
2.1151	47.784
2.1143	47.808
2.1134	47.828
2.1125	47.836
2.1117	47.835
2.1108	47.833
2.1100	47.835
2.1091	47.850
2.1082	47.876
2.1074	47.904
2.1065	47.924
2.1057	47.932
2.1048	47.939
2.1040	47.950
2.1031	47.961
2.1023	47.975
2.1014	47.994
2.1005	48.015
2.0997	48.030
2.0988	48.040
2.0980	48.055
2.0971	48.072
2.0963	48.085
2.0955	48.091
2.0946	48.098
2.0938	48.101
2.0929	48.093
2.0921	48.081
2.0912	48.072
2.0904	48.069
2.0895	48.071
2.0887	48.081
2.0879	48.104
2.0870	48.130
2.0862	48.148
2.0853	48.162
2.0845	48.169
2.0837	48.162
2.0828	48.159
2.0820	48.147
2.0812	48.130
2.0803	48.184
2.0795	48.149
2.0760	48.149
2.0720	48.206
2.0680	48.071
2.0640	48.071
2.0600	47.879
2.0560	48.167
2.0520	48.187
2.0480	48.072
2.0440	47.939
2.0400	47.958
2.0360	47.978
2.0320	47.653
2.0280	47.691
2.0240	47.557
2.0200	47.542
2.0160	47.542
2.0120	47.123
2.0080	47.255
2.0040	47.278
2.0000	47.123
1.9960	46.933
1.9920	47.123
1.9880	47.087
1.9840	46.771
1.9800	46.658
1.9760	46.657
1.9720	46.670
1.9680	46.634
1.9640	46.521
1.9600	46.521
1.9560	46.670
1.9520	46.837
1.9480	46.796
1.9440	46.791
1.9400	46.709
1.9360	46.578
1.9320	46.362
1.9280	46.243
1.9240	45.978
1.9200	45.845
1.9160	45.786
1.9120	45.786
1.9080	46.020
1.9040	46.079
1.9000	46.264
1.8960	46.432
1.8920	46.524
1.8880	46.790
1.8840	46.621
1.8800	46.695
1.8760	46.439
1.8720	46.098
1.8680	46.074
1.8640	46.288
1.8600	46.711
1.8560	46.878
1.8520	46.790
1.8480	46.506
1.8440	46.295
1.8400	46.063
1.8360	46.063
1.8320	46.166
1.8280	46.750
1.8240	46.775
1.8200	46.817
1.8160	46.765
1.8120	46.753
1.8080	46.620
1.8040	46.748
1.8000	46.654
1.7960	46.839
1.7920	46.706
1.7880	46.748
1.7840	46.765
1.7800	46.586
1.7760	46.278
1.7720	46.295
1.7680	46.295
1.7640	46.363
1.7600	46.286
1.7560	46.363
1.7520	46.569
1.7480	46.586
1.7440	46.629
1.7400	46.663
1.7360	46.733
1.7320	46.656
1.7280	46.467
1.7240	46.656
1.7200	46.750
1.7160	46.904
1.7120	46.852
1.7080	46.761
1.7040	46.765
1.7000	46.842
1.6960	46.842
1.6920	46.731
1.6880	46.671
1.6840	46.731
1.6800	46.714
1.6760	46.748
1.6720	46.765
1.6680	46.860
1.6640	46.748
1.6600	46.731
1.6560	46.675
1.6520	46.572
1.6480	46.478
1.6440	46.495
1.6400	46.538
1.6360	46.586
1.6320	46.521
1.6280	46.478
1.6240	46.611
1.6200	46.195
1.6160	46.067
1.6120	46.222
1.6080	46.067
1.6040	46.109
1.6000	46.204
1.5960	46.152
1.5920	45.852
1.5880	45.768
1.5840	45.701
1.5800	45.668
1.5760	45.657
1.5720	45.607
1.5680	45.607
1.5640	45.391
1.5600	45.358
1.5560	45.292
1.5520	44.966
1.5480	45.031
1.5440	44.937
1.5400	45.015
1.5360	44.966
1.5320	44.966
1.5280	44.937
1.5240	44.937
1.5200	44.921
1.5160	44.811
1.5120	44.480
1.5080	44.292
1.5040	43.980
1.5000	43.637
1.4960	43.259
1.4920	43.243
1.4880	43.212
1.4840	43.228
1.4800	43.111
1.4760	43.149
1.4720	42.962
1.4680	42.814
1.4640	42.799
1.4600	42.674
1.4560	42.345
1.4520	42.436
1.4480	42.357
1.4440	42.230
1.4400	41.899
1.4360	41.850
1.4320	41.661
1.4280	41.482
1.4240	41.561
1.4200	41.452
1.4160	41.198
1.4120	40.845
1.4080	40.496
1.4040	40.044
1.4000	40.037
1.3960	39.898
1.3920	39.477
1.3880	39.330
1.3840	39.454
1.3800	39.037
1.3760	39.089
1.3720	39.660
1.3680	39.362
1.3640	38.747
1.3600	38.452
1.3560	38.547
1.3520	38.811
1.3480	38.848
1.3440	38.807
1.3400	38.421
1.3360	38.274
1.3320	37.967
1.3280	37.860
1.3240	37.793
1.3200	37.778
1.3160	37.549
1.3120	37.204
1.3080	36.866
1.3040	36.597
1.3000	36.516
1.2960	36.528
1.2920	36.472
1.2880	36.133
1.2840	36.008
1.2800	35.585
1.2760	35.409
1.2720	35.567
1.2680	35.503
1.2640	35.132
1.2600	35.025
1.2560	34.849
1.2520	34.644
1.2480	34.504
1.2440	34.528
1.2400	34.672
1.2360	34.631
1.2320	34.451
1.2280	34.385
1.2240	34.137
1.2200	33.943
1.2160	33.979
1.2120	33.753
1.2080	33.506
1.2040	33.483
1.2000	33.378
1.1960	33.249
1.1920	33.199
1.1880	32.988
1.1840	32.966
1.1800	32.877
1.1760	32.756
1.1720	32.767
1.1680	32.502
1.1640	32.440
1.1600	32.086
1.1560	31.940
1.1520	31.584
1.1480	31.113
1.1440	31.084
1.1400	31.252
1.1360	31.030
1.1320	30.778
1.1280	30.599
1.1240	30.234
1.1200	29.688
1.1160	29.658
1.1120	29.460
1.1080	29.147
1.1040	28.874
1.1000	28.420
1.0960	28.393
1.0920	28.119
1.0880	27.912
1.0840	27.741
1.0800	27.419
1.0760	27.127
1.0720	26.921
1.0680	26.844
1.0640	26.596
1.0600	26.330
1.0560	26.142
1.0520	26.072
1.0480	25.687
1.0440	25.389
1.0400	25.349
1.0360	25.381
1.0320	25.224
1.0280	25.342
1.0240	25.469
1.0200	25.318
1.0160	25.326
1.0120	25.216
1.0080	25.224
1.0040	25.177
1.0000	25.325
0.9960	25.325
0.9920	25.349
0.9880	25.663
0.9840	25.695
0.9800	25.798
0.9760	25.735
0.9720	25.890
0.9680	25.915
0.9640	26.206
0.9600	26.369
0.9560	26.497
0.9520	26.772
0.9480	26.960
0.9440	26.960
0.9400	27.350
0.9360	27.556
0.9320	27.811
0.9280	27.869
0.9240	28.264
0.9200	28.452
0.9160	28.734
0.9120	28.734
0.9080	29.103
0.9040	29.120
0.9000	29.337
0.8960	29.460
0.8920	29.554
0.8880	29.678
0.8840	29.951
0.8800	30.217
0.8760	30.312
0.8720	30.228
0.8680	30.510
0.8640	30.625
0.8600	30.688
0.8560	30.866
0.8520	30.866
0.8480	31.161
0.8440	31.328
0.8400	31.391
0.8360	31.412
0.8320	31.652
0.8280	31.757
0.8240	31.830
0.8200	32.008
0.8160	32.059
0.8120	32.203
0.8080	32.463
0.8040	32.607
0.8000	32.635
0.7990	32.635
0.7980	32.635
0.7970	32.238
0.7960	32.296
0.7950	32.538
0.7940	32.635
0.7930	32.763
0.7920	32.891
0.7910	32.649
0.7900	32.717
0.7890	32.831
0.7880	33.155
0.7870	32.815
0.7860	32.876
0.7850	33.072
0.7840	33.042
0.7830	33.118
0.7820	32.876
0.7810	32.968
0.7800	32.968
0.7790	33.133
0.7780	33.252
0.7770	33.185
0.7760	33.139
0.7750	33.252
0.7740	33.268
0.7730	32.892
0.7720	33.231
0.7710	33.118
0.7700	33.277
0.7690	33.308
0.7680	33.324
0.7670	33.277
0.7660	33.406
0.7650	33.442
0.7640	33.451
0.7630	33.504
0.7620	33.375
0.7610	33.262
0.7600	33.262
0.7590	33.375
0.7580	33.416
0.7570	33.339
0.7560	33.277
0.7550	33.458
0.7540	33.298
0.7530	33.308
0.7520	33.437
0.7510	33.406
0.7500	33.474
0.7490	33.467
0.7480	33.344
0.7470	33.329
0.7460	33.360
0.7450	33.422
0.7440	33.339
0.7430	33.432
0.7420	33.473
0.7410	33.514
0.7400	33.453
0.7390	33.612
0.7380	33.360
0.7370	33.453
0.7360	33.676
0.7350	33.437
0.7340	33.339
0.7330	33.246
0.7320	33.344
0.7310	33.451
0.7300	33.499
0.7290	33.406
0.7280	33.628
0.7270	33.624
0.7260	33.676
0.7250	33.551
0.7240	33.628
0.7230	33.578
0.7220	33.546
0.7210	33.546
0.7200	33.499
0.7190	33.354
0.7180	33.415
0.7170	33.226
0.7160	33.256
0.7150	33.318
0.7140	33.029
0.7130	33.257
0.7120	33.400
0.7110	33.381
0.7100	33.319
0.7090	33.241
0.7080	33.226
0.7070	33.478
0.7060	33.432
0.7050	33.479
0.7040	33.349
0.7030	33.232
0.7020	33.294
0.7010	33.325
0.7000	33.310
0.6990	33.181
0.6980	32.756
0.6970	32.759
0.6960	32.909
0.6950	33.171
0.6940	33.370
0.6930	33.370
0.6920	33.453
0.6910	33.353
0.6900	33.055
0.6890	33.055
0.6880	32.921
0.6870	32.807
0.6860	33.004
0.6850	32.955
0.6840	32.990
0.6830	33.089
0.6820	33.171
0.6810	33.304
0.6800	33.171
0.6790	33.138
0.6780	33.337
0.6770	33.353
0.6760	33.088
0.6750	33.104
0.6740	33.220
0.6730	33.270
0.6720	33.153
0.6710	33.004
0.6700	32.988
0.6690	32.639
0.6680	32.856
0.6670	32.988
0.6660	32.905
0.6650	32.872
0.6640	32.937
0.6630	32.920
0.6620	32.987
0.6610	33.087
0.6600	33.137
0.6590	33.004
0.6580	33.104
0.6570	33.004
0.6560	32.856
0.6550	32.954
0.6540	32.854
0.6530	32.756
0.6520	32.920
0.6510	32.920
0.6500	33.036
0.6490	33.037
0.6480	32.606
0.6470	32.555
0.6460	32.671
0.6450	32.821
0.6440	32.871
0.6430	32.555
0.6420	32.507
0.6410	32.588
0.6400	32.488
0.6390	32.537
0.6380	32.620
0.6370	32.555
0.6360	32.688
0.6350	32.472
0.6340	32.456
0.6330	32.456
0.6320	32.173
0.6310	32.141
0.6300	32.372
0.6290	32.187
0.6280	32.388
0.6270	32.537
0.6260	32.670
0.6250	32.670
0.6240	32.637
0.6230	32.553
0.6220	32.670
0.6210	32.653
0.6200	32.653
0.6190	32.620
0.6180	32.719
0.6170	32.486
0.6160	32.570
0.6150	32.637
0.6140	32.753
0.6130	32.521
0.6120	32.221
0.6110	32.253
0.6100	32.270
0.6090	32.335
0.6080	32.286
0.6070	32.270
0.6060	32.286
0.6050	32.286
0.6040	32.218
0.6030	32.134
0.6020	32.134
0.6010	31.934
0.6000	31.714
0.5990	31.630
0.5980	31.360
0.5970	31.191
0.5960	32.097
0.5950	32.231
0.5940	32.147
0.5930	32.231
0.5920	31.978
0.5910	31.776
0.5900	31.776
0.5890	31.793
0.5880	31.877
0.5870	31.776
0.5860	31.692
0.5850	31.845
0.5840	31.776
0.5830	31.809
0.5820	31.626
0.5810	31.695
0.5800	31.529
0.5790	31.344
0.5780	31.831
0.5770	32.048
0.5760	32.097
0.5750	32.097
0.5740	32.149
0.5730	32.218
0.5720	32.537
0.5710	32.437
0.5700	32.421
0.5690	32.221
0.5680	32.372
0.5670	32.270
0.5660	32.335
0.5650	32.284
0.5640	32.236
0.5630	32.335
0.5620	32.351
0.5610	32.267
0.5600	32.132
0.5590	32.064
0.5580	30.926
0.5570	31.252
0.5560	31.012
0.5550	30.914
0.5540	30.966
0.5530	30.949
0.5520	30.912
0.5510	30.843
0.5500	30.683
0.5490	30.596
0.5480	30.586
0.5470	30.347
0.5460	30.362
0.5450	30.545
0.5440	30.802
0.5430	30.703
0.5420	30.556
0.5410	30.451
0.5400	30.146
0.5390	30.190
0.5380	30.481
0.5370	30.194
0.5360	30.209
0.5350	30.183
0.5340	30.150
0.5330	29.952
0.5320	29.959
0.5310	30.102
0.5300	30.017
0.5290	29.782
0.5280	29.720
0.5270	29.648
0.5260	29.845
0.5250	29.918
0.5240	29.739
0.5230	29.864
0.5220	29.872
0.5210	29.576
0.5200	29.426
0.5190	29.384
0.5180	29.384
0.5170	29.238
0.5160	29.266
0.5150	28.997
0.5140	28.828
0.5130	28.955
0.5120	28.969
0.5110	29.003
0.5100	28.814
0.5090	28.743
0.5080	28.436
0.5070	28.378
0.5060	28.221
0.5050	28.361
0.5040	28.347
0.5030	28.433
0.5020	28.252
0.5010	28.159
0.5000	27.923
0.4990	27.824
0.4980	27.771
0.4970	27.784
0.4960	27.659
0.4950	27.512
0.4940	27.237
0.4930	27.112
0.4920	27.151
0.4910	27.151
0.4900	27.043
0.4890	27.081
0.4880	27.142
0.4870	27.030
0.4860	26.935
0.4850	26.982
0.4840	26.686
0.4830	26.935
0.4820	26.673
0.4810	26.686
0.4800	26.452
0.4790	26.488
0.4780	26.391
0.4770	26.279
0.4760	26.378
0.4750	26.183
0.4740	26.195
0.4730	25.861
0.4720	25.837
0.4710	25.837
0.4700	25.738
0.4690	25.639
0.4680	25.465
0.4670	25.453
0.4660	25.603
0.4650	25.615
0.4640	25.368
0.4630	25.294
0.4620	25.160
0.4610	25.061
0.4600	25.025
0.4590	25.869
0.4580	25.652
0.4570	25.534
0.4560	25.346
0.4550	25.358
0.4540	25.296
0.4530	25.308
0.4520	25.354
0.4510	25.254
0.4500	25.138
0.4490	24.930
0.4480	25.076
0.4470	25.037
0.4460	24.970
0.4450	25.104
0.4440	25.098
0.4430	25.110
0.4420	24.796
0.4410	24.930
0.4400	24.869
0.4390	24.807
0.4380	24.841
0.4370	24.643
0.4360	24.643
0.4350	24.587
0.4340	24.603
0.4330	24.581
0.4320	24.827
0.4310	24.535
0.4300	24.595
0.4290	24.450
0.4280	24.347
0.4270	24.411
0.4260	24.368
0.4250	24.248
0.4240	23.892
0.4230	23.975
0.4220	23.852
0.4210	23.800
0.4200	23.821
0.4190	23.616
0.4180	23.769
0.4170	23.707
0.4160	23.637
0.4150	23.554
0.4140	23.535
0.4130	23.574
0.4120	23.463
0.4110	23.314
0.4100	23.282
0.4090	23.182
0.4080	22.981
0.4070	22.967
0.4060	22.793
0.4050	22.673
0.4040	22.701
0.4030	22.490
0.4020	22.306
0.4010	22.171
0.4000	21.895
