Name: Syenite Gneiss 
Type:  Rocks
Class: Metamorphic 
Subclass: Gneiss 
Particle Size:  0-75 Micrometer
Sample No.: gneiss4.doc
Owner:  JHU
Wavelength Range:  All
Origin:  Sample No. 467, The Hunt and Salisbury Collection at the U.S. 
Geological Survey, Denver, Co.
Description: This sample probably represents a metamorphosed zircon syenite.  
It is a coarse-grained sample showing granulation along most grain boundaries.  
There are  abundant anhedra of nepheline and microperthitic feldspar, an 
amphibole (either hornblende or a sodic phase), abundant magnetite and 
numerous grains of zircon.  Cancrinite occurs aroundfeldspars scattered 
throughout the section.  
Measurement:  Directional (10 Degree) Hemispherical Reflectance
First Column:  X
Second Column:  Y  
X Units:  Wavelength (micrometers)
Y Units:  Reflectance (percent)
First X Value: 14.9831
Last X Value:  0.4
Number of X Values: 2868
Additional Information:  None

14.983	2.2377
14.940	2.3563
14.897	2.4866
14.854	2.5934
14.812	2.6637
14.770	2.7177
14.728	2.7788
14.686	2.8598
14.645	2.9640
14.603	3.0796
14.562	3.1845
14.521	3.2576
14.481	3.2953
14.441	3.3069
14.400	3.2981
14.361	3.2718
14.321	3.2311
14.281	3.1750
14.242	3.1013
14.203	3.0121
14.164	2.9131
14.126	2.8089
14.087	2.6995
14.049	2.5858
14.011	2.4683
13.973	2.3471
13.936	2.2230
13.899	2.1001
13.861	1.9848
13.824	1.8855
13.788	1.8126
13.751	1.7759
13.715	1.7775
13.679	1.8114
13.643	1.8647
13.607	1.9201
13.571	1.9620
13.536	1.9798
13.500	1.9724
13.465	1.9471
13.430	1.9151
13.396	1.8905
13.361	1.8846
13.327	1.9033
13.293	1.9443
13.259	1.9987
13.225	2.0530
13.191	2.0937
13.158	2.1124
13.124	2.1086
13.091	2.0901
13.058	2.0719
13.026	2.0700
12.993	2.0968
12.960	2.1553
12.928	2.2386
12.896	2.3322
12.864	2.4167
12.832	2.4738
12.800	2.4934
12.769	2.4769
12.737	2.4378
12.706	2.3999
12.675	2.3940
12.644	2.4520
12.614	2.5991
12.583	2.8482
12.552	3.2001
12.522	3.6434
12.492	4.1559
12.462	4.7100
12.432	5.2782
12.402	5.8356
12.373	6.3647
12.343	6.8544
12.314	7.3020
12.285	7.7105
12.256	8.0844
12.227	8.4278
12.198	8.7411
12.169	9.0229
12.141	9.2704
12.113	9.4821
12.084	9.6592
12.056	9.8054
12.028	9.9252
12.000	10.022
11.973	10.099
11.945	10.158
11.918	10.200
11.890	10.230
11.863	10.246
11.836	10.248
11.809	10.231
11.782	10.192
11.755	10.129
11.729	10.050
11.702	9.9647
11.676	9.8887
11.650	9.8314
11.624	9.7942
11.598	9.7715
11.572	9.7518
11.546	9.7244
11.520	9.6832
11.495	9.6292
11.469	9.5693
11.444	9.5105
11.419	9.4570
11.394	9.4085
11.369	9.3604
11.344	9.3066
11.319	9.2401
11.294	9.1565
11.270	9.0535
11.245	8.9306
11.221	8.7871
11.197	8.6241
11.173	8.4449
11.149	8.2542
11.125	8.0581
11.101	7.8628
11.077	7.6738
11.054	7.4938
11.030	7.3223
11.007	7.1582
10.983	6.9998
10.960	6.8463
10.937	6.6976
10.914	6.5541
10.891	6.4172
10.868	6.2870
10.846	6.1629
10.823	6.0440
10.800	5.9292
10.778	5.8179
10.755	5.7084
10.733	5.6007
10.711	5.4946
10.689	5.3892
10.667	5.2843
10.645	5.1789
10.623	5.0724
10.602	4.9651
10.580	4.8592
10.558	4.7588
10.537	4.6676
10.516	4.5888
10.494	4.5258
10.473	4.4803
10.452	4.4519
10.431	4.4405
10.410	4.4460
10.389	4.4690
10.368	4.5106
10.348	4.5717
10.327	4.6527
10.306	4.7534
10.286	4.8699
10.266	4.9961
10.245	5.1247
10.225	5.2485
10.205	5.3615
10.185	5.4596
10.165	5.5394
10.145	5.5993
10.125	5.6355
10.106	5.6464
10.086	5.6343
10.066	5.6090
10.047	5.5862
10.027	5.5862
10.008	5.6256
9.9887	5.7108
9.9695	5.8330
9.9504	5.9694
9.9313	6.0897
9.9123	6.1643
9.8934	6.1745
9.8746	6.1170
9.8558	6.0047
9.8371	5.8626
9.8185	5.7200
9.7999	5.6050
9.7814	5.5386
9.7630	5.5313
9.7447	5.5846
9.7264	5.6900
9.7082	5.8325
9.6900	5.9924
9.6719	6.1480
9.6539	6.2801
9.6360	6.3725
9.6181	6.4120
9.6003	6.3909
9.5825	6.3064
9.5649	6.1627
9.5472	5.9720
9.5297	5.7537
9.5122	5.5304
9.4948	5.3201
9.4774	5.1304
9.4601	4.9577
9.4429	4.7898
9.4257	4.6139
9.4086	4.4240
9.3916	4.2253
9.3746	4.0332
9.3577	3.8665
9.3408	3.7405
9.3240	3.6631
9.3073	3.6318
9.2906	3.6377
9.2740	3.6683
9.2574	3.7123
9.2409	3.7599
9.2245	3.8033
9.2081	3.8359
9.1918	3.8516
9.1755	3.8440
9.1593	3.8094
9.1431	3.7505
9.1270	3.6737
9.1110	3.5897
9.0950	3.5098
9.0791	3.4424
9.0632	3.3903
9.0474	3.3502
9.0316	3.3159
9.0159	3.2811
9.0003	3.2420
8.9847	3.1996
8.9691	3.1598
8.9536	3.1319
8.9382	3.1272
8.9228	3.1539
8.9075	3.2169
8.8922	3.3152
8.8770	3.4419
8.8618	3.5856
8.8467	3.7346
8.8316	3.8779
8.8166	4.0083
8.8016	4.1218
8.7867	4.2160
8.7718	4.2904
8.7570	4.3430
8.7422	4.3726
8.7275	4.3799
8.7129	4.3690
8.6982	4.3475
8.6837	4.3257
8.6692	4.3150
8.6547	4.3238
8.6403	4.3548
8.6259	4.4060
8.6116	4.4706
8.5973	4.5402
8.5830	4.6068
8.5688	4.6655
8.5547	4.7148
8.5406	4.7550
8.5266	4.7879
8.5126	4.8168
8.4986	4.8448
8.4847	4.8741
8.4708	4.9059
8.4570	4.9405
8.4432	4.9764
8.4295	5.0105
8.4158	5.0383
8.4022	5.0551
8.3886	5.0572
8.3750	5.0413
8.3615	5.0056
8.3481	4.9502
8.3347	4.8772
8.3213	4.7898
8.3079	4.6923
8.2946	4.5895
8.2814	4.4855
8.2682	4.3823
8.2550	4.2790
8.2419	4.1739
8.2288	4.0623
8.2158	3.9406
8.2028	3.8059
8.1898	3.6593
8.1769	3.5027
8.1640	3.3412
8.1512	3.1790
8.1384	3.0213
8.1256	2.8709
8.1129	2.7293
8.1002	2.5981
8.0876	2.4778
8.0750	2.3684
8.0624	2.2706
8.0499	2.1837
8.0374	2.1077
8.0250	2.0406
8.0126	1.9819
8.0002	1.9300
7.9879	1.8843
7.9756	1.8443
7.9634	1.8097
7.9512	1.7804
7.9390	1.7562
7.9268	1.7366
7.9147	1.7214
7.9027	1.7115
7.8906	1.7067
7.8786	1.7077
7.8667	1.7145
7.8548	1.7269
7.8429	1.7432
7.8310	1.7617
7.8192	1.7818
7.8075	1.8036
7.7957	1.8285
7.7840	1.8576
7.7723	1.8917
7.7607	1.9312
7.7491	1.9755
7.7375	2.0219
7.7260	2.0693
7.7145	2.1171
7.7031	2.1654
7.6916	2.2149
7.6802	2.2666
7.6689	2.3208
7.6575	2.3774
7.6462	2.4352
7.6350	2.4944
7.6238	2.5560
7.6126	2.6204
7.6014	2.6881
7.5903	2.7601
7.5792	2.8356
7.5681	2.9131
7.5571	2.9910
7.5461	3.0675
7.5351	3.1421
7.5242	3.2134
7.5133	3.2820
7.5024	3.3486
7.4916	3.4139
7.4807	3.4776
7.4700	3.5397
7.4592	3.5991
7.4485	3.6543
7.4378	3.7055
7.4272	3.7533
7.4165	3.7999
7.4059	3.8471
7.3954	3.8963
7.3848	3.9484
7.3743	4.0027
7.3639	4.0585
7.3534	4.1154
7.3430	4.1720
7.3326	4.2253
7.3223	4.2714
7.3119	4.3067
7.3016	4.3288
7.2914	4.3380
7.2811	4.3394
7.2709	4.3406
7.2607	4.3498
7.2506	4.3738
7.2404	4.4145
7.2303	4.4704
7.2203	4.5353
7.2102	4.6011
7.2002	4.6617
7.1902	4.7148
7.1803	4.7633
7.1703	4.8142
7.1604	4.8758
7.1506	4.9549
7.1407	5.0544
7.1309	5.1730
7.1211	5.3061
7.1113	5.4487
7.1016	5.5948
7.0919	5.7395
7.0822	5.8782
7.0725	6.0068
7.0629	6.1224
7.0533	6.2235
7.0437	6.3088
7.0341	6.3782
7.0246	6.4319
7.0151	6.4715
7.0056	6.4996
6.9962	6.5226
6.9867	6.5475
6.9773	6.5806
6.9679	6.6237
6.9586	6.6747
6.9493	6.7270
6.9400	6.7727
6.9307	6.8068
6.9214	6.8295
6.9122	6.8463
6.9030	6.8643
6.8938	6.8890
6.8847	6.9219
6.8755	6.9598
6.8664	6.9948
6.8573	7.0204
6.8483	7.0322
6.8393	7.0313
6.8302	7.0209
6.8213	7.0052
6.8123	6.9875
6.8034	6.9676
6.7944	6.9444
6.7855	6.9164
6.7767	6.8849
6.7678	6.8546
6.7590	6.8328
6.7502	6.8257
6.7414	6.8376
6.7327	6.8681
6.7239	6.9141
6.7152	6.9674
6.7065	7.0199
6.6979	7.0647
6.6892	7.0986
6.6806	7.1222
6.6720	7.1398
6.6634	7.1592
6.6549	7.1902
6.6464	7.2402
6.6378	7.3115
6.6294	7.4012
6.6209	7.5033
6.6124	7.6113
6.6040	7.7223
6.5956	7.8414
6.5872	7.9788
6.5789	8.1465
6.5705	8.3506
6.5622	8.5895
6.5539	8.8517
6.5456	9.1198
6.5374	9.3762
6.5292	9.6086
6.5209	9.8129
6.5128	9.9924
6.5046	10.157
6.4964	10.316
6.4883	10.477
6.4802	10.642
6.4721	10.809
6.4640	10.969
6.4560	11.113
6.4480	11.236
6.4399	11.335
6.4320	11.411
6.4240	11.470
6.4160	11.516
6.4081	11.550
6.4002	11.572
6.3923	11.580
6.3844	11.571
6.3766	11.546
6.3687	11.508
6.3609	11.462
6.3531	11.413
6.3454	11.364
6.3376	11.317
6.3299	11.272
6.3221	11.229
6.3144	11.188
6.3068	11.146
6.2991	11.105
6.2914	11.063
6.2838	11.019
6.2762	10.971
6.2686	10.919
6.2611	10.862
6.2535	10.801
6.2460	10.737
6.2385	10.672
6.2310	10.606
6.2235	10.540
6.2160	10.473
6.2086	10.400
6.2011	10.318
6.1937	10.225
6.1863	10.121
6.1790	10.009
6.1716	9.8949
6.1643	9.7864
6.1570	9.6919
6.1496	9.6192
6.1424	9.5752
6.1351	9.5662
6.1278	9.5965
6.1206	9.6678
6.1134	9.7765
6.1062	9.9145
6.0990	10.069
6.0918	10.225
6.0847	10.370
6.0776	10.495
6.0704	10.601
6.0633	10.692
6.0563	10.777
6.0492	10.862
6.0421	10.951
6.0351	11.042
6.0281	11.134
6.0211	11.222
6.0141	11.301
6.0071	11.372
6.0002	11.437
5.9932	11.497
5.9863	11.551
5.9794	11.600
5.9725	11.639
5.9657	11.664
5.9588	11.672
5.9520	11.665
5.9451	11.650
5.9383	11.634
5.9315	11.622
5.9247	11.618
5.9180	11.620
5.9112	11.624
5.9045	11.625
5.8978	11.624
5.8911	11.629
5.8844	11.650
5.8777	11.696
5.8711	11.774
5.8644	11.883
5.8578	12.016
5.8512	12.160
5.8446	12.302
5.8380	12.430
5.8314	12.538
5.8249	12.625
5.8184	12.690
5.8118	12.737
5.8053	12.768
5.7988	12.787
5.7923	12.795
5.7859	12.795
5.7794	12.790
5.7730	12.783
5.7666	12.777
5.7602	12.773
5.7538	12.770
5.7474	12.768
5.7410	12.765
5.7347	12.763
5.7283	12.764
5.7220	12.773
5.7157	12.795
5.7094	12.831
5.7031	12.880
5.6969	12.940
5.6906	13.005
5.6844	13.073
5.6782	13.140
5.6719	13.208
5.6657	13.277
5.6596	13.353
5.6534	13.443
5.6472	13.549
5.6411	13.672
5.6349	13.804
5.6288	13.935
5.6227	14.048
5.6166	14.132
5.6106	14.177
5.6045	14.185
5.5984	14.164
5.5924	14.128
5.5864	14.098
5.5804	14.091
5.5744	14.122
5.5684	14.202
5.5624	14.333
5.5564	14.516
5.5505	14.744
5.5445	15.007
5.5386	15.294
5.5327	15.594
5.5268	15.896
5.5209	16.193
5.5151	16.479
5.5092	16.751
5.5033	17.007
5.4975	17.244
5.4917	17.463
5.4859	17.665
5.4801	17.852
5.4743	18.029
5.4685	18.204
5.4628	18.380
5.4570	18.561
5.4513	18.749
5.4455	18.943
5.4398	19.142
5.4341	19.349
5.4284	19.568
5.4228	19.802
5.4171	20.054
5.4114	20.322
5.4058	20.602
5.4002	20.885
5.3945	21.162
5.3889	21.426
5.3833	21.671
5.3778	21.893
5.3722	22.091
5.3666	22.265
5.3611	22.417
5.3555	22.547
5.3500	22.659
5.3445	22.752
5.3390	22.827
5.3335	22.884
5.3280	22.923
5.3225	22.943
5.3171	22.950
5.3116	22.945
5.3062	22.936
5.3008	22.928
5.2954	22.924
5.2900	22.926
5.2846	22.933
5.2792	22.941
5.2738	22.946
5.2684	22.940
5.2631	22.920
5.2578	22.887
5.2524	22.845
5.2471	22.803
5.2418	22.772
5.2365	22.758
5.2312	22.768
5.2260	22.802
5.2207	22.853
5.2154	22.916
5.2102	22.983
5.2050	23.051
5.1998	23.119
5.1945	23.189
5.1893	23.264
5.1842	23.346
5.1790	23.433
5.1738	23.523
5.1686	23.609
5.1635	23.687
5.1584	23.754
5.1532	23.813
5.1481	23.869
5.1430	23.928
5.1379	24.000
5.1328	24.089
5.1277	24.200
5.1227	24.336
5.1176	24.495
5.1126	24.677
5.1075	24.880
5.1025	25.100
5.0975	25.333
5.0925	25.573
5.0875	25.814
5.0825	26.049
5.0775	26.272
5.0726	26.476
5.0676	26.660
5.0627	26.822
5.0577	26.966
5.0528	27.097
5.0479	27.219
5.0430	27.338
5.0380	27.455
5.0332	27.568
5.0283	27.674
5.0234	27.769
5.0185	27.850
5.0137	27.921
5.0088	27.987
5.0040	28.062
4.9992	28.159
4.9944	28.290
4.9896	28.462
4.9848	28.677
4.9800	28.927
4.9752	29.198
4.9704	29.477
4.9657	29.744
4.9609	29.986
4.9562	30.189
4.9514	30.342
4.9467	30.437
4.9420	30.470
4.9373	30.441
4.9326	30.354
4.9279	30.219
4.9232	30.054
4.9186	29.878
4.9139	29.715
4.9092	29.584
4.9046	29.501
4.9000	29.473
4.8953	29.498
4.8907	29.567
4.8861	29.668
4.8815	29.788
4.8769	29.918
4.8723	30.055
4.8678	30.198
4.8632	30.352
4.8586	30.516
4.8541	30.690
4.8495	30.868
4.8450	31.041
4.8405	31.199
4.8360	31.332
4.8315	31.435
4.8270	31.504
4.8225	31.539
4.8180	31.541
4.8135	31.512
4.8090	31.456
4.8046	31.377
4.8001	31.283
4.7957	31.187
4.7913	31.105
4.7868	31.050
4.7824	31.038
4.7780	31.077
4.7736	31.168
4.7692	31.304
4.7648	31.478
4.7605	31.674
4.7561	31.880
4.7517	32.086
4.7474	32.284
4.7431	32.472
4.7387	32.648
4.7344	32.817
4.7301	32.978
4.7258	33.135
4.7215	33.287
4.7172	33.435
4.7129	33.575
4.7086	33.707
4.7043	33.832
4.7000	33.947
4.6958	34.058
4.6915	34.166
4.6873	34.272
4.6831	34.378
4.6788	34.484
4.6746	34.585
4.6704	34.681
4.6662	34.772
4.6620	34.861
4.6578	34.952
4.6536	35.054
4.6495	35.171
4.6453	35.309
4.6411	35.468
4.6370	35.645
4.6328	35.834
4.6287	36.029
4.6246	36.224
4.6205	36.414
4.6163	36.594
4.6122	36.763
4.6081	36.921
4.6040	37.070
4.6000	37.211
4.5959	37.346
4.5918	37.478
4.5877	37.610
4.5837	37.742
4.5796	37.874
4.5756	38.007
4.5716	38.142
4.5675	38.277
4.5635	38.411
4.5595	38.546
4.5555	38.681
4.5515	38.816
4.5475	38.950
4.5435	39.084
4.5395	39.220
4.5356	39.357
4.5316	39.496
4.5276	39.638
4.5237	39.782
4.5197	39.928
4.5158	40.076
4.5119	40.225
4.5080	40.373
4.5040	40.520
4.5001	40.664
4.4962	40.806
4.4923	40.946
4.4884	41.085
4.4846	41.222
4.4807	41.357
4.4768	41.487
4.4730	41.611
4.4691	41.727
4.4652	41.836
4.4614	41.937
4.4576	42.031
4.4537	42.119
4.4499	42.201
4.4461	42.278
4.4423	42.350
4.4385	42.417
4.4347	42.479
4.4309	42.540
4.4271	42.599
4.4233	42.659
4.4196	42.721
4.4158	42.784
4.4120	42.850
4.4083	42.918
4.4045	42.988
4.4008	43.059
4.3971	43.130
4.3934	43.201
4.3896	43.272
4.3859	43.342
4.3822	43.411
4.3785	43.480
4.3748	43.548
4.3711	43.614
4.3674	43.680
4.3638	43.743
4.3601	43.805
4.3564	43.865
4.3528	43.926
4.3491	43.988
4.3455	44.051
4.3418	44.118
4.3382	44.188
4.3346	44.258
4.3310	44.329
4.3273	44.399
4.3237	44.468
4.3201	44.533
4.3165	44.597
4.3129	44.659
4.3094	44.719
4.3058	44.778
4.3022	44.834
4.2986	44.889
4.2951	44.941
4.2915	44.991
4.2880	45.036
4.2844	45.079
4.2809	45.118
4.2774	45.155
4.2738	45.194
4.2703	45.236
4.2668	45.284
4.2633	45.337
4.2598	45.394
4.2563	45.450
4.2528	45.502
4.2493	45.548
4.2458	45.590
4.2424	45.629
4.2389	45.667
4.2354	45.707
4.2320	45.750
4.2285	45.796
4.2251	45.845
4.2216	45.896
4.2182	45.948
4.2148	45.999
4.2113	46.049
4.2079	46.094
4.2045	46.134
4.2011	46.167
4.1977	46.192
4.1943	46.211
4.1909	46.227
4.1875	46.241
4.1841	46.256
4.1808	46.269
4.1774	46.278
4.1740	46.279
4.1707	46.268
4.1673	46.240
4.1640	46.196
4.1606	46.137
4.1573	46.068
4.1540	45.997
4.1506	45.929
4.1473	45.870
4.1440	45.821
4.1407	45.783
4.1374	45.754
4.1341	45.733
4.1308	45.723
4.1275	45.729
4.1242	45.752
4.1209	45.793
4.1177	45.847
4.1144	45.909
4.1111	45.968
4.1079	46.016
4.1046	46.051
4.1014	46.071
4.0981	46.082
4.0949	46.092
4.0917	46.108
4.0884	46.136
4.0852	46.179
4.0820	46.235
4.0788	46.298
4.0756	46.363
4.0724	46.425
4.0692	46.481
4.0660	46.532
4.0628	46.576
4.0596	46.615
4.0565	46.648
4.0533	46.675
4.0501	46.695
4.0470	46.707
4.0438	46.710
4.0406	46.702
4.0375	46.682
4.0344	46.651
4.0312	46.611
4.0281	46.569
4.0250	46.529
4.0218	46.498
4.0187	46.478
4.0156	46.465
4.0125	46.457
4.0094	46.445
4.0063	46.427
4.0032	46.399
4.0001	46.366
3.9970	46.330
3.9940	46.298
3.9909	46.271
3.9878	46.252
3.9847	46.240
3.9817	46.235
3.9786	46.233
3.9756	46.234
3.9725	46.236
3.9695	46.238
3.9665	46.239
3.9634	46.239
3.9604	46.238
3.9574	46.239
3.9544	46.243
3.9513	46.255
3.9483	46.278
3.9453	46.314
3.9423	46.360
3.9393	46.412
3.9363	46.462
3.9333	46.506
3.9304	46.541
3.9274	46.571
3.9244	46.603
3.9214	46.641
3.9185	46.690
3.9155	46.749
3.9126	46.811
3.9096	46.871
3.9067	46.923
3.9037	46.962
3.9008	46.990
3.8979	47.010
3.8949	47.028
3.8920	47.049
3.8891	47.077
3.8862	47.112
3.8833	47.154
3.8804	47.198
3.8775	47.240
3.8746	47.277
3.8717	47.307
3.8688	47.331
3.8659	47.349
3.8630	47.365
3.8601	47.380
3.8573	47.394
3.8544	47.408
3.8515	47.420
3.8487	47.431
3.8458	47.443
3.8430	47.455
3.8401	47.468
3.8373	47.483
3.8344	47.498
3.8316	47.513
3.8288	47.526
3.8259	47.538
3.8231	47.550
3.8203	47.562
3.8175	47.575
3.8147	47.587
3.8119	47.600
3.8091	47.612
3.8063	47.623
3.8035	47.635
3.8007	47.645
3.7979	47.656
3.7951	47.667
3.7924	47.677
3.7896	47.686
3.7868	47.694
3.7841	47.701
3.7813	47.706
3.7785	47.710
3.7758	47.715
3.7730	47.718
3.7703	47.723
3.7676	47.727
3.7648	47.730
3.7621	47.733
3.7594	47.733
3.7566	47.733
3.7539	47.731
3.7512	47.730
3.7485	47.730
3.7458	47.731
3.7431	47.733
3.7404	47.734
3.7377	47.734
3.7350	47.734
3.7323	47.732
3.7296	47.731
3.7269	47.730
3.7242	47.731
3.7216	47.731
3.7189	47.731
3.7162	47.729
3.7136	47.725
3.7109	47.719
3.7083	47.711
3.7056	47.705
3.7030	47.701
3.7003	47.698
3.6977	47.697
3.6950	47.695
3.6924	47.691
3.6898	47.684
3.6872	47.676
3.6845	47.669
3.6819	47.662
3.6793	47.658
3.6767	47.654
3.6741	47.650
3.6715	47.643
3.6689	47.634
3.6663	47.621
3.6637	47.606
3.6611	47.588
3.6585	47.567
3.6560	47.543
3.6534	47.518
3.6508	47.491
3.6482	47.466
3.6457	47.443
3.6431	47.422
3.6406	47.404
3.6380	47.388
3.6355	47.374
3.6329	47.360
3.6304	47.348
3.6278	47.339
3.6253	47.332
3.6227	47.326
3.6202	47.323
3.6177	47.320
3.6152	47.319
3.6127	47.317
3.6101	47.313
3.6076	47.307
3.6051	47.298
3.6026	47.287
3.6001	47.275
3.5976	47.261
3.5951	47.247
3.5926	47.233
3.5901	47.217
3.5876	47.202
3.5852	47.186
3.5827	47.172
3.5802	47.158
3.5777	47.145
3.5753	47.132
3.5728	47.119
3.5704	47.104
3.5679	47.087
3.5654	47.068
3.5630	47.049
3.5605	47.027
3.5581	47.002
3.5557	46.975
3.5532	46.945
3.5508	46.912
3.5484	46.875
3.5459	46.836
3.5435	46.795
3.5411	46.753
3.5387	46.713
3.5363	46.676
3.5338	46.641
3.5314	46.605
3.5290	46.566
3.5266	46.520
3.5242	46.465
3.5218	46.403
3.5195	46.336
3.5171	46.269
3.5147	46.202
3.5123	46.137
3.5099	46.074
3.5075	46.013
3.5052	45.952
3.5028	45.893
3.5004	45.837
3.4981	45.790
3.4957	45.753
3.4934	45.729
3.4910	45.717
3.4887	45.713
3.4863	45.710
3.4840	45.705
3.4816	45.694
3.4793	45.675
3.4770	45.651
3.4746	45.626
3.4723	45.601
3.4700	45.578
3.4677	45.557
3.4653	45.536
3.4630	45.513
3.4607	45.488
3.4584	45.464
3.4561	45.442
3.4538	45.426
3.4515	45.419
3.4492	45.421
3.4469	45.428
3.4446	45.438
3.4423	45.444
3.4400	45.444
3.4378	45.435
3.4355	45.415
3.4332	45.386
3.4309	45.346
3.4287	45.298
3.4264	45.245
3.4241	45.192
3.4219	45.142
3.4196	45.101
3.4174	45.070
3.4151	45.049
3.4129	45.037
3.4106	45.030
3.4084	45.026
3.4061	45.020
3.4039	45.014
3.4017	45.004
3.3994	44.993
3.3972	44.980
3.3950	44.963
3.3928	44.940
3.3906	44.909
3.3883	44.870
3.3861	44.825
3.3839	44.777
3.3817	44.730
3.3795	44.688
3.3773	44.651
3.3751	44.619
3.3729	44.591
3.3707	44.566
3.3685	44.542
3.3663	44.516
3.3641	44.487
3.3620	44.454
3.3598	44.414
3.3576	44.368
3.3554	44.320
3.3533	44.271
3.3511	44.225
3.3489	44.185
3.3468	44.151
3.3446	44.124
3.3425	44.101
3.3403	44.081
3.3382	44.062
3.3360	44.042
3.3339	44.021
3.3317	43.996
3.3296	43.970
3.3274	43.943
3.3253	43.914
3.3232	43.886
3.3210	43.856
3.3189	43.825
3.3168	43.790
3.3147	43.752
3.3126	43.711
3.3104	43.668
3.3083	43.625
3.3062	43.583
3.3041	43.543
3.3020	43.505
3.2999	43.468
3.2978	43.433
3.2957	43.398
3.2936	43.365
3.2915	43.332
3.2894	43.300
3.2874	43.268
3.2853	43.235
3.2832	43.199
3.2811	43.161
3.2790	43.120
3.2770	43.078
3.2749	43.037
3.2728	42.998
3.2708	42.960
3.2687	42.922
3.2666	42.884
3.2646	42.845
3.2625	42.805
3.2605	42.764
3.2584	42.723
3.2564	42.683
3.2543	42.643
3.2523	42.600
3.2503	42.556
3.2482	42.513
3.2462	42.471
3.2442	42.432
3.2421	42.397
3.2401	42.363
3.2381	42.327
3.2361	42.287
3.2340	42.241
3.2320	42.193
3.2300	42.143
3.2280	42.096
3.2260	42.052
3.2240	42.010
3.2220	41.970
3.2200	41.928
3.2180	41.882
3.2160	41.834
3.2140	41.786
3.2120	41.739
3.2100	41.696
3.2080	41.656
3.2060	41.617
3.2040	41.578
3.2021	41.537
3.2001	41.493
3.1981	41.447
3.1961	41.402
3.1942	41.356
3.1922	41.310
3.1902	41.264
3.1883	41.216
3.1863	41.167
3.1844	41.116
3.1824	41.065
3.1805	41.013
3.1785	40.961
3.1766	40.908
3.1746	40.855
3.1727	40.802
3.1707	40.750
3.1688	40.698
3.1669	40.647
3.1649	40.595
3.1630	40.541
3.1611	40.484
3.1591	40.426
3.1572	40.369
3.1553	40.314
3.1534	40.260
3.1515	40.206
3.1495	40.152
3.1476	40.095
3.1457	40.036
3.1438	39.975
3.1419	39.915
3.1400	39.856
3.1381	39.799
3.1362	39.742
3.1343	39.687
3.1324	39.632
3.1305	39.573
3.1286	39.510
3.1268	39.442
3.1249	39.371
3.1230	39.298
3.1211	39.226
3.1192	39.156
3.1174	39.088
3.1155	39.020
3.1136	38.951
3.1117	38.880
3.1099	38.809
3.1080	38.738
3.1061	38.669
3.1043	38.602
3.1024	38.537
3.1006	38.474
3.0987	38.410
3.0969	38.346
3.0950	38.280
3.0932	38.215
3.0913	38.150
3.0895	38.085
3.0876	38.022
3.0858	37.962
3.0840	37.903
3.0821	37.847
3.0803	37.792
3.0785	37.738
3.0766	37.684
3.0748	37.629
3.0730	37.574
3.0712	37.519
3.0694	37.464
3.0675	37.412
3.0657	37.362
3.0639	37.315
3.0621	37.271
3.0603	37.227
3.0585	37.186
3.0567	37.147
3.0549	37.110
3.0531	37.075
3.0513	37.041
3.0495	37.006
3.0477	36.969
3.0459	36.931
3.0441	36.891
3.0423	36.853
3.0406	36.817
3.0388	36.784
3.0370	36.754
3.0352	36.724
3.0334	36.694
3.0317	36.662
3.0299	36.630
3.0281	36.595
3.0264	36.559
3.0246	36.522
3.0228	36.482
3.0211	36.440
3.0193	36.395
3.0176	36.349
3.0158	36.302
3.0140	36.257
3.0123	36.214
3.0105	36.172
3.0088	36.131
3.0070	36.088
3.0053	36.042
3.0036	35.991
3.0018	35.935
3.0001	35.874
2.9984	35.809
2.9966	35.742
2.9949	35.675
2.9932	35.610
2.9914	35.547
2.9897	35.487
2.9880	35.427
2.9863	35.366
2.9845	35.303
2.9828	35.239
2.9811	35.174
2.9794	35.108
2.9777	35.043
2.9760	34.976
2.9743	34.907
2.9726	34.835
2.9709	34.765
2.9692	34.697
2.9675	34.634
2.9658	34.577
2.9641	34.521
2.9624	34.465
2.9607	34.405
2.9590	34.343
2.9573	34.280
2.9556	34.217
2.9539	34.154
2.9523	34.089
2.9506	34.021
2.9489	33.948
2.9472	33.873
2.9455	33.797
2.9439	33.720
2.9422	33.641
2.9405	33.560
2.9389	33.473
2.9372	33.383
2.9355	33.290
2.9339	33.197
2.9322	33.105
2.9306	33.012
2.9289	32.916
2.9272	32.814
2.9256	32.706
2.9239	32.595
2.9223	32.483
2.9207	32.376
2.9190	32.275
2.9174	32.181
2.9157	32.091
2.9141	32.005
2.9124	31.925
2.9108	31.850
2.9092	31.782
2.9075	31.721
2.9059	31.666
2.9043	31.616
2.9027	31.568
2.9010	31.524
2.8994	31.483
2.8978	31.445
2.8962	31.407
2.8946	31.367
2.8929	31.320
2.8913	31.262
2.8897	31.193
2.8881	31.115
2.8865	31.030
2.8849	30.941
2.8833	30.850
2.8817	30.757
2.8801	30.662
2.8785	30.565
2.8769	30.470
2.8753	30.377
2.8737	30.290
2.8721	30.211
2.8705	30.139
2.8689	30.076
2.8673	30.020
2.8658	29.971
2.8642	29.930
2.8626	29.897
2.8610	29.872
2.8594	29.851
2.8579	29.834
2.8563	29.814
2.8547	29.791
2.8531	29.761
2.8516	29.727
2.8500	29.691
2.8484	29.653
2.8469	29.610
2.8453	29.561
2.8437	29.501
2.8422	29.431
2.8406	29.353
2.8391	29.272
2.8375	29.198
2.8360	29.135
2.8344	29.088
2.8329	29.058
2.8313	29.046
2.8298	29.050
2.8282	29.070
2.8267	29.107
2.8252	29.159
2.8236	29.227
2.8221	29.309
2.8205	29.401
2.8190	29.499
2.8175	29.601
2.8159	29.701
2.8144	29.796
2.8129	29.885
2.8114	29.965
2.8098	30.037
2.8083	30.101
2.8068	30.160
2.8053	30.219
2.8038	30.281
2.8022	30.346
2.8007	30.411
2.7992	30.469
2.7977	30.514
2.7962	30.537
2.7947	30.534
2.7932	30.507
2.7917	30.463
2.7902	30.411
2.7887	30.363
2.7872	30.328
2.7857	30.312
2.7842	30.317
2.7827	30.338
2.7812	30.368
2.7797	30.398
2.7782	30.425
2.7767	30.449
2.7752	30.472
2.7738	30.504
2.7723	30.551
2.7708	30.620
2.7693	30.716
2.7678	30.840
2.7664	30.993
2.7649	31.175
2.7634	31.383
2.7619	31.618
2.7605	31.879
2.7590	32.172
2.7575	32.504
2.7561	32.879
2.7546	33.300
2.7531	33.761
2.7517	34.251
2.7502	34.753
2.7488	35.251
2.7473	35.733
2.7458	36.192
2.7444	36.627
2.7429	37.045
2.7415	37.450
2.7400	37.848
2.7386	38.240
2.7371	38.626
2.7357	39.005
2.7343	39.378
2.7328	39.744
2.7314	40.106
2.7299	40.468
2.7285	40.831
2.7271	41.201
2.7256	41.585
2.7242	41.986
2.7228	42.409
2.7213	42.849
2.7199	43.293
2.7185	43.722
2.7171	44.116
2.7156	44.464
2.7142	44.766
2.7128	45.036
2.7114	45.296
2.7100	45.561
2.7085	45.838
2.7071	46.122
2.7057	46.402
2.7043	46.661
2.7029	46.891
2.7015	47.089
2.7001	47.259
2.6987	47.406
2.6973	47.541
2.6959	47.673
2.6945	47.809
2.6931	47.950
2.6917	48.093
2.6903	48.233
2.6889	48.364
2.6875	48.479
2.6861	48.578
2.6847	48.660
2.6833	48.730
2.6819	48.789
2.6805	48.842
2.6791	48.893
2.6778	48.947
2.6764	49.002
2.6750	49.053
2.6736	49.097
2.6722	49.134
2.6709	49.168
2.6695	49.202
2.6681	49.247
2.6667	49.311
2.6654	49.393
2.6640	49.482
2.6626	49.572
2.6613	49.657
2.6599	49.727
2.6585	49.781
2.6572	49.821
2.6558	49.856
2.6545	49.887
2.6531	49.920
2.6517	49.957
2.6504	49.997
2.6490	50.033
2.6477	50.062
2.6463	50.084
2.6450	50.099
2.6436	50.112
2.6423	50.126
2.6409	50.143
2.6396	50.160
2.6382	50.172
2.6369	50.178
2.6356	50.172
2.6342	50.155
2.6329	50.134
2.6315	50.119
2.6302	50.115
2.6289	50.126
2.6275	50.148
2.6262	50.176
2.6249	50.194
2.6236	50.194
2.6222	50.182
2.6209	50.165
2.6196	50.151
2.6183	50.152
2.6169	50.174
2.6156	50.210
2.6143	50.249
2.6130	50.279
2.6117	50.291
2.6103	50.282
2.6090	50.254
2.6077	50.223
2.6064	50.205
2.6051	50.208
2.6038	50.231
2.6025	50.261
2.6012	50.280
2.5999	50.269
2.5986	50.224
2.5973	50.165
2.5960	50.117
2.5947	50.103
2.5934	50.129
2.5921	50.184
2.5908	50.246
2.5895	50.292
2.5882	50.307
2.5869	50.299
2.5856	50.284
2.5843	50.279
2.5830	50.288
2.5817	50.311
2.5805	50.337
2.5792	50.357
2.5779	50.365
2.5766	50.361
2.5753	50.355
2.5741	50.352
2.5728	50.356
2.5715	50.367
2.5702	50.381
2.5690	50.391
2.5677	50.390
2.5664	50.377
2.5651	50.357
2.5639	50.340
2.5626	50.332
2.5613	50.340
2.5601	50.363
2.5588	50.392
2.5575	50.418
2.5563	50.432
2.5550	50.431
2.5538	50.421
2.5525	50.405
2.5513	50.395
2.5500	50.392
2.5487	50.396
2.5475	50.403
2.5462	50.407
2.5450	50.407
2.5437	50.403
2.5425	50.396
2.5413	50.389
2.5400	50.385
2.5388	50.383
2.5375	50.383
2.5363	50.386
2.5350	50.392
2.5338	50.399
2.5326	50.406
2.5313	50.413
2.5301	50.418
2.5289	50.421
2.5276	50.424
2.5264	50.430
2.5252	50.439
2.5239	50.450
2.5227	50.461
2.5215	50.471
2.5202	50.475
2.5190	50.474
2.5178	50.469
2.5166	50.464
2.5154	50.461
2.5141	50.463
2.5129	50.470
2.5117	50.482
2.5105	50.494
2.5093	50.505
2.5081	50.512
2.5068	50.518
2.5056	50.523
2.5044	50.529
2.5032	50.536
2.5020	50.544
2.5008	50.549
2.4996	50.548
2.4984	50.543
2.4972	50.535
2.4960	50.528
2.4948	50.524
2.4936	50.526
2.4924	50.532
2.4912	50.538
2.4900	50.542
2.4888	50.543
2.4876	50.543
2.4864	50.541
2.4852	50.540
2.4840	50.539
2.4828	50.538
2.4816	50.535
2.4805	50.532
2.4793	50.532
2.4781	50.536
2.4769	50.545
2.4757	50.556
2.4745	50.567
2.4734	50.574
2.4722	50.577
2.4710	50.577
2.4698	50.576
2.4686	50.577
2.4675	50.581
2.4663	50.586
2.4651	50.592
2.4640	50.597
2.4628	50.601
2.4616	50.604
2.4604	50.606
2.4593	50.608
2.4581	50.610
2.4569	50.611
2.4558	50.611
2.4546	50.610
2.4535	50.608
2.4523	50.606
2.4511	50.607
2.4500	50.611
2.4488	50.618
2.4477	50.628
2.4465	50.637
2.4454	50.645
2.4442	50.648
2.4431	50.648
2.4419	50.645
2.4408	50.642
2.4396	50.640
2.4385	50.642
2.4373	50.647
2.4362	50.656
2.4350	50.669
2.4339	50.685
2.4327	50.703
2.4316	50.719
2.4305	50.735
2.4293	50.749
2.4282	50.763
2.4270	50.777
2.4259	50.794
2.4248	50.811
2.4236	50.827
2.4225	50.839
2.4214	50.847
2.4202	50.853
2.4191	50.856
2.4180	50.861
2.4169	50.870
2.4157	50.881
2.4146	50.893
2.4135	50.905
2.4124	50.915
2.4112	50.923
2.4101	50.931
2.4090	50.942
2.4079	50.956
2.4068	50.975
2.4056	50.998
2.4045	51.021
2.4034	51.043
2.4023	51.061
2.4012	51.073
2.4001	51.081
2.3990	51.084
2.3979	51.086
2.3967	51.089
2.3956	51.094
2.3945	51.103
2.3934	51.114
2.3923	51.125
2.3912	51.136
2.3901	51.143
2.3890	51.148
2.3879	51.152
2.3868	51.156
2.3857	51.160
2.3846	51.166
2.3835	51.173
2.3824	51.180
2.3813	51.188
2.3802	51.196
2.3791	51.204
2.3781	51.210
2.3770	51.215
2.3759	51.217
2.3748	51.218
2.3737	51.218
2.3726	51.220
2.3715	51.224
2.3704	51.229
2.3694	51.236
2.3683	51.243
2.3672	51.250
2.3661	51.256
2.3650	51.259
2.3640	51.261
2.3629	51.261
2.3618	51.258
2.3607	51.253
2.3597	51.247
2.3586	51.244
2.3575	51.242
2.3564	51.244
2.3554	51.250
2.3543	51.258
2.3532	51.265
2.3522	51.271
2.3511	51.275
2.3500	51.276
2.3490	51.276
2.3479	51.275
2.3468	51.273
2.3458	51.271
2.3447	51.267
2.3436	51.261
2.3426	51.255
2.3415	51.249
2.3405	51.245
2.3394	51.244
2.3384	51.246
2.3373	51.252
2.3363	51.258
2.3352	51.265
2.3342	51.270
2.3331	51.275
2.3321	51.280
2.3310	51.285
2.3300	51.290
2.3289	51.295
2.3279	51.298
2.3268	51.299
2.3258	51.297
2.3247	51.293
2.3237	51.288
2.3226	51.285
2.3216	51.285
2.3206	51.289
2.3195	51.295
2.3185	51.299
2.3175	51.301
2.3164	51.300
2.3154	51.297
2.3144	51.295
2.3133	51.295
2.3123	51.298
2.3113	51.301
2.3102	51.302
2.3092	51.301
2.3082	51.299
2.3071	51.297
2.3061	51.296
2.3051	51.295
2.3041	51.295
2.3030	51.294
2.3020	51.292
2.3010	51.291
2.3000	51.294
2.2990	51.302
2.2979	51.311
2.2969	51.318
2.2959	51.319
2.2949	51.312
2.2939	51.298
2.2929	51.281
2.2918	51.266
2.2908	51.258
2.2898	51.256
2.2888	51.260
2.2878	51.266
2.2868	51.269
2.2858	51.270
2.2848	51.267
2.2838	51.262
2.2828	51.256
2.2818	51.248
2.2808	51.240
2.2798	51.234
2.2787	51.230
2.2777	51.231
2.2767	51.237
2.2757	51.245
2.2747	51.250
2.2738	51.250
2.2728	51.243
2.2718	51.231
2.2708	51.216
2.2698	51.201
2.2688	51.192
2.2678	51.187
2.2668	51.188
2.2658	51.192
2.2648	51.199
2.2638	51.206
2.2628	51.211
2.2618	51.212
2.2609	51.209
2.2599	51.202
2.2589	51.194
2.2579	51.186
2.2569	51.182
2.2559	51.179
2.2550	51.179
2.2540	51.177
2.2530	51.174
2.2520	51.169
2.2510	51.163
2.2501	51.156
2.2491	51.149
2.2481	51.144
2.2471	51.140
2.2462	51.138
2.2452	51.137
2.2442	51.138
2.2433	51.138
2.2423	51.135
2.2413	51.130
2.2403	51.125
2.2394	51.119
2.2384	51.114
2.2374	51.111
2.2365	51.111
2.2355	51.112
2.2345	51.111
2.2336	51.110
2.2326	51.109
2.2317	51.107
2.2307	51.106
2.2297	51.107
2.2288	51.110
2.2278	51.114
2.2269	51.117
2.2259	51.119
2.2250	51.117
2.2240	51.111
2.2231	51.101
2.2221	51.090
2.2211	51.080
2.2202	51.075
2.2192	51.077
2.2183	51.083
2.2173	51.093
2.2164	51.103
2.2155	51.108
2.2145	51.107
2.2136	51.100
2.2126	51.089
2.2117	51.076
2.2107	51.063
2.2098	51.054
2.2088	51.048
2.2079	51.045
2.2070	51.045
2.2060	51.047
2.2051	51.050
2.2041	51.052
2.2032	51.051
2.2023	51.047
2.2013	51.041
2.2004	51.034
2.1995	51.028
2.1985	51.025
2.1976	51.025
2.1967	51.024
2.1957	51.021
2.1948	51.014
2.1939	51.004
2.1930	50.993
2.1920	50.984
2.1911	50.980
2.1902	50.982
2.1893	50.989
2.1883	50.998
2.1874	51.007
2.1865	51.014
2.1856	51.018
2.1846	51.018
2.1837	51.016
2.1828	51.015
2.1819	51.013
2.1810	51.013
2.1800	51.013
2.1791	51.014
2.1782	51.015
2.1773	51.014
2.1764	51.014
2.1755	51.015
2.1746	51.016
2.1736	51.018
2.1727	51.020
2.1718	51.020
2.1709	51.016
2.1700	51.009
2.1691	51.000
2.1682	50.994
2.1673	50.992
2.1664	50.995
2.1655	51.002
2.1646	51.010
2.1637	51.015
2.1628	51.015
2.1619	51.010
2.1610	51.003
2.1601	50.996
2.1592	50.993
2.1583	50.995
2.1574	51.001
2.1565	51.007
2.1556	51.012
2.1547	51.012
2.1538	51.007
2.1529	50.998
2.1520	50.989
2.1511	50.984
2.1502	50.984
2.1493	50.990
2.1484	50.998
2.1475	51.005
2.1466	51.007
2.1458	51.004
2.1449	50.997
2.1440	50.991
2.1431	50.984
2.1422	50.978
2.1413	50.971
2.1404	50.960
2.1396	50.947
2.1387	50.934
2.1378	50.926
2.1369	50.926
2.1360	50.933
2.1352	50.943
2.1343	50.953
2.1334	50.957
2.1325	50.954
2.1316	50.946
2.1308	50.936
2.1299	50.926
2.1290	50.917
2.1281	50.914
2.1273	50.914
2.1264	50.916
2.1255	50.916
2.1247	50.915
2.1238	50.912
2.1229	50.907
2.1220	50.902
2.1212	50.899
2.1203	50.898
2.1194	50.897
2.1186	50.898
2.1177	50.898
2.1168	50.897
2.1160	50.895
2.1151	50.890
2.1143	50.883
2.1134	50.876
2.1125	50.870
2.1117	50.868
2.1108	50.872
2.1100	50.879
2.1091	50.887
2.1082	50.892
2.1074	50.892
2.1065	50.886
2.1057	50.876
2.1048	50.863
2.1040	50.851
2.1031	50.839
2.1023	50.830
2.1014	50.826
2.1005	50.826
2.0997	50.830
2.0988	50.836
2.0980	50.842
2.0971	50.847
2.0963	50.847
2.0955	50.842
2.0946	50.835
2.0938	50.827
2.0929	50.819
2.0921	50.812
2.0912	50.806
2.0904	50.800
2.0895	50.791
2.0887	50.781
2.0879	50.774
2.0870	50.771
2.0862	50.776
2.0853	50.786
2.0845	50.806
2.0837	50.826
2.0828	50.832
2.0820	50.860
2.0812	50.818
2.0803	50.781
2.0795	50.794
2.0760	50.794
2.0720	50.794
2.0680	50.562
2.0640	50.562
2.0600	50.519
2.0560	50.751
2.0520	50.519
2.0480	50.393
2.0440	50.540
2.0400	50.498
2.0360	50.091
2.0320	49.884
2.0280	49.854
2.0240	49.895
2.0200	49.978
2.0160	49.937
2.0120	49.720
2.0080	49.639
2.0040	49.557
2.0000	49.517
1.9960	49.303
1.9920	49.343
1.9880	49.356
1.9840	49.356
1.9800	49.275
1.9760	49.155
1.9720	48.931
1.9680	48.800
1.9640	48.721
1.9600	48.563
1.9560	48.603
1.9520	48.563
1.9480	48.432
1.9440	48.340
1.9400	48.103
1.9360	48.075
1.9320	48.039
1.9280	47.870
1.9240	47.708
1.9200	47.428
1.9160	47.483
1.9120	47.576
1.9080	47.483
1.9040	47.483
1.9000	47.643
1.8960	47.626
1.8920	47.800
1.8880	47.785
1.8840	47.723
1.8800	48.397
1.8760	48.878
1.8720	49.078
1.8680	48.695
1.8640	48.206
1.8600	47.948
1.8560	47.943
1.8520	48.410
1.8480	48.367
1.8440	48.494
1.8400	48.610
1.8360	48.728
1.8320	48.571
1.8280	48.287
1.8240	48.287
1.8200	47.842
1.8160	47.805
1.8120	47.872
1.8080	47.834
1.8040	48.036
1.8000	48.036
1.7960	47.760
1.7920	47.834
1.7880	47.961
1.7840	47.693
1.7800	47.588
1.7760	47.513
1.7720	47.439
1.7680	47.125
1.7640	47.125
1.7600	46.956
1.7560	46.919
1.7520	46.988
1.7480	47.093
1.7440	47.203
1.7400	47.276
1.7360	47.250
1.7320	47.271
1.7280	47.345
1.7240	47.345
1.7200	47.361
1.7160	47.535
1.7120	47.393
1.7080	47.507
1.7040	47.208
1.7000	46.945
1.6960	47.323
1.6920	46.945
1.6880	47.018
1.6840	46.587
1.6800	46.956
1.6760	46.992
1.6720	46.823
1.6680	46.661
1.6640	46.697
1.6600	46.555
1.6560	46.482
1.6520	46.481
1.6480	46.678
1.6440	47.005
1.6400	46.859
1.6360	47.038
1.6320	47.148
1.6280	46.448
1.6240	46.376
1.6200	46.304
1.6160	45.983
1.6120	45.947
1.6080	46.161
1.6040	46.430
1.6000	46.377
1.5960	46.089
1.5920	46.377
1.5880	46.341
1.5840	46.197
1.5800	45.891
1.5760	45.657
1.5720	45.856
1.5680	45.804
1.5640	45.913
1.5600	45.383
1.5560	45.137
1.5520	45.009
1.5480	45.147
1.5440	45.202
1.5400	45.295
1.5360	45.609
1.5320	45.804
1.5280	45.839
1.5240	45.733
1.5200	45.147
1.5160	45.078
1.5120	45.182
1.5080	45.497
1.5040	45.619
1.5000	45.431
1.4960	45.138
1.4920	44.732
1.4880	44.684
1.4840	44.615
1.4800	44.479
1.4760	44.500
1.4720	44.466
1.4680	44.877
1.4640	45.016
1.4600	44.877
1.4560	44.843
1.4520	44.739
1.4480	44.547
1.4440	44.594
1.4400	44.686
1.4360	44.575
1.4320	44.644
1.4280	44.485
1.4240	44.292
1.4200	44.258
1.4160	44.078
1.4120	44.068
1.4080	44.118
1.4040	44.290
1.4000	44.298
1.3960	44.333
1.3920	44.195
1.3880	43.899
1.3840	43.594
1.3800	43.911
1.3760	44.083
1.3720	43.874
1.3680	43.818
1.3640	43.964
1.3600	43.828
1.3560	43.759
1.3520	43.705
1.3480	43.593
1.3440	43.616
1.3400	43.540
1.3360	43.517
1.3320	43.359
1.3280	43.335
1.3240	43.199
1.3200	43.312
1.3160	43.288
1.3120	43.255
1.3080	43.166
1.3040	43.012
1.3000	43.012
1.2960	42.834
1.2920	42.931
1.2880	42.817
1.2840	42.890
1.2800	42.848
1.2760	42.864
1.2720	42.592
1.2680	42.599
1.2640	42.946
1.2600	42.946
1.2560	42.789
1.2520	42.789
1.2480	42.483
1.2440	42.289
1.2400	42.297
1.2360	42.329
1.2320	42.543
1.2280	42.856
1.2240	42.725
1.2200	42.692
1.2160	42.666
1.2120	42.569
1.2080	42.349
1.2040	42.349
1.2000	42.349
1.1960	42.236
1.1920	42.140
1.1880	41.947
1.1840	41.915
1.1800	41.973
1.1760	41.969
1.1720	41.906
1.1680	41.906
1.1640	41.826
1.1600	41.911
1.1560	41.978
1.1520	42.023
1.1480	42.264
1.1440	42.024
1.1400	42.147
1.1360	41.969
1.1320	41.874
1.1280	42.086
1.1240	42.182
1.1200	42.100
1.1160	41.950
1.1120	42.323
1.1080	42.109
1.1040	41.800
1.1000	41.878
1.0960	42.077
1.0920	42.159
1.0880	42.163
1.0840	42.081
1.0800	42.186
1.0760	42.281
1.0720	42.072
1.0680	41.812
1.0640	41.493
1.0600	41.437
1.0560	41.549
1.0520	41.756
1.0480	41.571
1.0440	41.555
1.0400	41.530
1.0360	41.686
1.0320	42.140
1.0280	42.013
1.0240	41.805
1.0200	41.986
1.0160	42.017
1.0120	41.617
1.0080	41.471
1.0040	41.805
1.0000	41.648
0.99600	41.910
0.99200	41.775
0.98800	41.822
0.98400	41.636
0.98000	41.808
0.97600	41.459
0.97200	41.530
0.96800	41.581
0.96400	41.615
0.96000	41.581
0.95600	41.612
0.95200	41.608
0.94800	41.518
0.94400	41.699
0.94000	41.816
0.93600	41.574
0.93200	41.605
0.92800	41.599
0.92400	41.799
0.92000	41.599
0.91600	41.737
0.91200	41.706
0.90800	41.768
0.90400	41.706
0.90000	41.768
0.89600	41.737
0.89200	41.647
0.88800	41.500
0.88400	41.562
0.88000	41.552
0.87600	41.556
0.87200	41.685
0.86800	41.532
0.86400	41.445
0.86000	41.581
0.85600	41.420
0.85200	41.360
0.84800	41.407
0.84400	41.181
0.84000	41.181
0.83600	41.246
0.83200	40.997
0.82800	41.057
0.82400	40.873
0.82000	41.241
0.81600	41.061
0.81200	40.728
0.80800	41.149
0.80400	40.997
0.80000	41.265
0.79900	41.265
0.79800	41.265
0.79700	41.326
0.79600	41.399
0.79500	41.691
0.79400	41.847
0.79300	41.715
0.79200	41.752
0.79100	41.712
0.79000	41.689
0.78900	41.363
0.78800	41.193
0.78700	41.229
0.78600	41.023
0.78500	41.265
0.78400	41.263
0.78300	41.457
0.78200	41.375
0.78100	41.275
0.78000	41.457
0.77900	41.861
0.77800	41.786
0.77700	41.323
0.77600	41.023
0.77500	41.142
0.77400	41.142
0.77300	41.238
0.77200	41.199
0.77100	41.105
0.77000	41.194
0.76900	41.214
0.76800	41.586
0.76700	41.710
0.76600	41.515
0.76500	41.332
0.76400	41.750
0.76300	41.673
0.76200	41.505
0.76100	41.605
0.76000	41.659
0.75900	41.259
0.75800	41.066
0.75700	40.873
0.75600	41.211
0.75500	41.552
0.75400	41.681
0.75300	41.102
0.75200	41.138
0.75100	41.138
0.75000	40.969
0.74900	41.114
0.74800	41.308
0.74700	41.599
0.74600	41.622
0.74500	41.599
0.74400	41.750
0.74300	41.090
0.74200	41.422
0.74100	41.731
0.74000	41.733
0.73900	40.968
0.73800	41.357
0.73700	41.308
0.73600	41.289
0.73500	41.114
0.73400	41.357
0.73300	41.413
0.73200	41.679
0.73100	41.553
0.73000	41.253
0.72900	41.570
0.72800	41.779
0.72700	41.741
0.72600	42.049
0.72500	41.854
0.72400	41.607
0.72300	41.704
0.72200	41.590
0.72100	41.644
0.72000	41.542
0.71900	41.959
0.71800	42.095
0.71700	42.252
0.71600	42.002
0.71500	41.679
0.71400	41.289
0.71300	41.463
0.71200	41.984
0.71100	41.768
0.71000	41.919
0.70900	41.806
0.70800	41.980
0.70700	41.754
0.70600	41.731
0.70500	41.866
0.70400	41.980
0.70300	41.962
0.70200	41.864
0.70100	41.575
0.70000	41.564
0.69900	42.102
0.69800	41.867
0.69700	42.230
0.69600	42.074
0.69500	42.051
0.69400	42.051
0.69300	42.213
0.69200	42.097
0.69100	42.352
0.69000	42.413
0.68900	42.731
0.68800	42.652
0.68700	42.552
0.68600	42.552
0.68500	42.631
0.68400	42.352
0.68300	42.552
0.68200	42.613
0.68100	42.613
0.68000	42.531
0.67900	42.570
0.67800	42.531
0.67700	42.452
0.67600	42.352
0.67500	42.470
0.67400	42.570
0.67300	42.671
0.67200	42.313
0.67100	42.850
0.67000	43.113
0.66900	42.951
0.66800	42.709
0.66700	42.810
0.66600	42.771
0.66500	42.831
0.66400	42.713
0.66300	42.574
0.66200	42.929
0.66100	42.828
0.66000	42.951
0.65900	42.950
0.65800	43.253
0.65700	43.071
0.65600	42.972
0.65500	42.911
0.65400	42.832
0.65300	42.953
0.65200	42.752
0.65100	42.873
0.65000	42.795
0.64900	42.578
0.64800	42.577
0.64700	43.011
0.64600	43.557
0.64500	43.252
0.64400	43.253
0.64300	43.274
0.64200	42.972
0.64100	42.932
0.64000	43.415
0.63900	43.336
0.63800	43.012
0.63700	42.913
0.63600	42.795
0.63500	43.213
0.63400	43.353
0.63300	43.313
0.63200	42.774
0.63100	42.972
0.63000	42.953
0.62900	42.873
0.62800	42.634
0.62700	42.734
0.62600	43.073
0.62500	43.474
0.62400	43.233
0.62300	43.113
0.62200	43.233
0.62100	43.193
0.62000	43.113
0.61900	43.496
0.61800	43.498
0.61700	43.071
0.61600	42.950
0.61500	43.072
0.61400	42.912
0.61300	42.953
0.61200	43.374
0.61100	43.557
0.61000	43.415
0.60900	43.374
0.60800	43.334
0.60700	43.232
0.60600	43.312
0.60500	43.273
0.60400	43.273
0.60300	43.355
0.60200	43.375
0.60100	43.170
0.60000	43.415
0.59900	43.436
0.59800	42.943
0.59700	42.941
0.59600	43.478
0.59500	43.418
0.59400	43.333
0.59300	43.665
0.59200	43.275
0.59100	43.647
0.59000	43.747
0.58900	43.625
0.58800	43.689
0.58700	43.295
0.58600	43.689
0.58500	43.895
0.58400	43.456
0.58300	43.439
0.58200	42.922
0.58100	43.292
0.58000	43.419
0.57900	43.605
0.57800	43.667
0.57700	43.500
0.57600	43.398
0.57500	43.850
0.57400	43.870
0.57300	44.027
0.57200	43.557
0.57100	43.517
0.57000	43.355
0.56900	43.212
0.56800	43.415
0.56700	43.577
0.56600	43.721
0.56500	43.679
0.56400	43.395
0.56300	43.558
0.56200	43.517
0.56100	43.416
0.56000	43.686
0.55900	43.643
0.55800	43.643
0.55700	44.159
0.55600	43.887
0.55500	43.616
0.55400	43.887
0.55300	43.787
0.55200	43.802
0.55100	43.716
0.55000	43.531
0.54900	44.056
0.54800	43.928
0.54700	43.890
0.54600	44.080
0.54500	44.056
0.54400	43.804
0.54300	44.032
0.54200	44.271
0.54100	44.070
0.54000	44.071
0.53900	43.935
0.53800	44.177
0.53700	43.859
0.53600	43.758
0.53500	43.820
0.53400	43.998
0.53300	43.818
0.53200	43.555
0.53100	43.319
0.53000	43.294
0.52900	43.281
0.52800	43.504
0.52700	43.467
0.52600	43.366
0.52500	43.567
0.52400	43.542
0.52300	43.028
0.52200	43.267
0.52100	43.229
0.52000	43.554
0.51900	43.516
0.51800	43.404
0.51700	43.139
0.51600	43.002
0.51500	43.113
0.51400	42.901
0.51300	42.938
0.51200	42.618
0.51100	42.681
0.51000	42.827
0.50900	42.854
0.50800	43.038
0.50700	43.160
0.50600	43.021
0.50500	42.910
0.50400	42.782
0.50300	42.662
0.50200	42.819
0.50100	43.274
0.50000	43.005
0.49900	42.435
0.49800	42.406
0.49700	42.442
0.49600	42.096
0.49500	42.204
0.49400	41.931
0.49300	42.240
0.49200	42.422
0.49100	42.809
0.49000	42.321
0.48900	42.319
0.48800	42.252
0.48700	42.038
0.48600	42.108
0.48500	41.808
0.48400	42.115
0.48300	42.223
0.48200	42.043
0.48100	42.043
0.48000	41.854
0.47900	41.823
0.47800	42.033
0.47700	41.640
0.47600	42.088
0.47500	42.016
0.47400	41.925
0.47300	41.647
0.47200	41.475
0.47100	41.369
0.47000	41.471
0.46900	41.328
0.46800	41.436
0.46700	40.992
0.46600	41.026
0.46500	40.755
0.46400	41.164
0.46300	41.199
0.46200	41.304
0.46100	41.128
0.46000	40.651
0.45900	42.280
0.45800	42.394
0.45700	42.194
0.45600	42.472
0.45500	42.158
0.45400	42.325
0.45300	42.287
0.45200	42.222
0.45100	42.080
0.45000	42.258
0.44900	42.056
0.44800	41.947
0.44700	41.879
0.44600	41.882
0.44500	41.878
0.44400	41.882
0.44300	41.560
0.44200	41.488
0.44100	41.776
0.44000	41.561
0.43900	41.631
0.43800	41.666
0.43700	41.731
0.43600	41.944
0.43500	41.806
0.43400	41.592
0.43300	41.448
0.43200	41.274
0.43100	41.377
0.43000	41.342
0.42900	41.440
0.42800	41.336
0.42700	41.096
0.42600	41.162
0.42500	40.875
0.42400	41.047
0.42300	41.124
0.42200	40.758
0.42100	40.608
0.42000	40.853
0.41900	41.100
0.41800	41.069
0.41700	40.712
0.41600	40.496
0.41500	40.469
0.41400	40.707
0.41300	40.358
0.41200	40.300
0.41100	40.242
0.41000	40.132
0.40900	40.445
0.40800	40.333
0.40700	40.365
0.40600	40.106
0.40500	39.936
0.40400	40.033
0.40300	40.033
0.40200	40.065
0.40100	40.049
0.40000	40.056
