Name: Marble 
Type:  Rocks
Class:  Metamorphic 
Subclass:  Marble 
Particle Size:  0-75 Micrometer
Sample No.:  marble3.doc
Owner:  JHU
Wavelength Range:  All
Origin:  Sample No. 456, The Hunt and Salisbury Collection at the U.S. 
Geological Survey, Denver, Co.
Description: This is a medium-grained sample containing anhedral calcite 
with a few scattered (small) regions of recrystallized quartz.




Measurement:  Directional (10 Degree) Hemispherical Reflectance
First Column:  X
Second Column:  Y  
X Units:  Wavelength (micrometers)
Y Units:  Reflectance (percent)
First X Value: 14.0112
Last X Value:  0.4
Number of X Values: 2844
Additional Information:  None

14.983	35.328
14.940	36.083
14.897	36.861
14.854	37.436
14.812	37.710
14.770	37.838
14.728	37.946
14.686	37.851
14.645	37.730
14.603	37.590
14.562	37.014
14.521	35.979
14.481	34.736
14.441	33.250
14.400	31.425
14.361	29.357
14.321	26.974
14.281	24.087
14.242	20.512
14.203	16.330
14.164	12.029
14.126	7.9504
14.087	4.4571
14.049	2.0511
14.011	1.1062
13.973	1.9246
13.936	4.5225
13.899	8.5337
13.861	13.515
13.824	18.829
13.788	23.709
13.751	27.709
13.715	30.875
13.679	33.400
13.643	35.465
13.607	37.207
13.571	38.702
13.536	39.938
13.500	40.903
13.465	41.601
13.430	42.068
13.396	42.314
13.361	42.390
13.327	42.326
13.293	42.120
13.259	41.765
13.225	41.278
13.191	40.663
13.158	39.921
13.124	39.052
13.091	38.087
13.058	37.060
13.026	36.043
12.993	35.153
12.960	34.466
12.928	34.002
12.896	33.738
12.864	33.609
12.832	33.554
12.800	33.559
12.769	33.651
12.737	33.900
12.706	34.307
12.675	34.807
12.644	35.326
12.614	35.793
12.583	36.161
12.552	36.468
12.522	36.774
12.492	37.120
12.462	37.495
12.432	37.852
12.402	38.099
12.373	38.198
12.343	38.216
12.314	38.282
12.285	38.461
12.256	38.777
12.227	39.188
12.198	39.614
12.169	39.926
12.141	40.092
12.113	40.136
12.084	40.075
12.056	39.890
12.028	39.595
12.000	39.183
11.973	38.658
11.945	38.016
11.918	36.993
11.890	34.153
11.863	29.001
11.836	23.701
11.809	20.056
11.782	18.549
11.755	19.093
11.729	21.170
11.702	23.465
11.676	23.783
11.650	21.650
11.624	18.846
11.598	16.124
11.572	13.354
11.546	10.580
11.520	8.0551
11.495	6.0011
11.469	4.5994
11.444	3.8906
11.419	3.7483
11.394	3.8468
11.369	3.9615
11.344	4.6274
11.319	6.5816
11.294	9.7952
11.270	13.896
11.245	18.376
11.221	22.594
11.197	25.885
11.173	28.041
11.149	29.572
11.125	30.960
11.101	32.134
11.077	33.063
11.054	33.830
11.030	34.518
11.007	35.150
10.983	35.744
10.960	36.256
10.937	36.622
10.914	36.779
10.891	36.707
10.868	36.390
10.846	35.863
10.823	35.162
10.800	34.344
10.778	33.455
10.755	32.577
10.733	31.806
10.711	31.228
10.689	30.879
10.667	30.766
10.645	30.809
10.623	30.891
10.602	30.923
10.580	30.906
10.558	30.903
10.537	31.019
10.516	31.325
10.494	31.834
10.473	32.473
10.452	33.131
10.431	33.703
10.410	34.141
10.389	34.440
10.368	34.617
10.348	34.668
10.327	34.591
10.306	34.329
10.286	33.802
10.266	33.069
10.245	32.329
10.225	31.752
10.205	31.430
10.185	31.364
10.165	31.441
10.145	31.441
10.125	31.203
10.106	30.736
10.086	30.172
10.066	29.622
10.047	29.174
10.027	28.868
10.008	28.670
9.9887	28.518
9.9695	28.361
9.9504	28.137
9.9313	27.844
9.9123	27.514
9.8934	27.218
9.8746	27.041
9.8558	27.037
9.8371	27.203
9.8185	27.470
9.7999	27.751
9.7814	28.021
9.7630	28.308
9.7447	28.711
9.7264	29.310
9.7082	30.121
9.6900	31.069
9.6719	32.002
9.6539	32.764
9.6360	33.265
9.6181	33.516
9.6003	33.663
9.5825	33.835
9.5649	34.102
9.5472	34.465
9.5297	34.856
9.5122	35.194
9.4948	35.409
9.4774	35.471
9.4601	35.428
9.4429	35.250
9.4257	34.839
9.4086	34.264
9.3916	33.661
9.3746	33.164
9.3577	32.901
9.3408	32.944
9.3240	33.312
9.3073	33.813
9.2906	33.897
9.2740	33.366
9.2574	32.474
9.2409	31.570
9.2245	31.077
9.2081	31.207
9.1918	31.976
9.1755	33.124
9.1593	34.099
9.1431	34.656
9.1270	34.906
9.1110	34.961
9.0950	34.988
9.0791	35.006
9.0632	35.014
9.0474	35.007
9.0316	34.974
9.0159	34.908
9.0003	34.821
8.9847	34.680
8.9691	34.498
8.9536	34.266
8.9382	34.007
8.9228	33.742
8.9075	33.481
8.8922	33.243
8.8770	33.037
8.8618	32.845
8.8467	32.647
8.8316	32.400
8.8166	32.075
8.8016	31.638
8.7867	31.089
8.7718	30.413
8.7570	29.610
8.7422	28.694
8.7275	27.724
8.7129	26.732
8.6982	25.726
8.6837	24.682
8.6692	23.576
8.6547	22.384
8.6403	21.132
8.6259	19.909
8.6116	18.884
8.5973	18.162
8.5830	17.775
8.5688	17.664
8.5547	17.679
8.5406	17.671
8.5266	17.556
8.5126	17.324
8.4986	17.069
8.4847	16.903
8.4708	16.894
8.4570	17.024
8.4432	17.237
8.4295	17.494
8.4158	17.791
8.4022	18.125
8.3886	18.508
8.3750	18.931
8.3615	19.362
8.3481	19.751
8.3347	20.049
8.3213	20.269
8.3079	20.456
8.2946	20.628
8.2814	20.786
8.2682	20.929
8.2550	21.058
8.2419	21.174
8.2288	21.256
8.2158	21.284
8.2028	21.244
8.1898	21.120
8.1769	20.928
8.1640	20.708
8.1512	20.492
8.1384	20.293
8.1256	20.095
8.1129	19.854
8.1002	19.560
8.0876	19.253
8.0750	19.000
8.0624	18.854
8.0499	18.850
8.0374	18.958
8.0250	19.122
8.0126	19.272
8.0002	19.355
7.9879	19.355
7.9756	19.263
7.9634	19.065
7.9512	18.769
7.9390	18.399
7.9268	18.006
7.9147	17.660
7.9027	17.419
7.8906	17.298
7.8786	17.281
7.8667	17.305
7.8548	17.288
7.8429	17.169
7.8310	16.941
7.8192	16.653
7.8075	16.375
7.7957	16.147
7.7840	15.992
7.7723	15.892
7.7607	15.805
7.7491	15.684
7.7375	15.499
7.7260	15.237
7.7145	14.904
7.7031	14.504
7.6916	14.061
7.6802	13.596
7.6689	13.131
7.6575	12.672
7.6462	12.236
7.6350	11.831
7.6238	11.462
7.6126	11.140
7.6014	10.878
7.5903	10.671
7.5792	10.512
7.5681	10.388
7.5571	10.295
7.5461	10.218
7.5351	10.142
7.5242	10.054
7.5133	9.9529
7.5024	9.8286
7.4916	9.6768
7.4807	9.5006
7.4700	9.3092
7.4592	9.1041
7.4485	8.8849
7.4378	8.6632
7.4272	8.4527
7.4165	8.2547
7.4059	8.0641
7.3954	7.8727
7.3848	7.6740
7.3743	7.4597
7.3639	7.2196
7.3534	6.9501
7.3430	6.6541
7.3326	6.3493
7.3223	6.0504
7.3119	5.7636
7.3016	5.5019
7.2914	5.2739
7.2811	5.0835
7.2709	4.9243
7.2607	4.7891
7.2506	4.6679
7.2404	4.5535
7.2303	4.4415
7.2203	4.3389
7.2102	4.2473
7.2002	4.1765
7.1902	4.1412
7.1803	4.1459
7.1703	4.1627
7.1604	4.1843
7.1506	4.2229
7.1407	4.2994
7.1309	4.4176
7.1211	4.5765
7.1113	4.7721
7.1016	4.9767
7.0919	5.1401
7.0822	5.2403
7.0725	5.2819
7.0629	5.2898
7.0533	5.2845
7.0437	5.2770
7.0341	5.2753
7.0246	5.2744
7.0151	5.2632
7.0056	5.2474
6.9962	5.2251
6.9867	5.1993
6.9773	5.1749
6.9679	5.1567
6.9586	5.1417
6.9493	5.1287
6.9400	5.1226
6.9307	5.1370
6.9214	5.1699
6.9122	5.2192
6.9030	5.2841
6.8938	5.3523
6.8847	5.4020
6.8755	5.4337
6.8664	5.4555
6.8573	5.4799
6.8483	5.5107
6.8393	5.5562
6.8302	5.6227
6.8213	5.6921
6.8123	5.7534
6.8034	5.8089
6.7944	5.8612
6.7855	5.9142
6.7767	5.9614
6.7678	6.0137
6.7590	6.0847
6.7502	6.1700
6.7414	6.2647
6.7327	6.3701
6.7239	6.4835
6.7152	6.6050
6.7065	6.7289
6.6979	6.8546
6.6892	6.9896
6.6806	7.1260
6.6720	7.2541
6.6634	7.3773
6.6549	7.5007
6.6464	7.6347
6.6378	7.7789
6.6294	7.9440
6.6209	8.1384
6.6124	8.3492
6.6040	8.5666
6.5956	8.7826
6.5872	9.0042
6.5789	9.2280
6.5705	9.4430
6.5622	9.6526
6.5539	9.8594
6.5456	10.061
6.5374	10.259
6.5292	10.461
6.5209	10.664
6.5128	10.870
6.5046	11.091
6.4964	11.325
6.4883	11.582
6.4802	11.857
6.4721	12.131
6.4640	12.366
6.4560	12.485
6.4480	12.438
6.4399	12.199
6.4320	11.769
6.4240	11.214
6.4160	10.598
6.4081	9.9884
6.4002	9.4265
6.3923	8.9190
6.3844	8.4543
6.3766	8.0025
6.3687	7.5459
6.3609	7.0578
6.3531	6.5188
6.3454	5.9564
6.3376	5.4112
6.3299	4.9090
6.3221	4.4663
6.3144	4.1047
6.3068	3.8485
6.2991	3.6860
6.2914	3.5939
6.2838	3.5643
6.2762	3.5785
6.2686	3.5915
6.2611	3.5698
6.2535	3.5042
6.2460	3.4215
6.2385	3.3415
6.2310	3.2522
6.2235	3.1629
6.2160	3.0869
6.2086	3.0199
6.2011	2.9678
6.1937	2.9247
6.1863	2.8951
6.1790	2.8752
6.1716	2.8610
6.1643	2.8638
6.1570	2.8849
6.1496	2.9169
6.1424	2.9746
6.1351	3.0521
6.1278	3.1324
6.1206	3.2103
6.1134	3.2920
6.1062	3.3796
6.0990	3.4651
6.0918	3.5458
6.0847	3.6391
6.0776	3.7464
6.0704	3.8618
6.0633	3.9903
6.0563	4.1459
6.0492	4.3354
6.0421	4.5419
6.0351	4.7508
6.0281	4.9748
6.0211	5.2043
6.0141	5.4281
6.0071	5.6528
6.0002	5.8792
5.9932	6.1020
5.9863	6.2972
5.9794	6.4601
5.9725	6.6173
5.9657	6.7822
5.9588	6.9576
5.9520	7.1566
5.9451	7.3891
5.9383	7.6439
5.9315	7.9009
5.9247	8.1569
5.9180	8.4048
5.9112	8.6322
5.9045	8.8311
5.8978	9.0002
5.8911	9.1562
5.8844	9.2922
5.8777	9.4103
5.8711	9.5129
5.8644	9.5880
5.8578	9.6209
5.8512	9.6268
5.8446	9.6154
5.8380	9.5955
5.8314	9.5652
5.8249	9.5323
5.8184	9.5055
5.8118	9.4821
5.8053	9.4468
5.7988	9.4042
5.7923	9.3507
5.7859	9.2770
5.7794	9.1908
5.7730	9.1207
5.7666	9.0873
5.7602	9.1134
5.7538	9.2055
5.7474	9.3696
5.7410	9.5927
5.7347	9.8499
5.7283	10.123
5.7220	10.416
5.7157	10.717
5.7094	11.024
5.7031	11.317
5.6969	11.624
5.6906	11.979
5.6844	12.387
5.6782	12.848
5.6719	13.394
5.6657	14.009
5.6596	14.625
5.6534	15.138
5.6472	15.489
5.6411	15.640
5.6349	15.527
5.6288	15.083
5.6227	14.281
5.6166	13.106
5.6106	11.546
5.6045	9.6190
5.5984	7.4855
5.5924	5.4375
5.5864	3.7381
5.5804	2.5055
5.5744	1.7370
5.5684	1.3792
5.5624	1.4195
5.5564	1.9353
5.5505	3.0734
5.5445	4.9265
5.5386	7.4081
5.5327	10.263
5.5268	13.150
5.5209	15.770
5.5151	18.010
5.5092	19.925
5.5033	21.619
5.4975	23.152
5.4917	24.565
5.4859	25.895
5.4801	27.154
5.4743	28.352
5.4685	29.511
5.4628	30.652
5.4570	31.790
5.4513	32.921
5.4455	34.042
5.4398	35.138
5.4341	36.211
5.4284	37.266
5.4228	38.297
5.4171	39.297
5.4114	40.259
5.4058	41.182
5.4002	42.071
5.3945	42.923
5.3889	43.761
5.3833	44.586
5.3778	45.388
5.3722	46.157
5.3666	46.881
5.3611	47.569
5.3555	48.243
5.3500	48.908
5.3445	49.574
5.3390	50.254
5.3335	50.941
5.3280	51.624
5.3225	52.297
5.3171	52.951
5.3116	53.581
5.3062	54.180
5.3008	54.747
5.2954	55.279
5.2900	55.771
5.2846	56.222
5.2792	56.649
5.2738	57.072
5.2684	57.491
5.2631	57.909
5.2578	58.330
5.2524	58.742
5.2471	59.137
5.2418	59.501
5.2365	59.856
5.2312	60.208
5.2260	60.539
5.2207	60.860
5.2154	61.182
5.2102	61.508
5.2050	61.841
5.1998	62.175
5.1945	62.514
5.1893	62.819
5.1842	63.063
5.1790	63.266
5.1738	63.461
5.1686	63.664
5.1635	63.877
5.1584	64.107
5.1532	64.346
5.1481	64.566
5.1430	64.751
5.1379	64.912
5.1328	65.060
5.1277	65.052
5.1227	64.523
5.1176	62.987
5.1126	60.408
5.1075	57.755
5.1025	56.132
5.0975	56.100
5.0925	57.725
5.0875	60.548
5.0825	63.639
5.0775	65.942
5.0726	67.035
5.0676	67.441
5.0627	67.632
5.0577	67.729
5.0528	67.780
5.0479	67.817
5.0430	67.848
5.0380	67.871
5.0332	67.868
5.0283	67.855
5.0234	67.835
5.0185	67.809
5.0137	67.786
5.0088	67.767
5.0040	67.746
4.9992	67.714
4.9944	67.668
4.9896	67.618
4.9848	67.564
4.9800	67.505
4.9752	67.449
4.9704	67.397
4.9657	67.348
4.9609	67.294
4.9562	67.245
4.9514	67.215
4.9467	67.192
4.9420	67.170
4.9373	67.167
4.9326	67.181
4.9279	67.205
4.9232	67.239
4.9186	67.289
4.9139	67.350
4.9092	67.418
4.9046	67.488
4.9000	67.566
4.8953	67.646
4.8907	67.722
4.8861	67.790
4.8815	67.857
4.8769	67.918
4.8723	67.976
4.8678	68.037
4.8632	68.106
4.8586	68.165
4.8541	68.217
4.8495	68.264
4.8450	68.313
4.8405	68.371
4.8360	68.427
4.8315	68.484
4.8270	68.534
4.8225	68.565
4.8180	68.577
4.8135	68.573
4.8090	68.564
4.8046	68.559
4.8001	68.551
4.7957	68.527
4.7913	68.484
4.7868	68.413
4.7824	68.294
4.7780	68.108
4.7736	67.831
4.7692	67.461
4.7648	67.014
4.7605	66.511
4.7561	65.966
4.7517	65.374
4.7474	64.734
4.7431	64.027
4.7387	63.199
4.7344	62.186
4.7301	60.911
4.7258	59.306
4.7215	57.355
4.7172	55.119
4.7129	52.712
4.7086	50.301
4.7043	48.056
4.7000	46.090
4.6958	44.432
4.6915	43.091
4.6873	42.063
4.6831	41.330
4.6788	40.835
4.6746	40.543
4.6704	40.462
4.6662	40.596
4.6620	40.979
4.6578	41.670
4.6536	42.694
4.6495	44.053
4.6453	45.689
4.6411	47.473
4.6370	49.246
4.6328	50.891
4.6287	52.378
4.6246	53.692
4.6205	54.818
4.6163	55.758
4.6122	56.507
4.6081	57.075
4.6040	57.491
4.6000	57.795
4.5959	58.044
4.5918	58.265
4.5877	58.468
4.5837	58.629
4.5796	58.731
4.5756	58.804
4.5716	58.869
4.5675	58.931
4.5635	58.985
4.5595	59.038
4.5555	59.091
4.5515	59.130
4.5475	59.154
4.5435	59.169
4.5395	59.174
4.5356	59.184
4.5316	59.205
4.5276	59.239
4.5237	59.287
4.5197	59.338
4.5158	59.395
4.5119	59.472
4.5080	59.580
4.5040	59.743
4.5001	59.977
4.4962	60.293
4.4923	60.698
4.4884	61.178
4.4846	61.718
4.4807	62.296
4.4768	62.874
4.4730	63.429
4.4691	63.943
4.4652	64.403
4.4614	64.812
4.4576	65.191
4.4537	65.570
4.4499	65.972
4.4461	66.404
4.4423	66.859
4.4385	67.326
4.4347	67.777
4.4309	68.183
4.4271	68.530
4.4233	68.822
4.4196	69.086
4.4158	69.325
4.4120	69.531
4.4083	69.709
4.4045	69.871
4.4008	70.022
4.3971	70.163
4.3934	70.300
4.3896	70.441
4.3859	70.563
4.3822	70.637
4.3785	70.643
4.3748	70.567
4.3711	70.400
4.3674	70.121
4.3638	69.726
4.3601	69.254
4.3564	68.770
4.3528	68.335
4.3491	67.989
4.3455	67.743
4.3418	67.593
4.3382	67.508
4.3346	67.457
4.3310	67.428
4.3273	67.404
4.3237	67.369
4.3201	67.335
4.3165	67.315
4.3129	67.338
4.3094	67.436
4.3058	67.609
4.3022	67.822
4.2986	68.024
4.2951	68.180
4.2915	68.286
4.2880	68.340
4.2844	68.362
4.2809	68.359
4.2774	68.318
4.2738	68.230
4.2703	68.103
4.2668	67.948
4.2633	67.778
4.2598	67.608
4.2563	67.457
4.2528	67.326
4.2493	67.200
4.2458	67.071
4.2424	66.930
4.2389	66.763
4.2354	66.568
4.2320	66.367
4.2285	66.176
4.2251	66.012
4.2216	65.869
4.2182	65.748
4.2148	65.627
4.2113	65.476
4.2079	65.295
4.2045	65.093
4.2011	64.870
4.1977	64.627
4.1943	64.370
4.1909	64.117
4.1875	63.854
4.1841	63.571
4.1808	63.279
4.1774	62.985
4.1740	62.678
4.1707	62.353
4.1673	62.021
4.1640	61.686
4.1606	61.329
4.1573	60.942
4.1540	60.531
4.1506	60.095
4.1473	59.620
4.1440	59.109
4.1407	58.563
4.1374	57.984
4.1341	57.370
4.1308	56.731
4.1275	56.081
4.1242	55.423
4.1209	54.759
4.1177	54.099
4.1144	53.442
4.1111	52.784
4.1079	52.130
4.1046	51.487
4.1014	50.843
4.0981	50.192
4.0949	49.521
4.0917	48.818
4.0884	48.065
4.0852	47.256
4.0820	46.404
4.0788	45.501
4.0756	44.545
4.0724	43.559
4.0692	42.562
4.0660	41.561
4.0628	40.530
4.0596	39.427
4.0565	38.192
4.0533	36.732
4.0501	34.996
4.0470	32.993
4.0438	30.804
4.0406	28.574
4.0375	26.428
4.0344	24.441
4.0312	22.649
4.0281	21.043
4.0250	19.572
4.0218	18.161
4.0187	16.740
4.0156	15.289
4.0125	13.793
4.0094	12.273
4.0063	10.790
4.0032	9.4224
4.0001	8.2305
3.9970	7.2366
3.9940	6.4232
3.9909	5.7878
3.9878	5.3220
3.9847	5.0132
3.9817	4.8443
3.9786	4.7908
3.9756	4.8268
3.9725	4.9161
3.9695	5.0480
3.9665	5.2407
3.9634	5.5102
3.9604	5.8825
3.9574	6.3836
3.9544	7.0256
3.9513	7.8275
3.9483	8.8200
3.9453	9.9763
3.9423	11.160
3.9393	12.204
3.9363	13.009
3.9333	13.557
3.9304	13.892
3.9274	14.113
3.9244	14.343
3.9214	14.637
3.9185	14.951
3.9155	15.214
3.9126	15.413
3.9096	15.580
3.9067	15.731
3.9037	15.865
3.9008	15.997
3.8979	16.129
3.8949	16.246
3.8920	16.351
3.8891	16.458
3.8862	16.570
3.8833	16.671
3.8804	16.753
3.8775	16.829
3.8746	16.892
3.8717	16.941
3.8688	17.000
3.8659	17.087
3.8630	17.199
3.8601	17.329
3.8573	17.473
3.8544	17.633
3.8515	17.806
3.8487	17.998
3.8458	18.246
3.8430	18.606
3.8401	19.128
3.8373	19.844
3.8344	20.745
3.8316	21.802
3.8288	22.971
3.8259	24.202
3.8231	25.471
3.8203	26.782
3.8175	28.161
3.8147	29.633
3.8119	31.211
3.8091	32.949
3.8063	34.899
3.8035	37.091
3.8007	39.524
3.7979	42.153
3.7951	44.866
3.7924	47.494
3.7896	49.862
3.7868	51.885
3.7841	53.542
3.7813	54.872
3.7785	55.945
3.7758	56.845
3.7730	57.640
3.7703	58.354
3.7676	58.985
3.7648	59.536
3.7621	60.001
3.7594	60.383
3.7566	60.699
3.7539	60.965
3.7512	61.212
3.7485	61.486
3.7458	61.810
3.7431	62.182
3.7404	62.594
3.7377	63.027
3.7350	63.451
3.7323	63.838
3.7296	64.165
3.7269	64.439
3.7242	64.670
3.7216	64.879
3.7189	65.077
3.7162	65.250
3.7136	65.397
3.7109	65.537
3.7083	65.664
3.7056	65.772
3.7030	65.867
3.7003	65.963
3.6977	66.053
3.6950	66.120
3.6924	66.173
3.6898	66.212
3.6872	66.235
3.6845	66.246
3.6819	66.239
3.6793	66.214
3.6767	66.181
3.6741	66.135
3.6715	66.067
3.6689	65.983
3.6663	65.892
3.6637	65.805
3.6611	65.710
3.6585	65.599
3.6560	65.484
3.6534	65.355
3.6508	65.210
3.6482	65.060
3.6457	64.901
3.6431	64.735
3.6406	64.571
3.6380	64.407
3.6355	64.233
3.6329	64.051
3.6304	63.862
3.6278	63.656
3.6253	63.435
3.6227	63.200
3.6202	62.953
3.6177	62.681
3.6152	62.374
3.6127	62.049
3.6101	61.692
3.6076	61.298
3.6051	60.877
3.6026	60.418
3.6001	59.907
3.5976	59.331
3.5951	58.671
3.5926	57.927
3.5901	57.074
3.5876	56.091
3.5852	54.966
3.5827	53.709
3.5802	52.373
3.5777	51.078
3.5753	49.994
3.5728	49.262
3.5704	48.899
3.5679	48.841
3.5654	48.945
3.5630	49.036
3.5605	48.962
3.5581	48.670
3.5557	48.182
3.5532	47.514
3.5508	46.687
3.5484	45.722
3.5459	44.614
3.5435	43.348
3.5411	41.914
3.5387	40.316
3.5363	38.527
3.5338	36.522
3.5314	34.310
3.5290	31.915
3.5266	29.398
3.5242	26.861
3.5218	24.461
3.5195	22.350
3.5171	20.608
3.5147	19.228
3.5123	18.157
3.5099	17.327
3.5075	16.650
3.5052	16.037
3.5028	15.445
3.5004	14.875
3.4981	14.325
3.4957	13.775
3.4934	13.234
3.4910	12.723
3.4887	12.237
3.4863	11.769
3.4840	11.327
3.4816	10.967
3.4793	10.766
3.4770	10.792
3.4746	11.143
3.4723	11.896
3.4700	13.027
3.4677	14.409
3.4653	15.851
3.4630	17.182
3.4607	18.277
3.4584	19.062
3.4561	19.583
3.4538	19.933
3.4515	20.190
3.4492	20.392
3.4469	20.543
3.4446	20.657
3.4423	20.748
3.4400	20.824
3.4378	20.892
3.4355	20.943
3.4332	20.983
3.4309	21.018
3.4287	21.035
3.4264	21.022
3.4241	20.993
3.4219	20.972
3.4196	20.949
3.4174	20.918
3.4151	20.881
3.4129	20.826
3.4106	20.749
3.4084	20.642
3.4061	20.520
3.4039	20.394
3.4017	20.266
3.3994	20.147
3.3972	20.038
3.3950	19.931
3.3928	19.816
3.3906	19.685
3.3883	19.529
3.3861	19.354
3.3839	19.181
3.3817	19.022
3.3795	18.898
3.3773	18.816
3.3751	18.757
3.3729	18.690
3.3707	18.591
3.3685	18.418
3.3663	18.144
3.3641	17.761
3.3620	17.265
3.3598	16.674
3.3576	16.056
3.3554	15.490
3.3533	15.077
3.3511	14.953
3.3489	15.340
3.3468	16.474
3.3446	18.464
3.3425	21.253
3.3403	24.623
3.3382	28.234
3.3360	31.718
3.3339	34.814
3.3317	37.422
3.3296	39.578
3.3274	41.370
3.3253	42.892
3.3232	44.203
3.3210	45.363
3.3189	46.393
3.3168	47.317
3.3147	48.159
3.3126	48.930
3.3104	49.636
3.3083	50.303
3.3062	50.946
3.3041	51.557
3.3020	52.113
3.2999	52.639
3.2978	53.149
3.2957	53.638
3.2936	54.094
3.2915	54.530
3.2894	54.967
3.2874	55.378
3.2853	55.774
3.2832	56.180
3.2811	56.581
3.2790	56.974
3.2770	57.345
3.2749	57.697
3.2728	58.030
3.2708	58.338
3.2687	58.630
3.2666	58.908
3.2646	59.163
3.2625	59.416
3.2605	59.666
3.2584	59.903
3.2564	60.113
3.2543	60.315
3.2523	60.522
3.2503	60.718
3.2482	60.892
3.2462	61.062
3.2442	61.243
3.2421	61.425
3.2401	61.597
3.2381	61.779
3.2361	61.972
3.2340	62.168
3.2320	62.354
3.2300	62.528
3.2280	62.699
3.2260	62.876
3.2240	63.034
3.2220	63.178
3.2200	63.319
3.2180	63.464
3.2160	63.611
3.2140	63.747
3.2120	63.867
3.2100	63.989
3.2080	64.097
3.2060	64.185
3.2040	64.284
3.2021	64.388
3.2001	64.481
3.1981	64.577
3.1961	64.666
3.1942	64.743
3.1922	64.797
3.1902	64.819
3.1883	64.836
3.1863	64.834
3.1844	64.807
3.1824	64.775
3.1805	64.737
3.1785	64.682
3.1766	64.581
3.1746	64.436
3.1727	64.251
3.1707	63.993
3.1688	63.661
3.1669	63.268
3.1649	62.811
3.1630	62.303
3.1611	61.754
3.1591	61.235
3.1572	60.816
3.1553	60.501
3.1534	60.322
3.1515	60.274
3.1495	60.323
3.1476	60.455
3.1457	60.626
3.1438	60.834
3.1419	61.066
3.1400	61.286
3.1381	61.494
3.1362	61.677
3.1343	61.853
3.1324	62.011
3.1305	62.118
3.1286	62.192
3.1268	62.190
3.1249	62.076
3.1230	61.830
3.1211	61.473
3.1192	61.051
3.1174	60.591
3.1155	60.150
3.1136	59.808
3.1117	59.592
3.1099	59.508
3.1080	59.532
3.1061	59.667
3.1043	59.894
3.1024	60.176
3.1006	60.488
3.0987	60.829
3.0969	61.201
3.0950	61.594
3.0932	62.003
3.0913	62.428
3.0895	62.850
3.0876	63.252
3.0858	63.627
3.0840	63.985
3.0821	64.316
3.0803	64.620
3.0785	64.887
3.0766	65.106
3.0748	65.282
3.0730	65.420
3.0712	65.541
3.0694	65.652
3.0675	65.754
3.0657	65.875
3.0639	65.997
3.0621	66.104
3.0603	66.237
3.0585	66.400
3.0567	66.562
3.0549	66.719
3.0531	66.885
3.0513	67.059
3.0495	67.211
3.0477	67.329
3.0459	67.449
3.0441	67.573
3.0423	67.679
3.0406	67.805
3.0388	67.939
3.0370	68.074
3.0352	68.209
3.0334	68.331
3.0317	68.424
3.0299	68.502
3.0281	68.597
3.0264	68.711
3.0246	68.805
3.0228	68.895
3.0211	68.989
3.0193	69.076
3.0176	69.133
3.0158	69.187
3.0140	69.265
3.0123	69.350
3.0105	69.428
3.0088	69.495
3.0070	69.571
3.0053	69.653
3.0036	69.727
3.0018	69.812
3.0001	69.908
2.9984	70.006
2.9966	70.094
2.9949	70.156
2.9932	70.205
2.9914	70.254
2.9897	70.307
2.9880	70.379
2.9863	70.448
2.9845	70.508
2.9828	70.563
2.9811	70.597
2.9794	70.613
2.9777	70.607
2.9760	70.600
2.9743	70.618
2.9726	70.633
2.9709	70.647
2.9692	70.670
2.9675	70.682
2.9658	70.676
2.9641	70.647
2.9624	70.627
2.9607	70.633
2.9590	70.664
2.9573	70.703
2.9556	70.753
2.9539	70.795
2.9523	70.841
2.9506	70.897
2.9489	70.942
2.9472	70.954
2.9455	70.976
2.9439	71.015
2.9422	71.062
2.9405	71.115
2.9389	71.179
2.9372	71.246
2.9355	71.296
2.9339	71.326
2.9322	71.372
2.9306	71.409
2.9289	71.438
2.9272	71.475
2.9256	71.500
2.9239	71.515
2.9223	71.540
2.9207	71.577
2.9190	71.617
2.9174	71.647
2.9157	71.674
2.9141	71.701
2.9124	71.734
2.9108	71.780
2.9092	71.829
2.9075	71.881
2.9059	71.940
2.9043	72.009
2.9027	72.066
2.9010	72.117
2.8994	72.164
2.8978	72.225
2.8962	72.284
2.8946	72.327
2.8929	72.376
2.8913	72.443
2.8897	72.525
2.8881	72.602
2.8865	72.651
2.8849	72.704
2.8833	72.755
2.8817	72.794
2.8801	72.812
2.8785	72.824
2.8769	72.852
2.8753	72.885
2.8737	72.903
2.8721	72.934
2.8705	72.996
2.8689	73.061
2.8673	73.094
2.8658	73.122
2.8642	73.178
2.8626	73.245
2.8610	73.282
2.8594	73.302
2.8579	73.307
2.8563	73.293
2.8547	73.255
2.8531	73.219
2.8516	73.223
2.8500	73.246
2.8484	73.260
2.8469	73.264
2.8453	73.261
2.8437	73.230
2.8422	73.168
2.8406	73.116
2.8391	73.076
2.8375	73.017
2.8360	72.915
2.8344	72.754
2.8329	72.554
2.8313	72.312
2.8298	72.062
2.8282	71.860
2.8267	71.720
2.8252	71.617
2.8236	71.482
2.8221	71.299
2.8205	71.076
2.8190	70.815
2.8175	70.526
2.8159	70.217
2.8144	69.905
2.8129	69.586
2.8114	69.230
2.8098	68.823
2.8083	68.363
2.8068	67.883
2.8053	67.391
2.8038	66.871
2.8022	66.317
2.8007	65.741
2.7992	65.093
2.7977	64.323
2.7962	63.450
2.7947	62.522
2.7932	61.595
2.7917	60.739
2.7902	60.059
2.7887	59.635
2.7872	59.494
2.7857	59.639
2.7842	60.011
2.7827	60.553
2.7812	61.203
2.7797	61.865
2.7782	62.528
2.7767	63.169
2.7752	63.778
2.7738	64.372
2.7723	64.944
2.7708	65.522
2.7693	66.112
2.7678	66.671
2.7664	67.219
2.7649	67.750
2.7634	68.242
2.7619	68.686
2.7605	69.031
2.7590	69.274
2.7575	69.469
2.7561	69.637
2.7546	69.827
2.7531	70.091
2.7517	70.422
2.7502	70.766
2.7488	71.082
2.7473	71.371
2.7458	71.639
2.7444	71.870
2.7429	72.110
2.7415	72.438
2.7400	72.821
2.7386	73.195
2.7371	73.600
2.7357	74.042
2.7343	74.479
2.7328	74.915
2.7314	75.387
2.7299	75.910
2.7285	76.402
2.7271	76.846
2.7256	77.255
2.7242	77.633
2.7228	78.029
2.7213	78.472
2.7199	78.968
2.7185	79.482
2.7171	80.009
2.7156	80.509
2.7142	80.926
2.7128	81.297
2.7114	81.689
2.7100	82.108
2.7085	82.570
2.7071	83.062
2.7057	83.544
2.7043	83.949
2.7029	84.297
2.7015	84.631
2.7001	84.942
2.6987	85.210
2.6973	85.460
2.6959	85.760
2.6945	86.074
2.6931	86.382
2.6917	86.702
2.6903	87.025
2.6889	87.323
2.6875	87.548
2.6861	87.718
2.6847	87.912
2.6833	88.084
2.6819	88.214
2.6805	88.283
2.6791	88.325
2.6778	88.411
2.6764	88.547
2.6750	88.644
2.6736	88.702
2.6722	88.767
2.6709	88.808
2.6695	88.793
2.6681	88.788
2.6667	88.912
2.6654	89.129
2.6640	89.299
2.6626	89.441
2.6613	89.630
2.6599	89.773
2.6585	89.845
2.6572	89.878
2.6558	89.922
2.6545	89.978
2.6531	90.025
2.6517	90.071
2.6504	90.149
2.6490	90.192
2.6477	90.200
2.6463	90.185
2.6450	90.147
2.6436	90.135
2.6423	90.139
2.6409	90.132
2.6396	90.147
2.6382	90.148
2.6369	90.138
2.6356	90.093
2.6342	89.980
2.6329	89.865
2.6315	89.777
2.6302	89.684
2.6289	89.654
2.6275	89.687
2.6262	89.749
2.6249	89.734
2.6236	89.629
2.6222	89.544
2.6209	89.452
2.6196	89.342
2.6183	89.285
2.6169	89.299
2.6156	89.355
2.6143	89.351
2.6130	89.283
2.6117	89.212
2.6103	89.082
2.6090	88.894
2.6077	88.717
2.6064	88.594
2.6051	88.517
2.6038	88.439
2.6025	88.359
2.6012	88.299
2.5999	88.178
2.5986	87.912
2.5973	87.596
2.5960	87.317
2.5947	87.067
2.5934	86.868
2.5921	86.721
2.5908	86.572
2.5895	86.383
2.5882	86.087
2.5869	85.743
2.5856	85.443
2.5843	85.201
2.5830	85.047
2.5817	84.937
2.5805	84.808
2.5792	84.692
2.5779	84.543
2.5766	84.329
2.5753	84.108
2.5741	83.872
2.5728	83.606
2.5715	83.316
2.5702	82.989
2.5690	82.630
2.5677	82.215
2.5664	81.729
2.5651	81.182
2.5639	80.541
2.5626	79.838
2.5613	79.134
2.5601	78.410
2.5588	77.624
2.5575	76.766
2.5563	75.847
2.5550	74.856
2.5538	73.785
2.5525	72.688
2.5513	71.612
2.5500	70.572
2.5487	69.540
2.5475	68.534
2.5462	67.582
2.5450	66.681
2.5437	65.838
2.5425	65.101
2.5413	64.499
2.5400	64.048
2.5388	63.721
2.5375	63.529
2.5363	63.466
2.5350	63.507
2.5338	63.667
2.5326	63.958
2.5313	64.339
2.5301	64.803
2.5289	65.313
2.5276	65.852
2.5264	66.415
2.5252	66.970
2.5239	67.518
2.5227	68.068
2.5215	68.576
2.5202	69.018
2.5190	69.393
2.5178	69.725
2.5166	70.011
2.5154	70.254
2.5141	70.489
2.5129	70.733
2.5117	70.942
2.5105	71.091
2.5093	71.217
2.5081	71.328
2.5068	71.405
2.5056	71.479
2.5044	71.575
2.5032	71.693
2.5020	71.792
2.5008	71.879
2.4996	71.983
2.4984	72.107
2.4972	72.227
2.4960	72.331
2.4948	72.427
2.4936	72.508
2.4924	72.569
2.4912	72.650
2.4900	72.767
2.4888	72.928
2.4876	73.119
2.4864	73.342
2.4852	73.590
2.4840	73.833
2.4828	74.088
2.4816	74.371
2.4805	74.666
2.4793	74.978
2.4781	75.317
2.4769	75.684
2.4757	76.067
2.4745	76.441
2.4734	76.835
2.4722	77.258
2.4710	77.666
2.4698	78.055
2.4686	78.448
2.4675	78.830
2.4663	79.211
2.4651	79.597
2.4640	79.976
2.4628	80.350
2.4616	80.697
2.4604	81.004
2.4593	81.299
2.4581	81.580
2.4569	81.864
2.4558	82.165
2.4546	82.441
2.4535	82.713
2.4523	82.984
2.4511	83.223
2.4500	83.449
2.4488	83.664
2.4477	83.869
2.4465	84.080
2.4454	84.290
2.4442	84.509
2.4431	84.710
2.4419	84.894
2.4408	85.076
2.4396	85.265
2.4385	85.446
2.4373	85.637
2.4362	85.833
2.4350	86.008
2.4339	86.170
2.4327	86.348
2.4316	86.528
2.4305	86.720
2.4293	86.905
2.4282	87.069
2.4270	87.213
2.4259	87.334
2.4248	87.474
2.4236	87.610
2.4225	87.728
2.4214	87.847
2.4202	87.982
2.4191	88.124
2.4180	88.290
2.4169	88.476
2.4157	88.641
2.4146	88.748
2.4135	88.823
2.4124	88.875
2.4112	88.882
2.4101	88.860
2.4090	88.832
2.4079	88.825
2.4068	88.790
2.4056	88.713
2.4045	88.658
2.4034	88.643
2.4023	88.617
2.4012	88.609
2.4001	88.678
2.3990	88.810
2.3979	88.916
2.3967	88.986
2.3956	89.062
2.3945	89.134
2.3934	89.171
2.3923	89.184
2.3912	89.198
2.3901	89.190
2.3890	89.163
2.3879	89.141
2.3868	89.115
2.3857	89.076
2.3846	89.022
2.3835	88.945
2.3824	88.820
2.3813	88.658
2.3802	88.525
2.3791	88.424
2.3781	88.268
2.3770	88.053
2.3759	87.816
2.3748	87.569
2.3737	87.285
2.3726	86.968
2.3715	86.673
2.3704	86.397
2.3694	86.069
2.3683	85.703
2.3672	85.284
2.3661	84.825
2.3650	84.323
2.3640	83.753
2.3629	83.124
2.3618	82.512
2.3607	81.899
2.3597	81.273
2.3586	80.614
2.3575	79.993
2.3564	79.402
2.3554	78.774
2.3543	78.150
2.3532	77.602
2.3522	77.079
2.3511	76.557
2.3500	76.088
2.3490	75.701
2.3479	75.368
2.3468	75.049
2.3458	74.744
2.3447	74.502
2.3436	74.310
2.3426	74.141
2.3415	74.017
2.3405	73.971
2.3394	73.995
2.3384	74.044
2.3373	74.093
2.3363	74.202
2.3352	74.360
2.3342	74.528
2.3331	74.721
2.3321	74.963
2.3310	75.225
2.3300	75.496
2.3289	75.814
2.3279	76.151
2.3268	76.479
2.3258	76.810
2.3247	77.129
2.3237	77.391
2.3226	77.611
2.3216	77.828
2.3206	78.062
2.3195	78.252
2.3185	78.417
2.3175	78.607
2.3164	78.774
2.3154	78.889
2.3144	79.001
2.3133	79.146
2.3123	79.281
2.3113	79.380
2.3102	79.483
2.3092	79.599
2.3082	79.671
2.3071	79.714
2.3061	79.767
2.3051	79.849
2.3041	79.940
2.3030	80.044
2.3020	80.166
2.3010	80.276
2.3000	80.350
2.2990	80.415
2.2979	80.486
2.2969	80.590
2.2959	80.735
2.2949	80.878
2.2939	81.012
2.2929	81.160
2.2918	81.320
2.2908	81.474
2.2898	81.616
2.2888	81.782
2.2878	81.951
2.2868	82.086
2.2858	82.218
2.2848	82.399
2.2838	82.624
2.2828	82.851
2.2818	83.068
2.2808	83.319
2.2798	83.581
2.2787	83.829
2.2777	84.067
2.2767	84.331
2.2757	84.592
2.2747	84.808
2.2738	85.006
2.2728	85.219
2.2718	85.408
2.2708	85.548
2.2698	85.677
2.2688	85.826
2.2678	85.975
2.2668	86.118
2.2658	86.301
2.2648	86.520
2.2638	86.710
2.2628	86.851
2.2618	86.988
2.2609	87.131
2.2599	87.285
2.2589	87.425
2.2579	87.548
2.2569	87.688
2.2559	87.813
2.2550	87.902
2.2540	88.020
2.2530	88.161
2.2520	88.305
2.2510	88.423
2.2501	88.514
2.2491	88.653
2.2481	88.784
2.2471	88.889
2.2462	88.996
2.2452	89.088
2.2442	89.158
2.2433	89.211
2.2423	89.254
2.2413	89.320
2.2403	89.407
2.2394	89.504
2.2384	89.590
2.2374	89.665
2.2365	89.739
2.2355	89.821
2.2345	89.879
2.2336	89.921
2.2326	90.003
2.2317	90.092
2.2307	90.141
2.2297	90.170
2.2288	90.198
2.2278	90.232
2.2269	90.259
2.2259	90.292
2.2250	90.350
2.2240	90.408
2.2231	90.450
2.2221	90.470
2.2211	90.489
2.2202	90.524
2.2192	90.596
2.2183	90.698
2.2173	90.809
2.2164	90.906
2.2155	90.989
2.2145	91.046
2.2136	91.119
2.2126	91.200
2.2117	91.286
2.2107	91.410
2.2098	91.531
2.2088	91.603
2.2079	91.672
2.2070	91.735
2.2060	91.805
2.2051	91.882
2.2041	91.973
2.2032	92.095
2.2023	92.202
2.2013	92.280
2.2004	92.336
2.1995	92.365
2.1985	92.378
2.1976	92.406
2.1967	92.471
2.1957	92.541
2.1948	92.585
2.1939	92.611
2.1930	92.627
2.1920	92.649
2.1911	92.661
2.1902	92.670
2.1893	92.695
2.1883	92.689
2.1874	92.641
2.1865	92.605
2.1856	92.598
2.1846	92.609
2.1837	92.622
2.1828	92.641
2.1819	92.672
2.1810	92.659
2.1800	92.636
2.1791	92.620
2.1782	92.570
2.1773	92.507
2.1764	92.451
2.1755	92.412
2.1746	92.393
2.1736	92.347
2.1727	92.283
2.1718	92.204
2.1709	92.114
2.1700	92.009
2.1691	91.896
2.1682	91.824
2.1673	91.804
2.1664	91.787
2.1655	91.723
2.1646	91.647
2.1637	91.625
2.1628	91.600
2.1619	91.543
2.1610	91.507
2.1601	91.484
2.1592	91.468
2.1583	91.480
2.1574	91.496
2.1565	91.511
2.1556	91.514
2.1547	91.501
2.1538	91.477
2.1529	91.475
2.1520	91.521
2.1511	91.631
2.1502	91.715
2.1493	91.722
2.1484	91.715
2.1475	91.731
2.1466	91.761
2.1458	91.854
2.1449	91.988
2.1440	92.136
2.1431	92.288
2.1422	92.420
2.1413	92.544
2.1404	92.669
2.1396	92.798
2.1387	92.913
2.1378	92.966
2.1369	92.965
2.1360	92.986
2.1352	93.047
2.1343	93.109
2.1334	93.228
2.1325	93.356
2.1316	93.411
2.1308	93.408
2.1299	93.382
2.1290	93.354
2.1281	93.394
2.1273	93.456
2.1264	93.538
2.1255	93.576
2.1247	93.568
2.1238	93.546
2.1229	93.501
2.1220	93.452
2.1212	93.482
2.1203	93.578
2.1194	93.680
2.1186	93.753
2.1177	93.793
2.1168	93.768
2.1160	93.699
2.1151	93.668
2.1143	93.687
2.1134	93.735
2.1125	93.808
2.1117	93.880
2.1108	93.915
2.1100	93.919
2.1091	93.902
2.1082	93.941
2.1074	93.994
2.1065	94.007
2.1057	94.007
2.1048	94.000
2.1040	94.018
2.1031	94.103
2.1023	94.188
2.1014	94.270
2.1005	94.318
2.0997	94.322
2.0988	94.270
2.0980	94.210
2.0971	94.180
2.0963	94.199
2.0955	94.274
2.0946	94.404
2.0938	94.510
2.0929	94.595
2.0921	94.640
2.0912	94.662
2.0904	94.647
2.0895	94.563
2.0887	94.517
2.0879	94.559
2.0870	94.611
2.0862	94.650
2.0853	94.648
2.0845	94.655
2.0837	94.646
2.0828	94.587
2.0820	94.624
2.0812	94.618
2.0803	94.677
2.0795	94.711
2.0760	94.711
2.0720	95.090
2.0680	95.010
2.0640	95.199
2.0600	94.930
2.0560	95.010
2.0520	94.646
2.0480	94.596
2.0440	94.516
2.0400	94.531
2.0360	94.388
2.0320	94.275
2.0280	94.040
2.0240	93.838
2.0200	93.808
2.0160	93.356
2.0120	92.937
2.0080	92.597
2.0040	92.165
2.0000	91.903
1.9960	91.491
1.9920	91.381
1.9880	90.768
1.9840	90.768
1.9800	90.804
1.9760	90.673
1.9720	90.875
1.9680	90.985
1.9640	90.928
1.9600	91.519
1.9560	91.686
1.9520	91.611
1.9480	91.536
1.9440	91.536
1.9400	91.519
1.9360	91.635
1.9320	91.560
1.9280	91.573
1.9240	91.614
1.9200	91.241
1.9160	91.072
1.9120	91.352
1.9080	91.445
1.9040	91.282
1.9000	91.519
1.8960	91.689
1.8920	91.864
1.8880	91.650
1.8840	91.176
1.8800	91.155
1.8760	91.072
1.8720	90.768
1.8680	90.362
1.8640	90.232
1.8600	90.487
1.8560	90.610
1.8520	90.827
1.8480	91.180
1.8440	91.680
1.8400	91.970
1.8360	92.196
1.8320	92.355
1.8280	92.095
1.8240	92.046
1.8200	92.070
1.8160	91.997
1.8120	91.598
1.8080	91.883
1.8040	92.192
1.8000	92.282
1.7960	91.737
1.7920	92.151
1.7880	92.583
1.7840	92.046
1.7800	91.923
1.7760	91.598
1.7720	91.273
1.7680	91.102
1.7640	91.013
1.7600	90.933
1.7560	90.861
1.7520	90.734
1.7480	90.591
1.7440	90.984
1.7400	91.307
1.7360	92.144
1.7320	92.365
1.7280	92.424
1.7240	92.424
1.7200	92.185
1.7160	91.997
1.7120	92.430
1.7080	92.202
1.7040	91.704
1.7000	91.707
1.6960	91.925
1.6920	91.707
1.6880	91.852
1.6840	91.257
1.6800	92.273
1.6760	92.078
1.6720	92.177
1.6680	91.674
1.6640	91.836
1.6600	91.909
1.6560	91.406
1.6520	90.867
1.6480	91.083
1.6440	92.096
1.6400	92.071
1.6360	91.982
1.6320	91.574
1.6280	91.517
1.6240	91.551
1.6200	91.049
1.6160	90.850
1.6120	91.045
1.6080	91.657
1.6040	92.022
1.6000	92.275
1.5960	92.055
1.5920	91.826
1.5880	91.843
1.5840	92.275
1.5800	92.841
1.5760	92.171
1.5720	92.024
1.5680	91.643
1.5640	90.781
1.5600	89.893
1.5560	89.664
1.5520	90.123
1.5480	90.674
1.5440	90.959
1.5400	90.602
1.5360	91.068
1.5320	91.374
1.5280	91.894
1.5240	92.034
1.5200	91.476
1.5160	91.332
1.5120	91.102
1.5080	91.665
1.5040	91.653
1.5000	91.573
1.4960	90.992
1.4920	90.668
1.4880	90.650
1.4840	90.685
1.4800	90.399
1.4760	90.079
1.4720	89.830
1.4680	90.596
1.4640	90.885
1.4600	90.686
1.4560	90.973
1.4520	90.757
1.4480	90.542
1.4440	90.739
1.4400	90.929
1.4360	91.074
1.4320	91.310
1.4280	91.345
1.4240	90.857
1.4200	90.246
1.4160	89.887
1.4120	89.613
1.4080	89.382
1.4040	89.195
1.4000	89.658
1.3960	89.731
1.3920	89.443
1.3880	89.105
1.3840	88.943
1.3800	90.351
1.3760	90.625
1.3720	90.036
1.3680	90.525
1.3640	90.849
1.3600	90.724
1.3560	90.578
1.3520	90.669
1.3480	90.812
1.3440	90.847
1.3400	90.316
1.3360	90.546
1.3320	90.527
1.3280	90.134
1.3240	90.125
1.3200	90.365
1.3160	90.214
1.3120	90.054
1.3080	89.965
1.3040	89.913
1.3000	89.913
1.2960	89.913
1.2920	89.857
1.2880	89.819
1.2840	89.725
1.2800	89.863
1.2760	90.021
1.2720	89.748
1.2680	90.238
1.2640	91.029
1.2600	91.212
1.2560	91.066
1.2520	90.792
1.2480	90.538
1.2440	90.286
1.2400	90.204
1.2360	90.095
1.2320	89.985
1.2280	89.999
1.2240	89.803
1.2200	89.641
1.2160	89.966
1.2120	89.479
1.2080	89.015
1.2040	89.015
1.2000	89.196
1.1960	89.134
1.1920	89.013
1.1880	88.871
1.1840	88.891
1.1800	88.822
1.1760	88.792
1.1720	88.743
1.1680	88.832
1.1640	88.663
1.1600	88.682
1.1560	88.761
1.1520	88.870
1.1480	89.667
1.1440	89.556
1.1400	89.446
1.1360	88.879
1.1320	88.308
1.1280	88.558
1.1240	88.587
1.1200	89.140
1.1160	89.573
1.1120	89.819
1.1080	89.656
1.1040	89.008
1.1000	89.151
1.0960	89.221
1.0920	88.888
1.0880	89.008
1.0840	90.073
1.0800	89.742
1.0760	89.684
1.0720	89.048
1.0680	88.840
1.0640	88.470
1.0600	88.207
1.0560	87.209
1.0520	87.967
1.0480	88.598
1.0440	88.699
1.0400	88.957
1.0360	89.763
1.0320	89.491
1.0280	89.208
1.0240	90.074
1.0200	89.984
1.0160	89.420
1.0120	88.748
1.0080	88.847
1.0040	89.259
1.0000	88.727
0.99600	89.079
0.99200	88.879
0.98800	88.849
0.98400	88.779
0.98000	89.289
0.97600	88.538
0.97200	88.777
0.96800	88.969
0.96400	89.160
0.96000	88.788
0.95600	88.678
0.95200	88.649
0.94800	88.378
0.94400	88.829
0.94000	88.600
0.93600	88.730
0.93200	88.979
0.92800	88.563
0.92400	88.891
0.92000	88.652
0.91600	88.663
0.91200	88.683
0.90800	88.732
0.90400	88.326
0.90000	88.732
0.89600	88.573
0.89200	88.305
0.88800	88.374
0.88400	88.333
0.88000	87.966
0.87600	88.083
0.87200	88.299
0.86800	87.979
0.86400	88.097
0.86000	88.129
0.85600	87.720
0.85200	87.608
0.84800	87.549
0.84400	87.362
0.84000	87.453
0.83600	87.802
0.83200	87.335
0.82800	87.448
0.82400	86.969
0.82000	87.747
0.81600	87.223
0.81200	87.061
0.80800	87.829
0.80400	87.601
0.80000	87.754
0.79900	86.328
0.79800	86.328
0.79700	86.834
0.79600	86.698
0.79500	86.892
0.79400	86.423
0.79300	85.764
0.79200	86.328
0.79100	86.637
0.79000	86.890
0.78900	86.814
0.78800	86.562
0.78700	86.639
0.78600	86.504
0.78500	87.301
0.78400	87.201
0.78300	86.909
0.78200	85.943
0.78100	85.940
0.78000	86.617
0.77900	87.046
0.77800	86.890
0.77700	86.831
0.77600	86.795
0.77500	86.443
0.77400	86.734
0.77300	86.734
0.77200	87.040
0.77100	86.366
0.77000	85.850
0.76900	85.502
0.76800	86.460
0.76700	87.023
0.76600	87.023
0.76500	86.634
0.76400	86.802
0.76300	86.556
0.76200	86.016
0.76100	86.745
0.76000	86.518
0.75900	86.672
0.75800	86.672
0.75700	86.479
0.75600	86.498
0.75500	86.906
0.75400	86.980
0.75300	86.266
0.75200	86.344
0.75100	86.440
0.75000	86.286
0.74900	86.498
0.74800	86.692
0.74700	86.498
0.74600	86.344
0.74500	86.595
0.74400	86.608
0.74300	85.651
0.74200	85.660
0.74100	87.195
0.74000	87.295
0.73900	86.809
0.73800	87.004
0.73700	86.013
0.73600	85.583
0.73500	85.723
0.73400	86.323
0.73300	86.823
0.73200	87.074
0.73100	86.702
0.73000	85.990
0.72900	86.356
0.72800	86.298
0.72700	85.928
0.72600	86.258
0.72500	86.454
0.72400	86.337
0.72300	86.531
0.72200	86.683
0.72100	86.901
0.72000	87.201
0.71900	87.083
0.71800	86.769
0.71700	86.983
0.71600	86.667
0.71500	86.198
0.71400	86.295
0.71300	86.258
0.71200	86.918
0.71100	86.491
0.71000	86.708
0.70900	86.080
0.70800	86.629
0.70700	85.963
0.70600	86.119
0.70500	86.393
0.70400	86.432
0.70300	86.587
0.70200	86.685
0.70100	85.906
0.70000	86.393
0.69900	87.306
0.69800	86.073
0.69700	86.595
0.69600	86.774
0.69500	86.834
0.69400	86.834
0.69300	86.854
0.69200	86.613
0.69100	87.335
0.69000	87.254
0.68900	87.498
0.68800	87.235
0.68700	86.935
0.68600	86.835
0.68500	86.996
0.68400	86.935
0.68300	86.835
0.68200	87.054
0.68100	86.954
0.68000	87.097
0.67900	87.278
0.67800	86.896
0.67700	86.634
0.67600	86.935
0.67500	87.479
0.67400	87.479
0.67300	87.279
0.67200	86.754
0.67100	87.139
0.67000	87.260
0.66900	87.139
0.66800	86.957
0.66700	86.656
0.66600	86.877
0.66500	86.394
0.66400	86.454
0.66300	86.474
0.66200	87.302
0.66100	87.201
0.66000	87.139
0.65900	87.549
0.65800	87.650
0.65700	87.586
0.65600	86.977
0.65500	86.757
0.65400	86.595
0.65300	86.835
0.65200	87.035
0.65100	86.973
0.65000	86.713
0.64900	86.374
0.64800	86.075
0.64700	86.957
0.64600	87.752
0.64500	87.750
0.64400	87.752
0.64300	87.688
0.64200	87.279
0.64100	87.097
0.64000	87.871
0.63900	87.607
0.63800	86.858
0.63700	86.654
0.63600	86.414
0.63500	86.354
0.63400	86.634
0.63300	86.754
0.63200	86.774
0.63100	87.077
0.63000	86.835
0.62900	86.274
0.62800	86.094
0.62700	86.394
0.62600	86.574
0.62500	87.178
0.62400	86.896
0.62300	86.454
0.62200	86.493
0.62100	86.712
0.62000	87.159
0.61900	87.733
0.61800	88.046
0.61700	87.797
0.61600	87.549
0.61500	87.486
0.61400	86.757
0.61300	86.434
0.61200	87.082
0.61100	87.145
0.61000	86.760
0.60900	86.679
0.60800	86.799
0.60700	86.496
0.60600	86.455
0.60500	86.375
0.60400	85.971
0.60300	86.134
0.60200	86.174
0.60100	86.070
0.60000	86.049
0.59900	85.883
0.59800	86.131
0.59700	86.646
0.59600	86.792
0.59500	86.256
0.59400	86.295
0.59300	86.959
0.59200	86.381
0.59100	86.815
0.59000	86.502
0.58900	85.948
0.58800	86.381
0.58700	86.732
0.58600	86.795
0.58500	87.106
0.58400	86.233
0.58300	86.709
0.58200	86.089
0.58100	85.802
0.58000	86.360
0.57900	86.732
0.57800	86.649
0.57700	86.421
0.57600	86.729
0.57500	86.915
0.57400	86.852
0.57300	87.070
0.57200	87.044
0.57100	87.372
0.57000	87.044
0.56900	86.860
0.56800	86.760
0.56700	86.781
0.56600	86.459
0.56500	85.971
0.56400	85.709
0.56300	86.134
0.56200	86.052
0.56100	85.748
0.56000	85.872
0.55900	85.581
0.55800	85.581
0.55700	86.215
0.55600	85.963
0.55500	85.810
0.55400	86.259
0.55300	86.455
0.55200	86.096
0.55100	85.932
0.55000	85.867
0.54900	86.034
0.54800	85.369
0.54700	85.391
0.54600	85.678
0.54500	85.834
0.54400	85.423
0.54300	86.392
0.54200	86.470
0.54100	86.370
0.54000	86.270
0.53900	86.217
0.53800	86.500
0.53700	86.362
0.53600	86.362
0.53500	86.081
0.53400	86.441
0.53300	85.356
0.53200	84.420
0.53100	84.245
0.53000	84.496
0.52900	84.979
0.52800	85.141
0.52700	85.064
0.52600	84.862
0.52500	84.963
0.52400	84.916
0.52300	85.388
0.52200	85.968
0.52100	85.489
0.52000	85.956
0.51900	85.675
0.51800	85.342
0.51700	85.218
0.51600	84.739
0.51500	84.668
0.51400	84.638
0.51300	85.419
0.51200	84.456
0.51100	83.880
0.51000	83.682
0.50900	83.931
0.50800	84.010
0.50700	84.774
0.50600	84.595
0.50500	84.364
0.50400	84.518
0.50300	85.513
0.50200	85.101
0.50100	85.110
0.50000	84.679
0.49900	84.010
0.49800	84.566
0.49700	84.643
0.49600	84.235
0.49500	84.465
0.49400	83.909
0.49300	83.734
0.49200	84.320
0.49100	85.216
0.49000	84.725
0.48900	84.622
0.48800	84.698
0.48700	83.935
0.48600	83.783
0.48500	83.198
0.48400	84.114
0.48300	84.243
0.48200	83.860
0.48100	83.354
0.48000	83.935
0.47900	84.498
0.47800	84.218
0.47700	83.274
0.47600	83.883
0.47500	83.222
0.47400	83.679
0.47300	83.728
0.47200	83.779
0.47100	83.551
0.47000	83.449
0.46900	82.721
0.46800	83.272
0.46700	83.273
0.46600	83.349
0.46500	82.794
0.46400	82.838
0.46300	83.422
0.46200	83.548
0.46100	82.660
0.46000	81.983
0.45900	84.993
0.45800	84.948
0.45700	84.667
0.45600	84.719
0.45500	84.281
0.45400	83.688
0.45300	83.387
0.45200	83.175
0.45100	83.282
0.45000	83.662
0.44900	83.788
0.44800	83.556
0.44700	83.221
0.44600	83.571
0.44500	83.464
0.44400	83.364
0.44300	83.043
0.44200	82.927
0.44100	82.967
0.44000	82.751
0.43900	82.591
0.43800	82.790
0.43700	82.709
0.43600	82.818
0.43500	83.284
0.43400	82.861
0.43300	82.676
0.43200	82.438
0.43100	82.770
0.43000	83.027
0.42900	83.146
0.42800	82.707
0.42700	81.761
0.42600	81.926
0.42500	82.185
0.42400	82.020
0.42300	82.830
0.42200	82.337
0.42100	82.059
0.42000	82.599
0.41900	82.104
0.41800	81.909
0.41700	81.282
0.41600	81.593
0.41500	81.734
0.41400	81.611
0.41300	81.413
0.41200	81.245
0.41100	80.562
0.41000	80.556
0.40900	80.992
0.40800	81.107
0.40700	80.758
0.40600	80.580
0.40500	80.434
0.40400	80.654
0.40300	80.335
0.40200	80.727
0.40100	80.515
0.40000	80.309
