Name: Basaltic Andesite
Type: Rocks
Class: Igneous
Subclass: Intermediate
Particle Size: Solid
Sample No.: Andesite.H4
Owner: JHU
Wavelength range: All
Origin: Agrigan Volcano, Mariana Is., via Smithsonian (Cat. No: NMNH 
115263-19)
Description: A dark gray, porphyritic and vuggy rock. The phenocrysts are 
plagioclase laths, orangish-yellow olivine and opaques.




Measurement: Directional (10 degree) hemispherical reflectance
First Column: X
Second Column: Y
X Units: Wavelength (micrometers)
Y Units: Reflectance (percent)
First X Value: 14.0112
Last X Value: 0.4000
Number of X Values: 2844
Additional information: andesi4a.txt

14.0112	0.9750
13.9734	1.1927
13.9359	0.6921
13.8985	1.2518
13.8614	2.2366
13.8244	1.8084
13.7876	1.0706
13.7511	1.7569
13.7147	1.8543
13.6785	1.5717
13.6425	1.7398
13.6067	2.1434
13.5711	2.6049
13.5356	2.1108
13.5004	1.8904
13.4653	1.9678
13.4304	1.6764
13.3957	1.6097
13.3612	1.8073
13.3269	1.7859
13.2927	1.7958
13.2587	1.8631
13.2249	1.7686
13.1912	1.9971
13.1577	2.2047
13.1244	2.2551
13.0913	2.0044
13.0583	1.7437
13.0255	1.9592
12.9929	2.0264
12.9604	2.1855
12.9281	2.1237
12.8959	2.0660
12.8639	2.1169
12.8321	2.1588
12.8004	2.1649
12.7688	2.2418
12.7375	2.2319
12.7063	2.1241
12.6752	2.2818
12.6443	2.5195
12.6135	2.5784
12.5829	2.5800
12.5524	2.6238
12.5221	2.5948
12.4919	2.5767
12.4619	2.6452
12.4320	2.7106
12.4023	2.7464
12.3727	2.8542
12.3432	3.0112
12.3139	3.1491
12.2847	3.2501
12.2557	3.3251
12.2268	3.3349
12.1980	3.4151
12.1694	3.5696
12.1409	3.6883
12.1125	3.8151
12.0843	3.8538
12.0562	3.8660
12.0282	4.0453
12.0003	4.2063
11.9726	4.1826
11.9450	4.2670
11.9176	4.4145
11.8903	4.4808
11.8631	4.5119
11.8360	4.6064
11.8090	4.7028
11.7822	4.7519
11.7555	4.9055
11.7289	5.0880
11.7024	5.1778
11.6760	5.2350
11.6498	5.3423
11.6237	5.4652
11.5977	5.6147
11.5718	5.7445
11.5460	5.8650
11.5203	5.9257
11.4948	5.9972
11.4694	6.1685
11.4440	6.3553
11.4188	6.5367
11.3937	6.6656
11.3688	6.7781
11.3439	6.9686
11.3191	7.1498
11.2944	7.3090
11.2699	7.4629
11.2455	7.6478
11.2211	7.8255
11.1969	8.0413
11.1727	8.2514
11.1487	8.3587
11.1248	8.4919
11.1010	8.6198
11.0773	8.7501
11.0536	8.8709
11.0301	8.9995
11.0067	9.1399
10.9834	9.2784
10.9602	9.4439
10.9370	9.6148
10.9140	9.7540
10.8911	9.8508
10.8682	9.9778
10.8455	10.0880
10.8229	10.2307
10.8003	10.3413
10.7779	10.4046
10.7555	10.4148
10.7332	10.4700
10.7111	10.5180
10.6890	10.5145
10.6670	10.5420
10.6451	10.5764
10.6233	10.5537
10.6015	10.5133
10.5799	10.5255
10.5584	10.5288
10.5369	10.5114
10.5155	10.4628
10.4942	10.4114
10.4730	10.3760
10.4519	10.3548
10.4309	10.2764
10.4099	10.1711
10.3891	10.1224
10.3683	10.0033
10.3476	9.8870
10.3270	9.7641
10.3065	9.6748
10.2860	9.5810
10.2656	9.4842
10.2454	9.4070
10.2251	9.4008
10.2050	9.4282
10.1850	9.3670
10.1650	9.3506
10.1451	9.4036
10.1253	9.4446
10.1056	9.4945
10.0859	9.5296
10.0663	9.5506
10.0468	9.5662
10.0274	9.5798
10.0080	9.5704
9.9887	9.5610
9.9695	9.5512
9.9504	9.5121
9.9313	9.5100
9.9123	9.4891
9.8934	9.4847
9.8746	9.4584
9.8558	9.4418
9.8371	9.4884
9.8185	9.5125
9.7999	9.4924
9.7814	9.4725
9.7630	9.4568
9.7447	9.4340
9.7264	9.3548
9.7082	9.2870
9.6900	9.1807
9.6719	9.2168
9.6539	9.1244
9.6360	8.8753
9.6181	8.7391
9.6003	8.6369
9.5825	8.5514
9.5649	8.4787
9.5472	8.3313
9.5297	8.1872
9.5122	8.1070
9.4948	8.0217
9.4774	7.9397
9.4601	7.8806
9.4429	7.8349
9.4257	7.7932
9.4086	7.7545
9.3916	7.7480
9.3746	7.7559
9.3577	7.7317
9.3408	7.7132
9.3240	7.7343
9.3073	7.8288
9.2906	7.9106
9.2740	7.9474
9.2574	8.0564
9.2409	8.2186
9.2245	8.3189
9.2081	8.3714
9.1918	8.4340
9.1755	8.5919
9.1593	8.7197
9.1431	8.7971
9.1270	8.8938
9.1110	8.9831
9.0950	9.0436
9.0791	9.0771
9.0632	9.1390
9.0474	9.2369
9.0316	9.2704
9.0159	9.2651
9.0003	9.2758
8.9847	9.3010
8.9691	9.2948
8.9536	9.2721
8.9382	9.2529
8.9228	9.1837
8.9075	9.1343
8.8922	9.0855
8.8770	9.0206
8.8618	8.9672
8.8467	8.9194
8.8316	8.8282
8.8166	8.7042
8.8016	8.6343
8.7867	8.5912
8.7718	8.5387
8.7570	8.4916
8.7422	8.4122
8.7275	8.2990
8.7129	8.2085
8.6982	8.1644
8.6837	8.1389
8.6692	8.1454
8.6547	8.1208
8.6403	8.0815
8.6259	8.0283
8.6116	7.9802
8.5973	7.9301
8.5830	7.8494
8.5688	7.7364
8.5547	7.6324
8.5406	7.5215
8.5266	7.4454
8.5126	7.4210
8.4986	7.3212
8.4847	7.2129
8.4708	7.1304
8.4570	7.0314
8.4432	6.9232
8.4295	6.7786
8.4158	6.5850
8.4022	6.3992
8.3886	6.2330
8.3750	6.1078
8.3615	6.0971
8.3481	5.9506
8.3347	5.7059
8.3213	5.5207
8.3079	5.3171
8.2946	5.1447
8.2814	4.9439
8.2682	4.7367
8.2550	4.5115
8.2419	4.3017
8.2288	4.1290
8.2158	3.9785
8.2028	3.8364
8.1898	3.6984
8.1769	3.5449
8.1640	3.4117
8.1512	3.2847
8.1384	3.1714
8.1256	3.0649
8.1129	2.9751
8.1002	2.9081
8.0876	2.8242
8.0750	2.7522
8.0624	2.7065
8.0499	2.6578
8.0374	2.5976
8.0250	2.5680
8.0126	2.5542
8.0002	2.5076
7.9879	2.4548
7.9756	2.4755
7.9634	2.4832
7.9512	2.4516
7.9390	2.4426
7.9268	2.4171
7.9147	2.3977
7.9027	2.3834
7.8906	2.3704
7.8786	2.3508
7.8667	2.3447
7.8548	2.3076
7.8429	2.2714
7.8310	2.2549
7.8192	2.2428
7.8075	2.2332
7.7957	2.2127
7.7840	2.1839
7.7723	2.1802
7.7607	2.1569
7.7491	2.1228
7.7375	2.1283
7.7260	2.1136
7.7145	2.0964
7.7031	2.1018
7.6916	2.1039
7.6802	2.0841
7.6689	2.0341
7.6575	2.0733
7.6462	2.1115
7.6350	2.1016
7.6238	2.1016
7.6126	2.1182
7.6014	2.1436
7.5903	2.1492
7.5792	2.1436
7.5681	2.1216
7.5571	2.1190
7.5461	2.1260
7.5351	2.1232
7.5242	2.1150
7.5133	2.1377
7.5024	2.1400
7.4916	2.1286
7.4807	2.1351
7.4700	2.1712
7.4592	2.1572
7.4485	2.1398
7.4378	2.1509
7.4272	2.1682
7.4165	2.1649
7.4059	2.1663
7.3954	2.1844
7.3848	2.1977
7.3743	2.2193
7.3639	2.2184
7.3534	2.1745
7.3430	2.2111
7.3326	2.2701
7.3223	2.2652
7.3119	2.2764
7.3016	2.2873
7.2914	2.3078
7.2811	2.3367
7.2709	2.3367
7.2607	2.3283
7.2506	2.3503
7.2404	2.3550
7.2303	2.3653
7.2203	2.3796
7.2102	2.3883
7.2002	2.4091
7.1902	2.4328
7.1803	2.4410
7.1703	2.4349
7.1604	2.4317
7.1506	2.4382
7.1407	2.4335
7.1309	2.4457
7.1211	2.4553
7.1113	2.4636
7.1016	2.4612
7.0919	2.4940
7.0822	2.5249
7.0725	2.5008
7.0629	2.4984
7.0533	2.5085
7.0437	2.5104
7.0341	2.5319
7.0246	2.5556
7.0151	2.5517
7.0056	2.5685
6.9962	2.5735
6.9867	2.5680
6.9773	2.5922
6.9679	2.5906
6.9586	2.5594
6.9493	2.5275
6.9400	2.5408
6.9307	2.5512
6.9214	2.5525
6.9122	2.5716
6.9030	2.5886
6.8938	2.5957
6.8847	2.5880
6.8755	2.5786
6.8664	2.5961
6.8573	2.5898
6.8483	2.6016
6.8393	2.6151
6.8302	2.6109
6.8213	2.6062
6.8123	2.5758
6.8034	2.5411
6.7944	2.5540
6.7855	2.5688
6.7767	2.5818
6.7678	2.6013
6.7590	2.6297
6.7502	2.6433
6.7414	2.6433
6.7327	2.6522
6.7239	2.6733
6.7152	2.6850
6.7065	2.6969
6.6979	2.7143
6.6892	2.7007
6.6806	2.6838
6.6720	2.6922
6.6634	2.6662
6.6549	2.6208
6.6464	2.6154
6.6378	2.6294
6.6294	2.6459
6.6209	2.6395
6.6124	2.6463
6.6040	2.6629
6.5956	2.6618
6.5872	2.6470
6.5789	2.6632
6.5705	2.6789
6.5622	2.6717
6.5539	2.6873
6.5456	2.7180
6.5374	2.7445
6.5292	2.7276
6.5209	2.7319
6.5128	2.7368
6.5046	2.7267
6.4964	2.7375
6.4883	2.7278
6.4802	2.7119
6.4721	2.7415
6.4640	2.7314
6.4560	2.7180
6.4480	2.7150
6.4399	2.7166
6.4320	2.7302
6.4240	2.7457
6.4160	2.7616
6.4081	2.7612
6.4002	2.7564
6.3923	2.7729
6.3844	2.7804
6.3766	2.7780
6.3687	2.7994
6.3609	2.7998
6.3531	2.7736
6.3454	2.7657
6.3376	2.7727
6.3299	2.7682
6.3221	2.7689
6.3144	2.7846
6.3068	2.7556
6.2991	2.7644
6.2914	2.7878
6.2838	2.7769
6.2762	2.7631
6.2686	2.7514
6.2611	2.7333
6.2535	2.7405
6.2460	2.7581
6.2385	2.7551
6.2310	2.7464
6.2235	2.7511
6.2160	2.7431
6.2086	2.7218
6.2011	2.7112
6.1937	2.7286
6.1863	2.7539
6.1790	2.7434
6.1716	2.7408
6.1643	2.7546
6.1570	2.7660
6.1496	2.7522
6.1424	2.7478
6.1351	2.7776
6.1278	2.8036
6.1206	2.7972
6.1134	2.7804
6.1062	2.8052
6.0990	2.8200
6.0918	2.8106
6.0847	2.8324
6.0776	2.8558
6.0704	2.8572
6.0633	2.8453
6.0563	2.8413
6.0492	2.8470
6.0421	2.8462
6.0351	2.8353
6.0281	2.8397
6.0211	2.8504
6.0141	2.8530
6.0071	2.8680
6.0002	2.8903
5.9932	2.8992
5.9863	2.8906
5.9794	2.8610
5.9725	2.8746
5.9657	2.9098
5.9588	2.9238
5.9520	2.9314
5.9451	2.9356
5.9383	2.9367
5.9315	2.9200
5.9247	2.9414
5.9180	2.9649
5.9112	2.9972
5.9045	3.0270
5.8978	3.0012
5.8911	3.0068
5.8844	3.0668
5.8777	3.0710
5.8711	3.0628
5.8644	3.0717
5.8578	3.0832
5.8512	3.0867
5.8446	3.0867
5.8380	3.0998
5.8314	3.1163
5.8249	3.1336
5.8184	3.1436
5.8118	3.1525
5.8053	3.1706
5.7988	3.1621
5.7923	3.1483
5.7859	3.1652
5.7794	3.1769
5.7730	3.1908
5.7666	3.1863
5.7602	3.1823
5.7538	3.1877
5.7474	3.1915
5.7410	3.2078
5.7347	3.2372
5.7283	3.2634
5.7220	3.2758
5.7157	3.2698
5.7094	3.2702
5.7031	3.2909
5.6969	3.3190
5.6906	3.3403
5.6844	3.3473
5.6782	3.3820
5.6719	3.3954
5.6657	3.3839
5.6596	3.3914
5.6534	3.4210
5.6472	3.4356
5.6411	3.4263
5.6349	3.4076
5.6288	3.4280
5.6227	3.4577
5.6166	3.4699
5.6106	3.4746
5.6045	3.4722
5.5984	3.4844
5.5924	3.5172
5.5864	3.5205
5.5804	3.5057
5.5744	3.5023
5.5684	3.5322
5.5624	3.5491
5.5564	3.5498
5.5505	3.5651
5.5445	3.5948
5.5386	3.6070
5.5327	3.5878
5.5268	3.5824
5.5209	3.5963
5.5151	3.6166
5.5092	3.6148
5.5033	3.6002
5.4975	3.6084
5.4917	3.6347
5.4859	3.6682
5.4801	3.6771
5.4743	3.6857
5.4685	3.6867
5.4628	3.6715
5.4570	3.6698
5.4513	3.6876
5.4455	3.6971
5.4398	3.6823
5.4341	3.6816
5.4284	3.7068
5.4228	3.7156
5.4171	3.7062
5.4114	3.7169
5.4058	3.7193
5.4002	3.7068
5.3945	3.7236
5.3889	3.7282
5.3833	3.7247
5.3778	3.7312
5.3722	3.7441
5.3666	3.7380
5.3611	3.7322
5.3555	3.7355
5.3500	3.7390
5.3445	3.7566
5.3390	3.7805
5.3335	3.7873
5.3280	3.7776
5.3225	3.7720
5.3171	3.7903
5.3116	3.8065
5.3062	3.8083
5.3008	3.8264
5.2954	3.8639
5.2900	3.8728
5.2846	3.8850
5.2792	3.8939
5.2738	3.8826
5.2684	3.8972
5.2631	3.9293
5.2578	3.9434
5.2524	3.9660
5.2471	3.9797
5.2418	4.0075
5.2365	4.0356
5.2312	4.0470
5.2260	4.0514
5.2207	4.0675
5.2154	4.0769
5.2102	4.0856
5.2050	4.0955
5.1998	4.1236
5.1945	4.1496
5.1893	4.1489
5.1842	4.1559
5.1790	4.1676
5.1738	4.1747
5.1686	4.1883
5.1635	4.2060
5.1584	4.2176
5.1532	4.2241
5.1481	4.2361
5.1430	4.2595
5.1379	4.2698
5.1328	4.2612
5.1277	4.2872
5.1227	4.3176
5.1176	4.3348
5.1126	4.3216
5.1075	4.3259
5.1025	4.3701
5.0975	4.3816
5.0925	4.3847
5.0875	4.3898
5.0825	4.4145
5.0775	4.4171
5.0726	4.4044
5.0676	4.4036
5.0627	4.4236
5.0577	4.4414
5.0528	4.4449
5.0479	4.4414
5.0430	4.4463
5.0380	4.4670
5.0332	4.4909
5.0283	4.5084
5.0234	4.5106
5.0185	4.5161
5.0137	4.5239
5.0088	4.5488
5.0040	4.5579
4.9992	4.5516
4.9944	4.5703
4.9896	4.6073
4.9848	4.6099
4.9800	4.6139
4.9752	4.6364
4.9704	4.6634
4.9657	4.6542
4.9609	4.6486
4.9562	4.6643
4.9514	4.6901
4.9467	4.7184
4.9420	4.7182
4.9373	4.7133
4.9326	4.7294
4.9279	4.7691
4.9232	4.7960
4.9186	4.8035
4.9139	4.8133
4.9092	4.8337
4.9046	4.8490
4.9000	4.8876
4.8953	4.8966
4.8907	4.8989
4.8861	4.9148
4.8815	4.9282
4.8769	4.9376
4.8723	4.9582
4.8678	4.9865
4.8632	4.9889
4.8586	4.9753
4.8541	4.9818
4.8495	5.0088
4.8450	5.0271
4.8405	5.0384
4.8360	5.0480
4.8315	5.0608
4.8270	5.0665
4.8225	5.0686
4.8180	5.0728
4.8135	5.0847
4.8090	5.0878
4.8046	5.1002
4.8001	5.1091
4.7957	5.1272
4.7913	5.1691
4.7868	5.1895
4.7824	5.1665
4.7780	5.1602
4.7736	5.1694
4.7692	5.1790
4.7648	5.1924
4.7605	5.1961
4.7561	5.2275
4.7517	5.2385
4.7474	5.2195
4.7431	5.2268
4.7387	5.2434
4.7344	5.2610
4.7301	5.2933
4.7258	5.2894
4.7215	5.2807
4.7172	5.3137
4.7129	5.3452
4.7086	5.3529
4.7043	5.3779
4.7000	5.3782
4.6958	5.3725
4.6915	5.3655
4.6873	5.3735
4.6831	5.4208
4.6788	5.4368
4.6746	5.4145
4.6704	5.4129
4.6662	5.4312
4.6620	5.4483
4.6578	5.4614
4.6536	5.4652
4.6495	5.4844
4.6453	5.5109
4.6411	5.5423
4.6370	5.5571
4.6328	5.5608
4.6287	5.5716
4.6246	5.5896
4.6205	5.5917
4.6163	5.6072
4.6122	5.6367
4.6081	5.6416
4.6040	5.6594
4.6000	5.6894
4.5959	5.6896
4.5918	5.6772
4.5877	5.7023
4.5837	5.7309
4.5796	5.7426
4.5756	5.7564
4.5716	5.7761
4.5675	5.7753
4.5635	5.7714
4.5595	5.7940
4.5555	5.7989
4.5515	5.8020
4.5475	5.8314
4.5435	5.8397
4.5395	5.8350
4.5356	5.8537
4.5316	5.8860
4.5276	5.8999
4.5237	5.8971
4.5197	5.9060
4.5158	5.9221
4.5119	5.9296
4.5080	5.9243
4.5040	5.9519
4.5001	5.9751
4.4962	5.9644
4.4923	5.9465
4.4884	5.9691
4.4846	5.9784
4.4807	6.0016
4.4768	6.0164
4.4730	6.0093
4.4691	6.0194
4.4652	6.0281
4.4614	6.0164
4.4576	6.0270
4.4537	6.0560
4.4499	6.0612
4.4461	6.0506
4.4423	6.0605
4.4385	6.0618
4.4347	6.0790
4.4309	6.1021
4.4271	6.1052
4.4233	6.1043
4.4196	6.1031
4.4158	6.0963
4.4120	6.1143
4.4083	6.1317
4.4045	6.1324
4.4008	6.1397
4.3971	6.1397
4.3934	6.1329
4.3896	6.1449
4.3859	6.1624
4.3822	6.1739
4.3785	6.1751
4.3748	6.1917
4.3711	6.2013
4.3674	6.2013
4.3638	6.2198
4.3601	6.2224
4.3564	6.2121
4.3528	6.2317
4.3491	6.2678
4.3455	6.2625
4.3418	6.2470
4.3382	6.2676
4.3346	6.2969
4.3310	6.3077
4.3273	6.3129
4.3237	6.3106
4.3201	6.3330
4.3165	6.3488
4.3129	6.3429
4.3094	6.3537
4.3058	6.3569
4.3022	6.3764
4.2986	6.3839
4.2951	6.3909
4.2915	6.4172
4.2880	6.4282
4.2844	6.4104
4.2809	6.4104
4.2774	6.4263
4.2738	6.4397
4.2703	6.4429
4.2668	6.4620
4.2633	6.4849
4.2598	6.5032
4.2563	6.4948
4.2528	6.5025
4.2493	6.5133
4.2458	6.5203
4.2424	6.5416
4.2389	6.5423
4.2354	6.5486
4.2320	6.5553
4.2285	6.5660
4.2251	6.5667
4.2216	6.5452
4.2182	6.5564
4.2148	6.5772
4.2113	6.5871
4.2079	6.5838
4.2045	6.5850
4.2011	6.5916
4.1977	6.5901
4.1943	6.6044
4.1909	6.6070
4.1875	6.5974
4.1841	6.6110
4.1808	6.6345
4.1774	6.6302
4.1740	6.6143
4.1707	6.6206
4.1673	6.6270
4.1640	6.6330
4.1606	6.6309
4.1573	6.6361
4.1540	6.6501
4.1506	6.6496
4.1473	6.6635
4.1440	6.6888
4.1407	6.6740
4.1374	6.6612
4.1341	6.6764
4.1308	6.6902
4.1275	6.6761
4.1242	6.6717
4.1209	6.6735
4.1177	6.6818
4.1144	6.6849
4.1111	6.6919
4.1079	6.6870
4.1046	6.6974
4.1014	6.7106
4.0981	6.7146
4.0949	6.7024
4.0917	6.6968
4.0884	6.6974
4.0852	6.7184
4.0820	6.7286
4.0788	6.7322
4.0756	6.7184
4.0724	6.6935
4.0692	6.7148
4.0660	6.7286
4.0628	6.7413
4.0596	6.7498
4.0565	6.7387
4.0533	6.7376
4.0501	6.7470
4.0470	6.7509
4.0438	6.7600
4.0406	6.7556
4.0375	6.7371
4.0344	6.7457
4.0312	6.7696
4.0281	6.7605
4.0250	6.7657
4.0218	6.7873
4.0187	6.7709
4.0156	6.7629
4.0125	6.7683
4.0094	6.7816
4.0063	6.7821
4.0032	6.7716
4.0001	6.7730
3.9970	6.7908
3.9940	6.7945
3.9909	6.7859
3.9878	6.7748
3.9847	6.7603
3.9817	6.7739
3.9786	6.7982
3.9756	6.7914
3.9725	6.7849
3.9695	6.7999
3.9665	6.7835
3.9634	6.7854
3.9604	6.8147
3.9574	6.8130
3.9544	6.8039
3.9513	6.7994
3.9483	6.7955
3.9453	6.7992
3.9423	6.8369
3.9393	6.8283
3.9363	6.8008
3.9333	6.8055
3.9304	6.8132
3.9274	6.8273
3.9244	6.8386
3.9214	6.8322
3.9185	6.8435
3.9155	6.8374
3.9126	6.8259
3.9096	6.8273
3.9067	6.8475
3.9037	6.8473
3.9008	6.8512
3.8979	6.8555
3.8949	6.8611
3.8920	6.8498
3.8891	6.8477
3.8862	6.8615
3.8833	6.8913
3.8804	6.8997
3.8775	6.8800
3.8746	6.8618
3.8717	6.8753
3.8688	6.8831
3.8659	6.8686
3.8630	6.8548
3.8601	6.8691
3.8573	6.8662
3.8544	6.8618
3.8515	6.8787
3.8487	6.8792
3.8458	6.8913
3.8430	6.8911
3.8401	6.8951
3.8373	6.8997
3.8344	6.8969
3.8316	6.8758
3.8288	6.8749
3.8259	6.8805
3.8231	6.8974
3.8203	6.9156
3.8175	6.9202
3.8147	6.9143
3.8119	6.9063
3.8091	6.9288
3.8063	6.9307
3.8035	6.9309
3.8007	6.9431
3.7979	6.9255
3.7951	6.9072
3.7924	6.9194
3.7896	6.9283
3.7868	6.9405
3.7841	6.9483
3.7813	6.9420
3.7785	6.9309
3.7758	6.9371
3.7730	6.9293
3.7703	6.9255
3.7676	6.9621
3.7648	6.9581
3.7621	6.9236
3.7594	6.9475
3.7566	6.9590
3.7539	6.9471
3.7512	6.9567
3.7485	6.9766
3.7458	6.9755
3.7431	6.9701
3.7404	6.9748
3.7377	6.9787
3.7350	6.9581
3.7323	6.9478
3.7296	6.9564
3.7269	6.9717
3.7242	6.9878
3.7216	6.9878
3.7189	6.9771
3.7162	6.9745
3.7136	6.9675
3.7109	6.9597
3.7083	6.9756
3.7056	6.9872
3.7030	6.9886
3.7003	6.9712
3.6977	6.9647
3.6950	6.9839
3.6924	6.9925
3.6898	6.9828
3.6872	6.9656
3.6845	6.9755
3.6819	6.9932
3.6793	6.9940
3.6767	6.9712
3.6741	6.9804
3.6715	6.9881
3.6689	6.9872
3.6663	6.9832
3.6637	6.9878
3.6611	6.9928
3.6585	6.9764
3.6560	6.9686
3.6534	6.9698
3.6508	6.9665
3.6482	6.9895
3.6457	7.0008
3.6431	7.0036
3.6406	7.0184
3.6380	7.0130
3.6355	6.9972
3.6329	6.9928
3.6304	6.9919
3.6278	7.0052
3.6253	6.9992
3.6227	6.9972
3.6202	7.0045
3.6177	6.9979
3.6152	7.0059
3.6127	7.0134
3.6101	7.0104
3.6076	7.0125
3.6051	7.0000
3.6026	7.0008
3.6001	7.0213
3.5976	7.0332
3.5951	7.0155
3.5926	6.9963
3.5901	6.9886
3.5876	6.9919
3.5852	6.9904
3.5827	7.0071
3.5802	7.0333
3.5777	7.0071
3.5753	6.9888
3.5728	7.0029
3.5704	7.0195
3.5679	7.0306
3.5654	7.0090
3.5630	7.0092
3.5605	7.0054
3.5581	7.0047
3.5557	7.0249
3.5532	7.0289
3.5508	7.0120
3.5484	6.9883
3.5459	6.9792
3.5435	6.9862
3.5411	6.9693
3.5387	6.9530
3.5363	6.9480
3.5338	6.9501
3.5314	6.9438
3.5290	6.9447
3.5266	6.9291
3.5242	6.9150
3.5218	6.9103
3.5195	6.8988
3.5171	6.8704
3.5147	6.8285
3.5123	6.7662
3.5099	6.7371
3.5075	6.7270
3.5052	6.7139
3.5028	6.7064
3.5004	6.7029
3.4981	6.7078
3.4957	6.7054
3.4934	6.6945
3.4910	6.6846
3.4887	6.6733
3.4863	6.6691
3.4840	6.6654
3.4816	6.6501
3.4793	6.6719
3.4770	6.6940
3.4746	6.6956
3.4723	6.7101
3.4700	6.7148
3.4677	6.7218
3.4653	6.7254
3.4630	6.7329
3.4607	6.7275
3.4584	6.6963
3.4561	6.6712
3.4538	6.6693
3.4515	6.6475
3.4492	6.6459
3.4469	6.6581
3.4446	6.6459
3.4423	6.6192
3.4400	6.5826
3.4378	6.5646
3.4355	6.5810
3.4332	6.5909
3.4309	6.5508
3.4287	6.4948
3.4264	6.4633
3.4241	6.4692
3.4219	6.4521
3.4196	6.4146
3.4174	6.4017
3.4151	6.4120
3.4129	6.4259
3.4106	6.4169
3.4084	6.4059
3.4061	6.4488
3.4039	6.5013
3.4017	6.5210
3.3994	6.5264
3.3972	6.5078
3.3950	6.5049
3.3928	6.5275
3.3906	6.5135
3.3883	6.4704
3.3861	6.4730
3.3839	6.4774
3.3817	6.4849
3.3795	6.4880
3.3773	6.4788
3.3751	6.4969
3.3729	6.5163
3.3707	6.5463
3.3685	6.5569
3.3663	6.5749
3.3641	6.6244
3.3620	6.6642
3.3598	6.7057
3.3576	6.7212
3.3554	6.7493
3.3533	6.7818
3.3511	6.7873
3.3489	6.7802
3.3468	6.8125
3.3446	6.8273
3.3425	6.8259
3.3403	6.8384
3.3382	6.8740
3.3360	6.8953
3.3339	6.9068
3.3317	6.9033
3.3296	6.8845
3.3274	6.8859
3.3253	6.8972
3.3232	6.9039
3.3210	6.9199
3.3189	6.9005
3.3168	6.8958
3.3147	6.9049
3.3126	6.9194
3.3104	6.9321
3.3083	6.9257
3.3062	6.9228
3.3041	6.9431
3.3020	6.9420
3.2999	6.9161
3.2978	6.8992
3.2957	6.9199
3.2936	6.8995
3.2915	6.8771
3.2894	6.8916
3.2874	6.8990
3.2853	6.9013
3.2832	6.9133
3.2811	6.8916
3.2790	6.8810
3.2770	6.8909
3.2749	6.8880
3.2728	6.8969
3.2708	6.8824
3.2687	6.8463
3.2666	6.8412
3.2646	6.8768
3.2625	6.8843
3.2605	6.8564
3.2584	6.8803
3.2564	6.8611
3.2543	6.8210
3.2523	6.8124
3.2503	6.8447
3.2482	6.8691
3.2462	6.8564
3.2442	6.8459
3.2421	6.8456
3.2401	6.8508
3.2381	6.8428
3.2361	6.8392
3.2340	6.8192
3.2320	6.8231
3.2300	6.8418
3.2280	6.8449
3.2260	6.8149
3.2240	6.8132
3.2220	6.8330
3.2200	6.8049
3.2180	6.7802
3.2160	6.8020
3.2140	6.8473
3.2120	6.8512
3.2100	6.8194
3.2080	6.7730
3.2060	6.7875
3.2040	6.8285
3.2021	6.8290
3.2001	6.8238
3.1981	6.8081
3.1961	6.7788
3.1942	6.7720
3.1922	6.7692
3.1902	6.7413
3.1883	6.7474
3.1863	6.7792
3.1844	6.7743
3.1824	6.7545
3.1805	6.7425
3.1785	6.7650
3.1766	6.7537
3.1746	6.7192
3.1727	6.7273
3.1707	6.7624
3.1688	6.7551
3.1669	6.6992
3.1649	6.6613
3.1630	6.6753
3.1611	6.6974
3.1591	6.6987
3.1572	6.6748
3.1553	6.6820
3.1534	6.6825
3.1515	6.6525
3.1495	6.6539
3.1476	6.6382
3.1457	6.6213
3.1438	6.6520
3.1419	6.6612
3.1400	6.6534
3.1381	6.6429
3.1362	6.6459
3.1343	6.6337
3.1324	6.6272
3.1305	6.6159
3.1286	6.6187
3.1268	6.6005
3.1249	6.5747
3.1230	6.5836
3.1211	6.6080
3.1192	6.5943
3.1174	6.5792
3.1155	6.5625
3.1136	6.5688
3.1117	6.5922
3.1099	6.5981
3.1080	6.5665
3.1061	6.5538
3.1043	6.5657
3.1024	6.5721
3.1006	6.5452
3.0987	6.5470
3.0969	6.5498
3.0950	6.5215
3.0932	6.4906
3.0913	6.5121
3.0895	6.5179
3.0876	6.4896
3.0858	6.4833
3.0840	6.5100
3.0821	6.5473
3.0803	6.5463
3.0785	6.5039
3.0766	6.5034
3.0748	6.5243
3.0730	6.5442
3.0712	6.5174
3.0694	6.4652
3.0675	6.4903
3.0657	6.5172
3.0639	6.5447
3.0621	6.5606
3.0603	6.5271
3.0585	6.4701
3.0567	6.4647
3.0549	6.5078
3.0531	6.4966
3.0513	6.4964
3.0495	6.4992
3.0477	6.4922
3.0459	6.4992
3.0441	6.4870
3.0423	6.4683
3.0406	6.4582
3.0388	6.4425
3.0370	6.4478
3.0352	6.4462
3.0334	6.4865
3.0317	6.5151
3.0299	6.4969
3.0281	6.4943
3.0264	6.5205
3.0246	6.5252
3.0228	6.5182
3.0211	6.4716
3.0193	6.4298
3.0176	6.4537
3.0158	6.4932
3.0140	6.4990
3.0123	6.4725
3.0105	6.4807
3.0088	6.5119
3.0070	6.5236
3.0053	6.4856
3.0036	6.4561
3.0018	6.4596
3.0001	6.4701
2.9984	6.4997
2.9966	6.4896
2.9949	6.4767
2.9932	6.4990
2.9914	6.4956
2.9897	6.4835
2.9880	6.4896
2.9863	6.4816
2.9845	6.5083
2.9828	6.4943
2.9811	6.4725
2.9794	6.4704
2.9777	6.4955
2.9760	6.4948
2.9743	6.4692
2.9726	6.4860
2.9709	6.4956
2.9692	6.4826
2.9675	6.4953
2.9658	6.4844
2.9641	6.4769
2.9624	6.5023
2.9607	6.5296
2.9590	6.5055
2.9573	6.4645
2.9556	6.4833
2.9539	6.4880
2.9523	6.5018
2.9506	6.5133
2.9489	6.5013
2.9472	6.4997
2.9455	6.5109
2.9439	6.4901
2.9422	6.4956
2.9405	6.5008
2.9389	6.5149
2.9372	6.4826
2.9355	6.4556
2.9339	6.4717
2.9322	6.5133
2.9306	6.5447
2.9289	6.5395
2.9272	6.5681
2.9256	6.5974
2.9239	6.5709
2.9223	6.5800
2.9207	6.6012
2.9190	6.5941
2.9174	6.5751
2.9157	6.5937
2.9141	6.6176
2.9124	6.6340
2.9108	6.6387
2.9092	6.6551
2.9075	6.6471
2.9059	6.6265
2.9043	6.6283
2.9027	6.6635
2.9010	6.6756
2.8994	6.6719
2.8978	6.6652
2.8962	6.6553
2.8946	6.6797
2.8929	6.7113
2.8913	6.7289
2.8897	6.6977
2.8881	6.6825
2.8865	6.7244
2.8849	6.7317
2.8833	6.7167
2.8817	6.7064
2.8801	6.7582
2.8785	6.7212
2.8769	6.6776
2.8753	6.7282
2.8737	6.7621
2.8721	6.7519
2.8705	6.7314
2.8689	6.7692
2.8673	6.7959
2.8658	6.7950
2.8642	6.7720
2.8626	6.7662
2.8610	6.7624
2.8594	6.7898
2.8579	6.8395
2.8563	6.8177
2.8547	6.8264
2.8531	6.8151
2.8516	6.7856
2.8500	6.8442
2.8484	6.8602
2.8469	6.7969
2.8453	6.7980
2.8437	6.8756
2.8422	6.8555
2.8406	6.8233
2.8391	6.8330
2.8375	6.8477
2.8360	6.8343
2.8344	6.8556
2.8329	6.8681
2.8313	6.8688
2.8298	6.8615
2.8282	6.8871
2.8267	6.9295
2.8252	6.9140
2.8236	6.9112
2.8221	6.9499
2.8205	6.9520
2.8190	6.9337
2.8175	6.9349
2.8159	6.9335
2.8144	6.9394
2.8129	6.9579
2.8114	6.9782
2.8098	6.9635
2.8083	6.9597
2.8068	7.0064
2.8053	6.9912
2.8038	6.9867
2.8022	6.9808
2.8007	6.9649
2.7992	7.0092
2.7977	7.0919
2.7962	7.0884
2.7947	7.0849
2.7932	7.0685
2.7917	7.0369
2.7902	7.0566
2.7887	7.0617
2.7872	7.0692
2.7857	7.1046
2.7842	7.1203
2.7827	7.1559
2.7812	7.1452
2.7797	7.1472
2.7782	7.1608
2.7767	7.1751
2.7752	7.1892
2.7738	7.2012
2.7723	7.2169
2.7708	7.2330
2.7693	7.2202
2.7678	7.2042
2.7664	7.2065
2.7649	7.2400
2.7634	7.2806
2.7619	7.3099
2.7605	7.2958
2.7590	7.2972
2.7575	7.3179
2.7561	7.3338
2.7546	7.3272
2.7531	7.3415
2.7517	7.3701
2.7502	7.4093
2.7488	7.3901
2.7473	7.3641
2.7458	7.4221
2.7444	7.4805
2.7429	7.4683
2.7415	7.4826
2.7400	7.5265
2.7386	7.5272
2.7371	7.5281
2.7357	7.5431
2.7343	7.5881
2.7328	7.6460
2.7314	7.6291
2.7299	7.5953
2.7285	7.6652
2.7271	7.7212
2.7256	7.7288
2.7242	7.7114
2.7228	7.6324
2.7213	7.5748
2.7199	7.5194
2.7185	7.5823
2.7171	7.7355
2.7156	7.8377
2.7142	7.8616
2.7128	7.9017
2.7114	7.9493
2.7100	7.9303
2.7085	7.9366
2.7071	7.9566
2.7057	7.9491
2.7043	8.0031
2.7029	8.0465
2.7015	8.0742
2.7001	8.1169
2.6987	8.1241
2.6973	8.1337
2.6959	8.1371
2.6945	8.1283
2.6931	8.0984
2.6917	8.1265
2.6903	8.1663
2.6889	8.1517
2.6875	8.1623
2.6861	8.1829
2.6847	8.2249
2.6833	8.2621
2.6819	8.2722
2.6805	8.2720
2.6791	8.2333
2.6778	8.1797
2.6764	8.2017
2.6750	8.2141
2.6736	8.2444
2.6722	8.2966
2.6709	8.3055
2.6695	8.2924
2.6681	8.3083
2.6667	8.2919
2.6654	8.2425
2.6640	8.2164
2.6626	8.1813
2.6613	8.1631
2.6599	8.2293
2.6585	8.2976
2.6572	8.3102
2.6558	8.2673
2.6545	8.2511
2.6531	8.2659
2.6517	8.2781
2.6504	8.2987
2.6490	8.2805
2.6477	8.2805
2.6463	8.2795
2.6450	8.3078
2.6436	8.2985
2.6423	8.3002
2.6409	8.3714
2.6396	8.3867
2.6382	8.2927
2.6369	8.2387
2.6356	8.2662
2.6342	8.2971
2.6329	8.3301
2.6315	8.3196
2.6302	8.3339
2.6289	8.3662
2.6275	8.3540
2.6262	8.3355
2.6249	8.3498
2.6236	8.3709
2.6222	8.3337
2.6209	8.3081
2.6196	8.3132
2.6183	8.3074
2.6169	8.3418
2.6156	8.3695
2.6143	8.3862
2.6130	8.3655
2.6117	8.3604
2.6103	8.3644
2.6090	8.3397
2.6077	8.3489
2.6064	8.3351
2.6051	8.3428
2.6038	8.3576
2.6025	8.3646
2.6012	8.3555
2.5999	8.3730
2.5986	8.3867
2.5973	8.3831
2.5960	8.3592
2.5947	8.3407
2.5934	8.3979
2.5921	8.4298
2.5908	8.4096
2.5895	8.4060
2.5882	8.3556
2.5869	8.3711
2.5856	8.3841
2.5843	8.3608
2.5830	8.3649
2.5817	8.3771
2.5805	8.4173
2.5792	8.3836
2.5779	8.3667
2.5766	8.4013
2.5753	8.4223
2.5741	8.4059
2.5728	8.3693
2.5715	8.3512
2.5702	8.3543
2.5690	8.3552
2.5677	8.3410
2.5664	8.3374
2.5651	8.3721
2.5639	8.4171
2.5626	8.4028
2.5613	8.3728
2.5601	8.3182
2.5588	8.3174
2.5575	8.3119
2.5563	8.3130
2.5550	8.3243
2.5538	8.3695
2.5525	8.3896
2.5513	8.3740
2.5500	8.3826
2.5487	8.3911
2.5475	8.4072
2.5462	8.3791
2.5450	8.3850
2.5437	8.4016
2.5425	8.4225
2.5413	8.4206
2.5400	8.3667
2.5388	8.3990
2.5375	8.4260
2.5363	8.4353
2.5350	8.4553
2.5338	8.4047
2.5326	8.3782
2.5313	8.4156
2.5301	8.4379
2.5289	8.4262
2.5276	8.4569
2.5264	8.4199
2.5252	8.4005
2.5239	8.4112
2.5227	8.3979
2.5215	8.4005
2.5202	8.4567
2.5190	8.4761
2.5178	8.4464
2.5166	8.4417
2.5154	8.4152
2.5141	8.4077
2.5129	8.4302
2.5117	8.4483
2.5105	8.4429
2.5093	8.4733
2.5081	8.4639
2.5068	8.4286
2.5056	8.4797
2.5044	8.4953
2.5032	8.4496
2.5020	8.4283
2.5008	8.4236
2.4996	8.4663
2.4984	8.4808
2.4972	8.5155
2.4960	8.5298
2.4948	8.4945
2.4936	8.4314
2.4924	8.3984
2.4912	8.4220
2.4900	8.4234
2.4888	8.4834
2.4876	8.5415
2.4864	8.4828
2.4852	8.4452
2.4840	8.4740
2.4828	8.4394
2.4816	8.4527
2.4805	8.4787
2.4793	8.5235
2.4781	8.5340
2.4769	8.4977
2.4757	8.4703
2.4745	8.4672
2.4734	8.5008
2.4722	8.4949
2.4710	8.4571
2.4698	8.4780
2.4686	8.5038
2.4675	8.4787
2.4663	8.5031
2.4651	8.5882
2.4640	8.5608
2.4628	8.5202
2.4616	8.5303
2.4604	8.4947
2.4593	8.4953
2.4581	8.5460
2.4569	8.5594
2.4558	8.5111
2.4546	8.5120
2.4535	8.5036
2.4523	8.5041
2.4511	8.5373
2.4500	8.4947
2.4488	8.4659
2.4477	8.5083
2.4465	8.5335
2.4454	8.5774
2.4442	8.5605
2.4431	8.4989
2.4419	8.4855
2.4408	8.5310
2.4396	8.5289
2.4385	8.5067
2.4373	8.4940
2.4362	8.4639
2.4350	8.4852
2.4339	8.5284
2.4327	8.5127
2.4316	8.4818
2.4305	8.5111
2.4293	8.5251
2.4282	8.5376
2.4270	8.5935
2.4259	8.5413
2.4248	8.4532
2.4236	8.4501
2.4225	8.4677
2.4214	8.4834
2.4202	8.5256
2.4191	8.5530
2.4180	8.5638
2.4169	8.5008
2.4157	8.5111
2.4146	8.5779
2.4135	8.6252
2.4124	8.6334
2.4112	8.5688
2.4101	8.5169
2.4090	8.5404
2.4079	8.5870
2.4068	8.6008
2.4056	8.6067
2.4045	8.6278
2.4034	8.6049
2.4023	8.5373
2.4012	8.5514
2.4001	8.6076
2.3990	8.5999
2.3979	8.5896
2.3967	8.6489
2.3956	8.6257
2.3945	8.5696
2.3934	8.5615
2.3923	8.5472
2.3912	8.5598
2.3901	8.6292
2.3890	8.6189
2.3879	8.6135
2.3868	8.6369
2.3857	8.6649
2.3846	8.6800
2.3835	8.6533
2.3824	8.6198
2.3813	8.6125
2.3802	8.6615
2.3791	8.6564
2.3781	8.5847
2.3770	8.5694
2.3759	8.5643
2.3748	8.6153
2.3737	8.6296
2.3726	8.6013
2.3715	8.5704
2.3704	8.6250
2.3694	8.6309
2.3683	8.5955
2.3672	8.5997
2.3661	8.6121
2.3650	8.6477
2.3640	8.6322
2.3629	8.6078
2.3618	8.6174
2.3607	8.5969
2.3597	8.6208
2.3586	8.6533
2.3575	8.6702
2.3564	8.6646
2.3554	8.5940
2.3543	8.5610
2.3532	8.5976
2.3522	8.6288
2.3511	8.6920
2.3500	8.6859
2.3490	8.7002
2.3479	8.7454
2.3468	8.7124
2.3458	8.7005
2.3447	8.6771
2.3436	8.6986
2.3426	8.7028
2.3415	8.6020
2.3405	8.5987
2.3394	8.6578
2.3384	8.7127
2.3373	8.7581
2.3363	8.7389
2.3352	8.6686
2.3342	8.6510
2.3331	8.6264
2.3321	8.6463
2.3310	8.6702
2.3300	8.6892
2.3289	8.7049
2.3279	8.6948
2.3268	8.6698
2.3258	8.7304
2.3247	8.7537
2.3237	8.7550
2.3226	8.7431
2.3216	8.7475
2.3206	8.6672
2.3195	8.6431
2.3185	8.7246
2.3175	8.7328
2.3164	8.6997
2.3154	8.7056
2.3144	8.6623
2.3133	8.6203
2.3123	8.6384
2.3113	8.6517
2.3102	8.6290
2.3092	8.6854
2.3082	8.7909
2.3071	8.7412
2.3061	8.6740
2.3051	8.6997
2.3041	8.7408
2.3030	8.7555
2.3020	8.7703
2.3010	8.7366
2.3000	8.6930
2.2990	8.6620
2.2979	8.7131
2.2969	8.7504
2.2959	8.6916
2.2949	8.7059
2.2939	8.7408
2.2929	8.7717
2.2918	8.8127
2.2908	8.7441
2.2898	8.7127
2.2888	8.7689
2.2878	8.7293
2.2868	8.7202
2.2858	8.7740
2.2848	8.7780
2.2838	8.7844
2.2828	8.7708
2.2818	8.7044
2.2808	8.7558
2.2798	8.8280
2.2787	8.8366
2.2777	8.8186
2.2767	8.7488
2.2757	8.6681
2.2747	8.6992
2.2738	8.7470
2.2728	8.7792
2.2718	8.8104
2.2708	8.7494
2.2698	8.7244
2.2688	8.8137
2.2678	8.7769
2.2668	8.6826
2.2658	8.6838
2.2648	8.7114
2.2638	8.7876
2.2628	8.8425
2.2618	8.8272
2.2609	8.7750
2.2599	8.7703
2.2589	8.7316
2.2579	8.7426
2.2569	8.8532
2.2559	8.8914
2.2550	8.8195
2.2540	8.7989
2.2530	8.8094
2.2520	8.8015
2.2510	8.7659
2.2501	8.7555
2.2491	8.7197
2.2481	8.7436
2.2471	8.7592
2.2462	8.7457
2.2452	8.7935
2.2442	8.7665
2.2433	8.7441
2.2423	8.7925
2.2413	8.7883
2.2403	8.7689
2.2394	8.7693
2.2384	8.7982
2.2374	8.7968
2.2365	8.7972
2.2355	8.7911
2.2345	8.7600
2.2336	8.8423
2.2326	8.9036
2.2317	8.8566
2.2307	8.8537
2.2297	8.8502
2.2288	8.8106
2.2278	8.7823
2.2269	8.7311
2.2259	8.7623
2.2250	8.8493
2.2240	8.8003
2.2231	8.7621
2.2221	8.8038
2.2211	8.8373
2.2202	8.8462
2.2192	8.7963
2.2183	8.8205
2.2173	8.8239
2.2164	8.8410
2.2155	8.9018
2.2145	8.8992
2.2136	8.8924
2.2126	8.8966
2.2117	8.8645
2.2107	8.8312
2.2098	8.7663
2.2088	8.8221
2.2079	8.8617
2.2070	8.8306
2.2060	8.8296
2.2051	8.8771
2.2041	8.8999
2.2032	8.8792
2.2023	8.8636
2.2013	8.8774
2.2004	8.8767
2.1995	8.8474
2.1985	8.8472
2.1976	8.8633
2.1967	8.8917
2.1957	8.9628
2.1948	8.9402
2.1939	8.8851
2.1930	8.8498
2.1920	8.8125
2.1911	8.8608
2.1902	8.9220
2.1893	8.9194
2.1883	8.9397
2.1874	8.9613
2.1865	8.9309
2.1856	8.9121
2.1846	8.9008
2.1837	8.9116
2.1828	8.9044
2.1819	8.8870
2.1810	8.8910
2.1800	8.8870
2.1791	8.9552
2.1782	8.9592
2.1773	8.9449
2.1764	8.9540
2.1755	8.8835
2.1746	8.8080
2.1736	8.8068
2.1727	8.8844
2.1718	8.9140
2.1709	8.9413
2.1700	8.9090
2.1691	8.8371
2.1682	8.9010
2.1673	8.8551
2.1664	8.7989
2.1655	8.8889
2.1646	8.9128
2.1637	8.8982
2.1628	9.0131
2.1619	8.9878
2.1610	8.8704
2.1601	8.8678
2.1592	8.9510
2.1583	8.9862
2.1574	8.9620
2.1565	8.9238
2.1556	8.8741
2.1547	8.8638
2.1538	8.8976
2.1529	8.8750
2.1520	8.8678
2.1511	8.9137
2.1502	8.8711
2.1493	8.8638
2.1484	8.9151
2.1475	8.8950
2.1466	8.9166
2.1458	8.9267
2.1449	8.9004
2.1440	8.9158
2.1431	8.9273
2.1422	8.9306
2.1413	8.9901
2.1404	9.0166
2.1396	8.9634
2.1387	8.9212
2.1378	8.9198
2.1369	8.9074
2.1360	8.9156
2.1352	8.9413
2.1343	8.9098
2.1334	8.8971
2.1325	8.9299
2.1316	8.9498
2.1308	8.9683
2.1299	9.0148
2.1290	9.0555
2.1281	8.9610
2.1273	8.8711
2.1264	8.8935
2.1255	8.9625
2.1247	8.9672
2.1238	8.9651
2.1229	8.9843
2.1220	8.9442
2.1212	8.9034
2.1203	8.9004
2.1194	8.8547
2.1186	8.9745
2.1177	9.0787
2.1168	8.9958
2.1160	8.9529
2.1151	8.8992
2.1143	8.8750
2.1134	8.9667
2.1125	8.9958
2.1117	8.9456
2.1108	8.9636
2.1100	8.9606
2.1091	8.8774
2.1082	8.9480
2.1074	8.9896
2.1065	8.9641
2.1057	9.0145
2.1048	8.9906
2.1040	8.9316
2.1031	9.0026
2.1023	9.0229
2.1014	8.9963
2.1005	8.9639
2.0997	8.9437
2.0988	8.9841
2.0980	9.0190
2.0971	9.0546
2.0963	9.0356
2.0955	9.0372
2.0946	9.0496
2.0938	8.9740
2.0929	8.9721
2.0921	9.0467
2.0912	9.0584
2.0904	8.9576
2.0895	8.9646
2.0887	9.0574
2.0879	9.0696
2.0870	9.0096
2.0862	8.9838
2.0853	9.0431
2.0845	9.0262
2.0837	9.0281
2.0828	9.0600
2.0820	8.9850
2.0812	8.9433
2.0803	9.0145
2.0795	9.0630
2.0760	9.0355
2.0720	9.0745
2.0680	9.1441
2.0640	9.0027
2.0600	9.0246
2.0560	9.0330
2.0520	8.9912
2.0480	8.9769
2.0440	9.1028
2.0400	9.1346
2.0360	9.0437
2.0320	9.0325
2.0280	8.9745
2.0240	9.0530
2.0200	9.1722
2.0160	9.0953
2.0120	9.0708
2.0080	9.0548
2.0040	9.0634
2.0000	9.1712
1.9960	9.1817
1.9920	9.1561
1.9880	9.0819
1.9840	9.1174
1.9800	9.0991
1.9760	9.0937
1.9720	9.1535
1.9680	9.1884
1.9640	9.1170
1.9600	9.1141
1.9560	9.0896
1.9520	9.1581
1.9480	9.3122
1.9440	9.2457
1.9400	9.2729
1.9360	9.1651
1.9320	9.1766
1.9280	9.1885
1.9240	9.3115
1.9200	9.3687
1.9160	9.4685
1.9120	9.4301
1.9080	9.4079
1.9040	9.4274
1.9000	9.3707
1.8960	9.4453
1.8920	9.4699
1.8880	9.4953
1.8840	9.3713
1.8800	9.4027
1.8760	9.4150
1.8720	9.3406
1.8680	9.3284
1.8640	9.4686
1.8600	9.6991
1.8560	9.5357
1.8520	9.5469
1.8480	9.4436
1.8440	9.4396
1.8400	9.2965
1.8360	9.4214
1.8320	9.4630
1.8280	9.4684
1.8240	9.5580
1.8200	9.7116
1.8160	9.6987
1.8120	9.6987
1.8080	9.6625
1.8040	9.6657
1.8000	9.6245
1.7960	9.6308
1.7920	9.6562
1.7880	9.6658
1.7840	9.7890
1.7800	9.7408
1.7760	9.6785
1.7720	9.7029
1.7680	9.7646
1.7640	9.8235
1.7600	9.6516
1.7560	9.6759
1.7520	9.7488
1.7480	9.7295
1.7440	9.7102
1.7400	9.7356
1.7360	9.7932
1.7320	9.8594
1.7280	9.8540
1.7240	9.9170
1.7200	10.0389
1.7160	9.9551
1.7120	9.8113
1.7080	9.8971
1.7040	9.8659
1.7000	9.7505
1.6960	9.7569
1.6920	9.9327
1.6880	9.8888
1.6840	9.9731
1.6800	10.0331
1.6760	9.9839
1.6720	9.8848
1.6680	9.8594
1.6640	9.9200
1.6600	9.9167
1.6560	9.9872
1.6520	9.9519
1.6480	10.1043
1.6440	10.0297
1.6400	9.9993
1.6360	10.0668
1.6320	10.0769
1.6280	10.1308
1.6240	10.0549
1.6200	10.0217
1.6160	10.1330
1.6120	10.1692
1.6080	10.1802
1.6040	10.1802
1.6000	10.1652
1.5960	10.2980
1.5920	10.1432
1.5880	10.1501
1.5840	10.1109
1.5800	10.0939
1.5760	10.2078
1.5720	10.1897
1.5680	10.1718
1.5640	10.1650
1.5600	10.1726
1.5560	10.1624
1.5520	10.2301
1.5480	10.1658
1.5440	10.1126
1.5400	10.0406
1.5360	10.1216
1.5320	10.1061
1.5280	10.1598
1.5240	10.2024
1.5200	10.1463
1.5160	10.2500
1.5120	10.1962
1.5080	10.3146
1.5040	10.2626
1.5000	10.2593
1.4960	10.1633
1.4920	10.1599
1.4880	10.1789
1.4840	10.2451
1.4800	10.2200
1.4760	10.2279
1.4720	10.1707
1.4680	10.1632
1.4640	10.1552
1.4600	10.2074
1.4560	10.1888
1.4520	10.2302
1.4480	10.2264
1.4440	10.2831
1.4400	10.2336
1.4360	10.2747
1.4320	10.2784
1.4280	10.2307
1.4240	10.2973
1.4200	10.2478
1.4160	10.2916
1.4120	10.1740
1.4080	10.2044
1.4040	10.2123
1.4000	10.2432
1.3960	10.2373
1.3920	10.2475
1.3880	10.2762
1.3840	10.1558
1.3800	10.1414
1.3760	10.2178
1.3720	10.3127
1.3680	10.2716
1.3640	10.2873
1.3600	10.2312
1.3560	10.2678
1.3520	10.2883
1.3480	10.3958
1.3440	10.3988
1.3400	10.2803
1.3360	10.2660
1.3320	10.2070
1.3280	10.3143
1.3240	10.3055
1.3200	10.2953
1.3160	10.2542
1.3120	10.3024
1.3080	10.4161
1.3040	10.4195
1.3000	10.3833
1.2960	10.2642
1.2920	10.3036
1.2880	10.2218
1.2840	10.2643
1.2800	10.3048
1.2760	10.2555
1.2720	10.3229
1.2680	10.4014
1.2640	10.3777
1.2600	10.3237
1.2560	10.3782
1.2520	10.4198
1.2480	10.3978
1.2440	10.4071
1.2400	10.4237
1.2360	10.3252
1.2320	10.1634
1.2280	10.3050
1.2240	10.4677
1.2200	10.2749
1.2160	10.5513
1.2120	10.5312
1.2080	10.6018
1.2040	10.5997
1.2000	10.5533
1.1960	10.5058
1.1920	10.5050
1.1880	10.5870
1.1840	10.6477
1.1800	10.5862
1.1760	10.5822
1.1720	10.5352
1.1680	10.5859
1.1640	10.5385
1.1600	10.5283
1.1560	10.5550
1.1520	10.5795
1.1480	10.4800
1.1440	10.5073
1.1400	10.5055
1.1360	10.5800
1.1320	10.5824
1.1280	10.5740
1.1240	10.6114
1.1200	10.5988
1.1160	10.4861
1.1120	10.5506
1.1080	10.5573
1.1040	10.5186
1.1000	10.4945
1.0960	10.5647
1.0920	10.5116
1.0880	10.4604
1.0840	10.3959
1.0800	10.2815
1.0760	10.3687
1.0720	10.2137
1.0680	10.2416
1.0640	10.3441
1.0600	10.4034
1.0560	10.2259
1.0520	10.2568
1.0480	10.2965
1.0440	10.1543
1.0400	10.1541
1.0360	10.0486
1.0320	10.1572
1.0280	9.9637
1.0240	9.9264
1.0200	10.0065
1.0160	10.0095
1.0120	9.9738
1.0080	10.0216
1.0040	10.0622
1.0000	10.0051
0.9960	9.9507
0.9920	9.9868
0.9880	9.8863
0.9840	9.8847
0.9800	9.8240
0.9760	9.8356
0.9720	9.9368
0.9680	9.9687
0.9640	9.9049
0.9600	9.9657
0.9560	9.9778
0.9520	9.9697
0.9480	10.0342
0.9440	10.0280
0.9400	10.0662
0.9360	10.0662
0.9320	10.1630
0.9280	10.2153
0.9240	10.2747
0.9200	10.3941
0.9160	10.4040
0.9120	10.3293
0.9080	10.4318
0.9040	10.5572
0.9000	10.6839
0.8960	10.5819
0.8920	10.6973
0.8880	10.7398
0.8840	10.7615
0.8800	10.7433
0.8760	10.7747
0.8720	10.9040
0.8680	10.9796
0.8640	11.0454
0.8600	11.2333
0.8560	11.2770
0.8520	11.2581
0.8480	11.2695
0.8440	11.3918
0.8400	11.3995
0.8360	11.5762
0.8320	11.6641
0.8280	11.8749
0.8240	11.8365
0.8200	11.7369
0.8160	11.7674
0.8120	11.8627
0.8080	11.9425
0.8040	11.9661
0.8000	11.8395
0.7990	11.5857
0.7980	11.5856
0.7970	11.5743
0.7960	11.4594
0.7950	11.5700
0.7940	11.4361
0.7930	11.7195
0.7920	11.5469
0.7910	11.5668
0.7900	11.4033
0.7890	11.4272
0.7880	11.4700
0.7870	11.3565
0.7860	11.5866
0.7850	11.6985
0.7840	11.6072
0.7830	11.5751
0.7820	11.5213
0.7810	11.4420
0.7800	11.4299
0.7790	11.5265
0.7780	11.5526
0.7770	11.4594
0.7760	11.5370
0.7750	11.7213
0.7740	11.5917
0.7730	11.4687
0.7720	11.4285
0.7710	11.4002
0.7700	11.5421
0.7690	11.6675
0.7680	11.3696
0.7670	11.2306
0.7660	11.4178
0.7650	11.5370
0.7640	11.7426
0.7630	11.8020
0.7620	11.4841
0.7610	11.4966
0.7600	11.6001
0.7590	11.7136
0.7580	11.6264
0.7570	11.6241
0.7560	11.6050
0.7550	11.5518
0.7540	11.6388
0.7530	11.3629
0.7520	11.4319
0.7510	11.4593
0.7500	11.4155
0.7490	11.3873
0.7480	11.4637
0.7470	11.4521
0.7460	11.3736
0.7450	11.3548
0.7440	11.5080
0.7430	11.7122
0.7420	11.7093
0.7410	11.6203
0.7400	11.5443
0.7390	11.4378
0.7380	11.4749
0.7370	11.3146
0.7360	11.3093
0.7350	11.3994
0.7340	11.3684
0.7330	11.4372
0.7320	11.3931
0.7310	11.4676
0.7300	11.5763
0.7290	11.3758
0.7280	11.3733
0.7270	11.5317
0.7260	11.4975
0.7250	11.6195
0.7240	11.3523
0.7230	11.2996
0.7220	11.2315
0.7210	11.3656
0.7200	11.5702
0.7190	11.5699
0.7180	11.4432
0.7170	11.5336
0.7160	11.2583
0.7150	11.2975
0.7140	11.2459
0.7130	11.1771
0.7120	11.4280
0.7110	11.2397
0.7100	11.2956
0.7090	11.6613
0.7080	11.5336
0.7070	11.2824
0.7060	11.3785
0.7050	11.3934
0.7040	11.3999
0.7030	11.1329
0.7020	11.4042
0.7010	11.2198
0.7000	11.0770
0.6990	11.3439
0.6980	11.1483
0.6970	11.2546
0.6960	11.1821
0.6950	11.4684
0.6940	11.5615
0.6930	11.4176
0.6920	11.3913
0.6910	11.3687
0.6900	11.4838
0.6890	11.3150
0.6880	11.3223
0.6870	11.0862
0.6860	11.1092
0.6850	11.1333
0.6840	11.1447
0.6830	11.2920
0.6820	11.1657
0.6810	11.2371
0.6800	11.0159
0.6790	10.9946
0.6780	11.1063
0.6770	11.1761
0.6760	11.2022
0.6750	11.1342
0.6740	11.1903
0.6730	11.2274
0.6720	11.3299
0.6710	11.1095
0.6700	11.3055
0.6690	11.2076
0.6680	11.2877
0.6670	11.1990
0.6660	11.3370
0.6650	11.3414
0.6640	11.1276
0.6630	11.1319
0.6620	11.2765
0.6610	11.3476
0.6600	11.2589
0.6590	11.2677
0.6580	11.2697
0.6570	11.1455
0.6560	11.2212
0.6550	11.0516
0.6540	11.1774
0.6530	11.0800
0.6520	11.1913
0.6510	11.1404
0.6500	11.2444
0.6490	11.4933
0.6480	11.3076
0.6470	11.2520
0.6460	11.1764
0.6450	10.9958
0.6440	10.9734
0.6430	11.0435
0.6420	11.2206
0.6410	11.1379
0.6400	11.3679
0.6390	11.2406
0.6380	11.2964
0.6370	11.1895
0.6360	11.3789
0.6350	11.1233
0.6340	11.1233
0.6330	11.1163
0.6320	11.1077
0.6310	10.9201
0.6300	11.1473
0.6290	11.0519
0.6280	11.1939
0.6270	11.2274
0.6260	11.1536
0.6250	11.1442
0.6240	11.0595
0.6230	11.0326
0.6220	11.0563
0.6210	11.1910
0.6200	11.1019
0.6190	11.1442
0.6180	11.1420
0.6170	10.9820
0.6160	10.9651
0.6150	11.0241
0.6140	11.0535
0.6130	11.1043
0.6120	11.0877
0.6110	11.1464
0.6100	11.1258
0.6090	11.2652
0.6080	11.0485
0.6070	11.3886
0.6060	11.3168
0.6050	11.1748
0.6040	11.1748
0.6030	11.0393
0.6020	11.0886
0.6010	10.9150
0.6000	11.1596
0.5990	10.9500
0.5980	11.0182
0.5970	11.0788
0.5960	11.1992
0.5950	10.9668
0.5940	11.0688
0.5930	10.9307
0.5920	11.0760
0.5910	10.9157
0.5900	10.8852
0.5890	11.1145
0.5880	11.2339
0.5870	10.9686
0.5860	10.9317
0.5850	10.9443
0.5840	11.0243
0.5830	10.9166
0.5820	11.1093
0.5810	10.9559
0.5800	10.9517
0.5790	10.9543
0.5780	10.9179
0.5770	10.9799
0.5760	10.8498
0.5750	10.9862
0.5740	11.0646
0.5730	11.1716
0.5720	11.0837
0.5710	11.1098
0.5700	11.1961
0.5690	11.1514
0.5680	11.1425
0.5670	11.0380
0.5660	11.2406
0.5650	11.0283
0.5640	10.9551
0.5630	11.1822
0.5620	11.1845
0.5610	11.2226
0.5600	11.2567
0.5590	11.1890
0.5580	10.8263
0.5570	10.9169
0.5560	10.9329
0.5550	10.6622
0.5540	10.8525
0.5530	10.6394
0.5520	10.5787
0.5510	10.4678
0.5500	10.4666
0.5490	10.4287
0.5480	10.4250
0.5470	10.4584
0.5460	10.4484
0.5450	10.6186
0.5440	10.5494
0.5430	10.5027
0.5420	10.3647
0.5410	10.5751
0.5400	10.4302
0.5390	10.2933
0.5380	10.3422
0.5370	10.5416
0.5360	10.3860
0.5350	10.7143
0.5340	10.6266
0.5330	10.5178
0.5320	10.5758
0.5310	10.4489
0.5300	10.3075
0.5290	10.5826
0.5280	10.6858
0.5270	10.2973
0.5260	10.2589
0.5250	10.2169
0.5240	10.3889
0.5230	10.6898
0.5220	10.5544
0.5210	10.5617
0.5200	10.2515
0.5190	10.5684
0.5180	10.6649
0.5170	10.4828
0.5160	10.5120
0.5150	10.3401
0.5140	10.5324
0.5130	10.1892
0.5120	10.0834
0.5110	10.2886
0.5100	10.1259
0.5090	10.2354
0.5080	10.0491
0.5070	10.0802
0.5060	9.9009
0.5050	10.2548
0.5040	10.4122
0.5030	10.1468
0.5020	10.0064
0.5010	9.9267
0.5000	9.7475
0.4990	9.9921
0.4980	9.9528
0.4970	10.0652
0.4960	10.2429
0.4950	10.1850
0.4940	10.1186
0.4930	9.8943
0.4920	9.9006
0.4910	9.9396
0.4900	9.9626
0.4890	9.7334
0.4880	9.8478
0.4870	10.1465
0.4860	10.0119
0.4850	9.8572
0.4840	9.9784
0.4830	9.9054
0.4820	9.7546
0.4810	9.6880
0.4800	9.6789
0.4790	9.8731
0.4780	9.9309
0.4770	10.0517
0.4760	9.9563
0.4750	10.1772
0.4740	9.9208
0.4730	9.9734
0.4720	9.9272
0.4710	9.8223
0.4700	9.8673
0.4690	9.6278
0.4680	9.7527
0.4670	9.5108
0.4660	9.6313
0.4650	9.6560
0.4640	9.8958
0.4630	9.8232
0.4620	9.5983
0.4610	9.5720
0.4600	9.6464
0.4590	9.9695
0.4580	10.1082
0.4570	9.8586
0.4560	9.7072
0.4550	9.7384
0.4540	9.7519
0.4530	9.6798
0.4520	9.7264
0.4510	9.8297
0.4500	10.0146
0.4490	10.0207
0.4480	9.6301
0.4470	9.6497
0.4460	9.5001
0.4450	9.4629
0.4440	9.6829
0.4430	9.7553
0.4420	9.8227
0.4410	9.8077
0.4400	9.4962
0.4390	9.2749
0.4380	9.6036
0.4370	9.3604
0.4360	9.3412
0.4350	9.3831
0.4340	9.2871
0.4330	9.1994
0.4320	9.3534
0.4310	9.2697
0.4300	9.1913
0.4290	9.0686
0.4280	9.3136
0.4270	9.2870
0.4260	9.1597
0.4250	8.9485
0.4240	9.0317
0.4230	9.3552
0.4220	9.0597
0.4210	8.9794
0.4200	9.0040
0.4190	8.8570
0.4180	8.8009
0.4170	8.8665
0.4160	9.0236
0.4150	8.8427
0.4140	8.7234
0.4130	8.4711
0.4120	8.5915
0.4110	8.6942
0.4100	8.8603
0.4090	8.5736
0.4080	8.4512
0.4070	8.7612
0.4060	8.8068
0.4050	8.5441
0.4040	8.4604
0.4030	8.4721
0.4020	8.3332
0.4010	8.6650
0.4000	8.5157
