Name: Green Quartzite
Type:  Rocks
Class:  Metamorphic 
Subclass: Quartzite
Particle Size:  0-75 Micrometer
Sample No.:   qrtzit6.doc
Owner:  JHU
Wavelength Range:  All
Origin:  Sample No. 475, The Hunt and Salisbury Collection at the U.S. 
Geological Survey, Denver, Co.
Description: This medium to coarse-grained rock is composed of well compacted 
rounded to subrounded strained quartz grains showing pressure solution effects, 
with some silica recrystallization and fluid inclusions present.  In the remaining 
small interstices and rimming the quartz is what appears to be fine to 
microcrystalline chlorite.  Additionally there are scattered opaques present in this 
section.   
Measurement:  Directional (10 Degree) Hemispherical Reflectance
First Column:  X
Second Column:  Y  
X Units:  Wavelength (micrometers)
Y Units:  Reflectance (percent)
First X Value: 14.9831	
Last X Value:  0.4
Number of X Values: 2868
Additional Information:  qrtzit6a.txt

14.983	11.339
14.940	11.191
14.897	10.925
14.854	10.568
14.812	10.122
14.770	9.5622
14.728	8.8783
14.686	8.0995
14.645	7.2387
14.603	6.3218
14.562	5.3765
14.521	4.4133
14.481	3.4673
14.441	2.6920
14.400	2.1869
14.361	1.9664
14.321	2.0906
14.281	2.5957
14.242	3.3635
14.203	4.3083
14.164	5.3133
14.126	6.2444
14.087	7.0479
14.049	7.7097
14.011	8.2608
13.973	8.7222
13.936	9.0686
13.899	9.3844
13.861	9.6401
13.824	9.8088
13.788	9.9272
13.751	10.013
13.715	10.052
13.679	10.025
13.643	9.9422
13.607	9.8311
13.571	9.6806
13.536	9.5095
13.500	9.3478
13.465	9.1891
13.430	9.0187
13.396	8.8204
13.361	8.5683
13.327	8.2645
13.293	7.9378
13.259	7.5740
13.225	7.1529
13.191	6.6961
13.158	6.2121
13.124	5.7082
13.091	5.2083
13.058	4.7435
13.026	4.3437
12.993	4.0069
12.960	3.7369
12.928	3.5559
12.896	3.4390
12.864	3.3722
12.832	3.3276
12.800	3.2623
12.769	3.1484
12.737	2.9904
12.706	2.8099
12.675	2.6573
12.644	2.5540
12.614	2.5144
12.583	2.5282
12.552	2.5622
12.522	2.5746
12.492	2.5216
12.462	2.3756
12.432	2.1452
12.402	1.8530
12.373	1.5598
12.343	1.3291
12.314	1.2164
12.285	1.2574
12.256	1.4477
12.227	1.7688
12.198	2.1877
12.169	2.6780
12.141	3.2205
12.113	3.7898
12.084	4.3659
12.056	4.9345
12.028	5.5029
12.000	6.0811
11.973	6.6600
11.945	7.2234
11.918	7.7622
11.890	8.2708
11.863	8.7307
11.836	9.1387
11.809	9.5168
11.782	9.8768
11.755	10.210
11.729	10.505
11.702	10.757
11.676	10.963
11.650	11.109
11.624	11.194
11.598	11.238
11.572	11.255
11.546	11.260
11.520	11.270
11.495	11.294
11.469	11.337
11.444	11.394
11.419	11.459
11.394	11.521
11.369	11.569
11.344	11.592
11.319	11.580
11.294	11.540
11.270	11.477
11.245	11.401
11.221	11.320
11.197	11.236
11.173	11.153
11.149	11.066
11.125	10.958
11.101	10.831
11.077	10.693
11.054	10.553
11.030	10.419
11.007	10.299
10.983	10.203
10.960	10.128
10.937	10.054
10.914	9.9719
10.891	9.8843
10.868	9.7919
10.846	9.6862
10.823	9.5784
10.800	9.4776
10.778	9.3829
10.755	9.2913
10.733	9.2044
10.711	9.1233
10.689	9.0440
10.667	8.9580
10.645	8.8746
10.623	8.7972
10.602	8.7349
10.580	8.6890
10.558	8.6613
10.537	8.6404
10.516	8.6165
10.494	8.5823
10.473	8.5326
10.452	8.4651
10.431	8.3843
10.410	8.2783
10.389	8.1466
10.368	7.9849
10.348	7.8012
10.327	7.6040
10.306	7.4018
10.286	7.2016
10.266	7.0076
10.245	6.8062
10.225	6.5967
10.205	6.3874
10.185	6.1919
10.165	6.0133
10.145	5.8474
10.125	5.6927
10.106	5.5519
10.086	5.4133
10.066	5.2868
10.047	5.1876
10.027	5.1211
10.008	5.0850
9.9887	5.0648
9.9695	5.0559
9.9504	5.0592
9.9313	5.0566
9.9123	5.0545
9.8934	5.0473
9.8746	5.0257
9.8558	4.9863
9.8371	4.9310
9.8185	4.8635
9.7999	4.7948
9.7814	4.7301
9.7630	4.6779
9.7447	4.6275
9.7264	4.5743
9.7082	4.5183
9.6900	4.4691
9.6719	4.4161
9.6539	4.3528
9.6360	4.2956
9.6181	4.2666
9.6003	4.2670
9.5825	4.2970
9.5649	4.3575
9.5472	4.4444
9.5297	4.5354
9.5122	4.6256
9.4948	4.7311
9.4774	4.8738
9.4601	5.0683
9.4429	5.3451
9.4257	5.7365
9.4086	6.2362
9.3916	6.8133
9.3746	7.4348
9.3577	8.0351
9.3408	8.5444
9.3240	8.9151
9.3073	9.1453
9.2906	9.2557
9.2740	9.2798
9.2574	9.2601
9.2409	9.2222
9.2245	9.1772
9.2081	9.1324
9.1918	9.0839
9.1755	9.0295
9.1593	8.9665
9.1431	8.9074
9.1270	8.8591
9.1110	8.8101
9.0950	8.7579
9.0791	8.7063
9.0632	8.6578
9.0474	8.6144
9.0316	8.5751
9.0159	8.5376
9.0003	8.5024
8.9847	8.4665
8.9691	8.4258
8.9536	8.3833
8.9382	8.3334
8.9228	8.2849
8.9075	8.2418
8.8922	8.1881
8.8770	8.1183
8.8618	8.0346
8.8467	7.9437
8.8316	7.8501
8.8166	7.7442
8.8016	7.6425
8.7867	7.5473
8.7718	7.4461
8.7570	7.3392
8.7422	7.2326
8.7275	7.1203
8.7129	6.9806
8.6982	6.7626
8.6837	6.4291
8.6692	5.9805
8.6547	5.5078
8.6403	5.1616
8.6259	5.0613
8.6116	5.2385
8.5973	5.6400
8.5830	6.1397
8.5688	6.5937
8.5547	6.9068
8.5406	7.0739
8.5266	7.1468
8.5126	7.1709
8.4986	7.1615
8.4847	7.1212
8.4708	7.0694
8.4570	7.0193
8.4432	6.9694
8.4295	6.9220
8.4158	6.8845
8.4022	6.8693
8.3886	6.8723
8.3750	6.8904
8.3615	6.9347
8.3481	7.0064
8.3347	7.1053
8.3213	7.2319
8.3079	7.3891
8.2946	7.5820
8.2814	7.8103
8.2682	8.0765
8.2550	8.3735
8.2419	8.6983
8.2288	9.0408
8.2158	9.3855
8.2028	9.7099
8.1898	9.9790
8.1769	10.163
8.1640	10.229
8.1512	10.153
8.1384	9.9520
8.1256	9.6595
8.1129	9.3176
8.1002	8.9578
8.0876	8.5961
8.0750	8.2516
8.0624	7.9263
8.0499	7.6120
8.0374	7.3193
8.0250	7.0587
8.0126	6.8224
8.0002	6.5932
7.9879	6.3551
7.9756	6.1001
7.9634	5.8214
7.9512	5.5134
7.9390	5.1811
7.9268	4.8494
7.9147	4.5323
7.9027	4.2307
7.8906	3.9544
7.8786	3.7057
7.8667	3.4842
7.8548	3.2892
7.8429	3.1144
7.8310	2.9611
7.8192	2.8341
7.8075	2.7359
7.7957	2.6702
7.7840	2.6241
7.7723	2.5830
7.7607	2.5383
7.7491	2.4806
7.7375	2.4000
7.7260	2.3147
7.7145	2.2404
7.7031	2.1741
7.6916	2.1063
7.6802	2.0311
7.6689	1.9439
7.6575	1.8459
7.6462	1.7402
7.6350	1.6373
7.6238	1.5419
7.6126	1.4580
7.6014	1.3905
7.5903	1.3371
7.5792	1.2881
7.5681	1.2504
7.5571	1.2220
7.5461	1.1909
7.5351	1.1569
7.5242	1.1217
7.5133	1.0905
7.5024	1.0620
7.4916	1.0296
7.4807	1.0022
7.4700	0.98370
7.4592	0.96980
7.4485	0.95790
7.4378	0.94830
7.4272	0.94830
7.4165	0.95370
7.4059	0.95740
7.3954	0.96610
7.3848	0.98440
7.3743	1.0005
7.3639	1.0123
7.3534	1.0298
7.3430	1.0535
7.3326	1.0760
7.3222	1.0987
7.3119	1.1332
7.3016	1.1780
7.2914	1.2220
7.2811	1.2698
7.2709	1.3383
7.2607	1.4154
7.2506	1.4951
7.2404	1.5797
7.2303	1.6730
7.2203	1.7674
7.2102	1.8551
7.2002	1.9345
7.1902	2.0126
7.1803	2.0871
7.1703	2.1687
7.1604	2.2650
7.1506	2.3749
7.1407	2.4975
7.1309	2.6348
7.1211	2.7771
7.1113	2.9098
7.1016	3.0288
7.0919	3.1315
7.0822	3.2229
7.0725	3.3021
7.0629	3.3764
7.0533	3.4634
7.0437	3.5651
7.0341	3.6858
7.0246	3.8222
7.0151	3.9691
7.0056	4.1318
6.9962	4.2954
6.9867	4.4576
6.9773	4.6237
6.9679	4.7850
6.9586	4.9493
6.9493	5.1164
6.9400	5.2816
6.9307	5.4422
6.9214	5.5837
6.9122	5.6988
6.9030	5.7834
6.8938	5.8296
6.8847	5.8437
6.8755	5.8467
6.8664	5.8502
6.8573	5.8587
6.8483	5.8692
6.8393	5.8837
6.8302	5.9004
6.8213	5.9058
6.8123	5.8931
6.8034	5.8718
6.7944	5.8376
6.7855	5.7825
6.7767	5.6988
6.7678	5.5983
6.7590	5.4975
6.7502	5.4014
6.7414	5.3191
6.7327	5.2547
6.7239	5.2108
6.7152	5.1961
6.7065	5.2118
6.6979	5.2645
6.6892	5.3747
6.6806	5.5411
6.6720	5.7405
6.6634	5.9297
6.6549	6.0825
6.6464	6.1882
6.6378	6.2402
6.6294	6.2465
6.6209	6.2311
6.6124	6.2086
6.6040	6.1692
6.5956	6.1024
6.5872	6.0192
6.5789	5.9299
6.5705	5.8507
6.5622	5.8073
6.5539	5.8355
6.5456	5.9693
6.5374	6.2374
6.5292	6.6501
6.5209	7.2007
6.5128	7.8534
6.5046	8.5685
6.4964	9.2953
6.4883	10.002
6.4802	10.668
6.4721	11.284
6.4640	11.825
6.4560	12.280
6.4480	12.649
6.4399	12.917
6.4320	13.080
6.4240	13.155
6.4160	13.146
6.4081	13.045
6.4002	12.839
6.3923	12.535
6.3844	12.156
6.3766	11.717
6.3687	11.255
6.3609	10.816
6.3531	10.410
6.3454	10.027
6.3376	9.6379
6.3299	9.2306
6.3221	8.8080
6.3144	8.3765
6.3068	7.9519
6.2991	7.5534
6.2914	7.1801
6.2838	6.8257
6.2762	6.4833
6.2686	6.1544
6.2611	5.8549
6.2535	5.5957
6.2460	5.3810
6.2385	5.2078
6.2310	5.0693
6.2235	4.9694
6.2160	4.9132
6.2086	4.8982
6.2011	4.9399
6.1937	5.0608
6.1863	5.2713
6.1790	5.5765
6.1716	5.9770
6.1643	6.4718
6.1570	7.0420
6.1496	7.6565
6.1424	8.2840
6.1351	8.9062
6.1278	9.5123
6.1206	10.090
6.1134	10.637
6.1062	11.156
6.0990	11.640
6.0918	12.077
6.0847	12.449
6.0776	12.736
6.0704	12.924
6.0633	13.030
6.0563	13.089
6.0492	13.121
6.0421	13.139
6.0351	13.150
6.0281	13.141
6.0211	13.077
6.0141	12.930
6.0071	12.699
6.0002	12.396
5.9932	12.028
5.9863	11.612
5.9794	11.185
5.9725	10.776
5.9657	10.401
5.9588	10.069
5.9520	9.8055
5.9451	9.6426
5.9383	9.6009
5.9315	9.6848
5.9247	9.9030
5.9180	10.239
5.9112	10.674
5.9045	11.169
5.8978	11.703
5.8911	12.276
5.8844	12.873
5.8777	13.477
5.8711	14.072
5.8644	14.651
5.8578	15.224
5.8512	15.780
5.8446	16.307
5.8380	16.822
5.8314	17.340
5.8249	17.850
5.8184	18.349
5.8118	18.844
5.8053	19.330
5.7988	19.799
5.7923	20.238
5.7859	20.639
5.7794	21.030
5.7730	21.413
5.7666	21.786
5.7602	22.149
5.7538	22.498
5.7474	22.833
5.7410	23.144
5.7347	23.402
5.7283	23.613
5.7220	23.780
5.7157	23.878
5.7094	23.877
5.7031	23.764
5.6969	23.524
5.6906	23.143
5.6844	22.605
5.6782	21.907
5.6719	21.067
5.6657	20.105
5.6596	19.040
5.6534	17.938
5.6472	16.863
5.6411	15.870
5.6349	15.005
5.6288	14.283
5.6227	13.697
5.6166	13.231
5.6106	12.857
5.6045	12.557
5.5984	12.321
5.5924	12.140
5.5864	12.019
5.5804	11.959
5.5744	11.962
5.5684	12.031
5.5624	12.158
5.5564	12.340
5.5505	12.575
5.5445	12.863
5.5386	13.201
5.5327	13.586
5.5268	14.021
5.5209	14.498
5.5151	14.998
5.5092	15.509
5.5033	16.021
5.4975	16.517
5.4917	16.993
5.4859	17.450
5.4801	17.887
5.4743	18.295
5.4685	18.652
5.4628	18.926
5.4570	19.086
5.4513	19.097
5.4455	18.941
5.4398	18.602
5.4341	18.079
5.4284	17.392
5.4228	16.559
5.4171	15.601
5.4114	14.554
5.4058	13.456
5.4002	12.346
5.3945	11.261
5.3889	10.252
5.3833	9.3593
5.3778	8.6081
5.3722	8.0060
5.3666	7.5501
5.3611	7.2272
5.3555	7.0139
5.3500	6.8918
5.3445	6.8447
5.3390	6.8538
5.3335	6.9026
5.3280	6.9818
5.3225	7.0837
5.3171	7.1997
5.3116	7.3237
5.3062	7.4653
5.3008	7.6390
5.2954	7.8485
5.2900	8.1023
5.2846	8.4190
5.2792	8.8012
5.2738	9.2416
5.2684	9.7387
5.2631	10.300
5.2578	10.939
5.2524	11.659
5.2471	12.464
5.2418	13.362
5.2365	14.340
5.2312	15.355
5.2260	16.358
5.2207	17.295
5.2154	18.113
5.2102	18.776
5.2050	19.259
5.1998	19.570
5.1945	19.739
5.1893	19.791
5.1842	19.763
5.1790	19.688
5.1738	19.587
5.1686	19.486
5.1635	19.383
5.1584	19.268
5.1532	19.144
5.1481	19.018
5.1430	18.895
5.1379	18.792
5.1328	18.725
5.1277	18.701
5.1227	18.708
5.1176	18.716
5.1126	18.689
5.1075	18.591
5.1025	18.401
5.0975	18.121
5.0925	17.768
5.0875	17.377
5.0825	16.995
5.0775	16.653
5.0726	16.373
5.0676	16.171
5.0627	16.041
5.0577	15.964
5.0528	15.919
5.0479	15.892
5.0430	15.868
5.0380	15.832
5.0332	15.781
5.0283	15.722
5.0234	15.661
5.0185	15.612
5.0137	15.593
5.0088	15.623
5.0040	15.719
4.9992	15.884
4.9944	16.119
4.9896	16.446
4.9848	16.889
4.9800	17.473
4.9752	18.198
4.9704	19.042
4.9657	19.947
4.9609	20.838
4.9562	21.645
4.9514	22.323
4.9467	22.858
4.9420	23.289
4.9373	23.672
4.9326	24.077
4.9279	24.589
4.9232	25.286
4.9186	26.223
4.9139	27.417
4.9092	28.860
4.9046	30.517
4.9000	32.311
4.8953	34.152
4.8907	35.959
4.8861	37.664
4.8815	39.224
4.8769	40.624
4.8723	41.870
4.8678	42.977
4.8632	43.964
4.8586	44.853
4.8541	45.660
4.8495	46.394
4.8450	47.066
4.8405	47.694
4.8360	48.278
4.8315	48.819
4.8270	49.324
4.8225	49.799
4.8180	50.249
4.8135	50.678
4.8090	51.085
4.8046	51.478
4.8001	51.861
4.7957	52.233
4.7913	52.591
4.7868	52.930
4.7824	53.250
4.7780	53.557
4.7736	53.846
4.7692	54.117
4.7648	54.372
4.7605	54.613
4.7561	54.841
4.7517	55.056
4.7474	55.255
4.7431	55.434
4.7387	55.587
4.7344	55.711
4.7301	55.796
4.7258	55.829
4.7215	55.810
4.7172	55.728
4.7129	55.558
4.7086	55.275
4.7043	54.861
4.7000	54.331
4.6958	53.741
4.6915	53.178
4.6873	52.754
4.6831	52.564
4.6788	52.653
4.6746	53.004
4.6704	53.540
4.6662	54.170
4.6620	54.823
4.6578	55.450
4.6536	56.030
4.6495	56.575
4.6453	57.105
4.6411	57.627
4.6370	58.131
4.6328	58.604
4.6287	59.036
4.6246	59.415
4.6205	59.737
4.6163	60.009
4.6122	60.239
4.6081	60.440
4.6040	60.617
4.6000	60.763
4.5959	60.880
4.5918	60.976
4.5877	61.050
4.5837	61.099
4.5796	61.123
4.5756	61.124
4.5716	61.097
4.5675	61.027
4.5635	60.908
4.5595	60.742
4.5555	60.519
4.5515	60.227
4.5475	59.870
4.5435	59.451
4.5395	58.972
4.5356	58.445
4.5316	57.875
4.5276	57.263
4.5237	56.597
4.5197	55.864
4.5158	55.073
4.5119	54.248
4.5080	53.433
4.5040	52.674
4.5001	52.017
4.4962	51.493
4.4923	51.095
4.4884	50.786
4.4846	50.527
4.4807	50.291
4.4768	50.076
4.4730	49.900
4.4691	49.810
4.4652	49.854
4.4614	50.045
4.4576	50.359
4.4537	50.743
4.4499	51.134
4.4461	51.489
4.4423	51.788
4.4385	52.041
4.4347	52.279
4.4309	52.533
4.4271	52.812
4.4233	53.112
4.4196	53.430
4.4158	53.762
4.4120	54.104
4.4083	54.457
4.4045	54.828
4.4008	55.227
4.3971	55.647
4.3934	56.080
4.3896	56.527
4.3859	56.980
4.3822	57.435
4.3785	57.882
4.3748	58.321
4.3711	58.747
4.3674	59.156
4.3638	59.543
4.3601	59.903
4.3564	60.231
4.3528	60.525
4.3491	60.784
4.3455	61.010
4.3418	61.202
4.3382	61.362
4.3346	61.488
4.3310	61.582
4.3273	61.639
4.3237	61.661
4.3201	61.652
4.3165	61.620
4.3129	61.567
4.3094	61.501
4.3058	61.434
4.3022	61.374
4.2986	61.327
4.2951	61.300
4.2915	61.299
4.2880	61.329
4.2844	61.389
4.2809	61.478
4.2774	61.592
4.2738	61.733
4.2703	61.899
4.2668	62.074
4.2633	62.241
4.2598	62.389
4.2563	62.507
4.2528	62.576
4.2493	62.588
4.2458	62.560
4.2424	62.513
4.2389	62.459
4.2354	62.413
4.2320	62.397
4.2285	62.413
4.2251	62.449
4.2216	62.489
4.2182	62.520
4.2148	62.533
4.2113	62.528
4.2079	62.511
4.2045	62.496
4.2011	62.490
4.1977	62.505
4.1943	62.548
4.1909	62.622
4.1875	62.723
4.1841	62.844
4.1808	62.980
4.1774	63.119
4.1740	63.246
4.1707	63.360
4.1673	63.466
4.1640	63.565
4.1606	63.664
4.1573	63.765
4.1540	63.865
4.1506	63.968
4.1473	64.072
4.1440	64.174
4.1407	64.272
4.1374	64.370
4.1341	64.477
4.1308	64.593
4.1275	64.707
4.1242	64.825
4.1209	64.949
4.1177	65.071
4.1144	65.195
4.1111	65.325
4.1079	65.455
4.1046	65.585
4.1014	65.710
4.0981	65.833
4.0949	65.955
4.0917	66.072
4.0884	66.185
4.0852	66.293
4.0820	66.390
4.0788	66.473
4.0756	66.547
4.0724	66.614
4.0692	66.673
4.0660	66.720
4.0628	66.756
4.0596	66.783
4.0565	66.805
4.0533	66.812
4.0501	66.807
4.0470	66.797
4.0438	66.778
4.0406	66.753
4.0375	66.729
4.0344	66.711
4.0312	66.695
4.0281	66.675
4.0250	66.654
4.0218	66.633
4.0187	66.613
4.0156	66.598
4.0125	66.594
4.0094	66.602
4.0063	66.618
4.0032	66.636
4.0001	66.659
3.9970	66.686
3.9940	66.718
3.9909	66.753
3.9878	66.787
3.9847	66.829
3.9817	66.879
3.9786	66.932
3.9756	66.991
3.9725	67.057
3.9695	67.125
3.9665	67.190
3.9634	67.251
3.9604	67.320
3.9574	67.398
3.9544	67.475
3.9513	67.544
3.9483	67.607
3.9453	67.669
3.9423	67.724
3.9393	67.777
3.9363	67.825
3.9333	67.865
3.9304	67.895
3.9274	67.916
3.9244	67.924
3.9214	67.928
3.9185	67.928
3.9155	67.924
3.9126	67.906
3.9096	67.876
3.9067	67.849
3.9037	67.821
3.9008	67.778
3.8979	67.731
3.8949	67.682
3.8920	67.628
3.8891	67.564
3.8862	67.499
3.8833	67.437
3.8804	67.373
3.8775	67.313
3.8746	67.263
3.8717	67.214
3.8688	67.164
3.8659	67.121
3.8630	67.085
3.8601	67.046
3.8573	67.012
3.8544	66.990
3.8515	66.971
3.8487	66.955
3.8458	66.947
3.8430	66.948
3.8401	66.957
3.8373	66.975
3.8344	66.999
3.8316	67.028
3.8288	67.051
3.8259	67.068
3.8231	67.080
3.8203	67.085
3.8175	67.090
3.8147	67.100
3.8119	67.110
3.8091	67.121
3.8063	67.125
3.8035	67.116
3.8007	67.099
3.7979	67.074
3.7951	67.040
3.7924	67.002
3.7896	66.961
3.7868	66.914
3.7841	66.859
3.7813	66.801
3.7785	66.742
3.7758	66.681
3.7730	66.615
3.7703	66.547
3.7676	66.478
3.7648	66.407
3.7621	66.338
3.7594	66.274
3.7566	66.215
3.7539	66.160
3.7512	66.109
3.7485	66.060
3.7458	66.012
3.7431	65.970
3.7404	65.939
3.7377	65.919
3.7350	65.910
3.7323	65.907
3.7296	65.908
3.7269	65.918
3.7242	65.937
3.7216	65.964
3.7189	66.002
3.7162	66.050
3.7136	66.102
3.7109	66.150
3.7083	66.192
3.7056	66.238
3.7030	66.287
3.7003	66.336
3.6977	66.388
3.6950	66.441
3.6924	66.494
3.6898	66.542
3.6872	66.586
3.6845	66.633
3.6819	66.683
3.6793	66.735
3.6767	66.779
3.6741	66.807
3.6715	66.826
3.6689	66.842
3.6663	66.853
3.6637	66.864
3.6611	66.874
3.6585	66.883
3.6560	66.885
3.6534	66.875
3.6508	66.868
3.6482	66.858
3.6457	66.838
3.6431	66.815
3.6406	66.788
3.6380	66.755
3.6355	66.726
3.6329	66.701
3.6304	66.686
3.6278	66.671
3.6253	66.654
3.6227	66.633
3.6202	66.604
3.6177	66.570
3.6152	66.535
3.6127	66.498
3.6101	66.464
3.6076	66.438
3.6051	66.408
3.6026	66.374
3.6001	66.345
3.5976	66.321
3.5951	66.294
3.5926	66.268
3.5901	66.243
3.5876	66.221
3.5852	66.190
3.5827	66.151
3.5802	66.121
3.5777	66.097
3.5753	66.075
3.5728	66.054
3.5704	66.035
3.5679	66.016
3.5654	65.991
3.5630	65.961
3.5605	65.936
3.5581	65.916
3.5557	65.894
3.5532	65.866
3.5508	65.838
3.5484	65.804
3.5459	65.764
3.5435	65.722
3.5411	65.678
3.5387	65.635
3.5363	65.592
3.5338	65.547
3.5314	65.493
3.5290	65.424
3.5266	65.349
3.5242	65.265
3.5218	65.167
3.5195	65.051
3.5171	64.910
3.5147	64.746
3.5123	64.562
3.5099	64.373
3.5075	64.204
3.5052	64.075
3.5028	63.992
3.5004	63.964
3.4981	63.987
3.4957	64.045
3.4934	64.120
3.4910	64.189
3.4887	64.234
3.4863	64.248
3.4840	64.233
3.4816	64.213
3.4793	64.192
3.4770	64.172
3.4746	64.156
3.4723	64.147
3.4700	64.130
3.4677	64.097
3.4653	64.058
3.4630	64.017
3.4607	63.970
3.4584	63.908
3.4561	63.838
3.4538	63.768
3.4515	63.688
3.4492	63.594
3.4469	63.498
3.4446	63.400
3.4423	63.300
3.4400	63.190
3.4378	63.069
3.4355	62.932
3.4332	62.770
3.4309	62.581
3.4287	62.379
3.4264	62.168
3.4241	61.965
3.4219	61.784
3.4196	61.635
3.4174	61.533
3.4151	61.486
3.4129	61.486
3.4106	61.517
3.4084	61.563
3.4061	61.629
3.4039	61.703
3.4017	61.770
3.3994	61.834
3.3972	61.890
3.3950	61.926
3.3928	61.936
3.3906	61.922
3.3883	61.903
3.3861	61.877
3.3839	61.835
3.3817	61.788
3.3795	61.745
3.3773	61.702
3.3751	61.669
3.3729	61.649
3.3707	61.646
3.3685	61.658
3.3663	61.673
3.3641	61.691
3.3620	61.698
3.3598	61.684
3.3576	61.661
3.3554	61.634
3.3533	61.604
3.3511	61.574
3.3489	61.548
3.3468	61.525
3.3446	61.488
3.3425	61.442
3.3403	61.394
3.3382	61.342
3.3360	61.292
3.3339	61.243
3.3317	61.195
3.3296	61.145
3.3274	61.092
3.3253	61.042
3.3232	60.994
3.3210	60.947
3.3189	60.897
3.3168	60.841
3.3147	60.778
3.3126	60.713
3.3104	60.658
3.3083	60.611
3.3062	60.562
3.3041	60.499
3.3020	60.427
3.2999	60.360
3.2978	60.296
3.2957	60.237
3.2936	60.186
3.2915	60.141
3.2894	60.087
3.2874	60.018
3.2853	59.944
3.2832	59.882
3.2811	59.823
3.2790	59.762
3.2770	59.694
3.2749	59.619
3.2728	59.553
3.2708	59.496
3.2687	59.438
3.2666	59.386
3.2646	59.337
3.2625	59.276
3.2605	59.199
3.2584	59.119
3.2564	59.054
3.2543	58.997
3.2523	58.940
3.2503	58.895
3.2482	58.858
3.2462	58.803
3.2442	58.732
3.2421	58.655
3.2401	58.577
3.2381	58.497
3.2361	58.424
3.2340	58.366
3.2320	58.320
3.2300	58.267
3.2280	58.200
3.2260	58.124
3.2240	58.054
3.2220	57.987
3.2200	57.922
3.2180	57.866
3.2160	57.817
3.2140	57.764
3.2120	57.706
3.2100	57.637
3.2080	57.565
3.2060	57.496
3.2040	57.419
3.2021	57.340
3.2001	57.262
3.1981	57.186
3.1961	57.105
3.1942	57.027
3.1922	56.960
3.1902	56.903
3.1883	56.833
3.1863	56.759
3.1844	56.692
3.1824	56.620
3.1805	56.539
3.1785	56.456
3.1766	56.381
3.1746	56.314
3.1727	56.235
3.1707	56.160
3.1688	56.096
3.1669	56.030
3.1649	55.961
3.1630	55.886
3.1611	55.819
3.1591	55.756
3.1572	55.681
3.1553	55.599
3.1534	55.513
3.1515	55.431
3.1495	55.350
3.1476	55.267
3.1457	55.187
3.1438	55.105
3.1419	55.026
3.1400	54.943
3.1381	54.858
3.1362	54.787
3.1343	54.711
3.1324	54.625
3.1305	54.544
3.1286	54.460
3.1268	54.384
3.1249	54.324
3.1230	54.270
3.1211	54.226
3.1192	54.174
3.1174	54.116
3.1155	54.064
3.1136	54.008
3.1117	53.948
3.1099	53.901
3.1080	53.855
3.1061	53.813
3.1043	53.763
3.1024	53.707
3.1006	53.655
3.0987	53.603
3.0969	53.554
3.0950	53.517
3.0932	53.477
3.0913	53.432
3.0895	53.381
3.0876	53.322
3.0858	53.266
3.0840	53.209
3.0821	53.158
3.0803	53.112
3.0785	53.064
3.0766	53.017
3.0748	52.968
3.0730	52.920
3.0712	52.879
3.0694	52.831
3.0675	52.784
3.0657	52.733
3.0639	52.676
3.0621	52.620
3.0603	52.571
3.0585	52.521
3.0567	52.478
3.0549	52.441
3.0531	52.403
3.0513	52.358
3.0495	52.308
3.0477	52.263
3.0459	52.223
3.0441	52.172
3.0423	52.117
3.0406	52.062
3.0388	52.006
3.0370	51.963
3.0352	51.928
3.0334	51.899
3.0317	51.876
3.0299	51.856
3.0281	51.832
3.0264	51.792
3.0246	51.749
3.0228	51.706
3.0211	51.665
3.0193	51.632
3.0176	51.603
3.0158	51.579
3.0140	51.558
3.0123	51.519
3.0105	51.482
3.0088	51.453
3.0070	51.435
3.0053	51.421
3.0036	51.400
3.0018	51.370
3.0001	51.336
2.9984	51.297
2.9966	51.258
2.9949	51.225
2.9932	51.192
2.9914	51.148
2.9897	51.106
2.9880	51.071
2.9863	51.044
2.9845	51.022
2.9828	50.988
2.9811	50.948
2.9794	50.901
2.9777	50.842
2.9760	50.792
2.9743	50.757
2.9726	50.720
2.9709	50.679
2.9692	50.627
2.9675	50.574
2.9658	50.525
2.9641	50.481
2.9624	50.449
2.9607	50.422
2.9590	50.383
2.9573	50.347
2.9556	50.325
2.9539	50.320
2.9523	50.318
2.9506	50.314
2.9489	50.318
2.9472	50.315
2.9455	50.300
2.9439	50.287
2.9422	50.278
2.9405	50.275
2.9389	50.275
2.9372	50.273
2.9355	50.280
2.9339	50.287
2.9322	50.278
2.9306	50.262
2.9289	50.236
2.9272	50.215
2.9256	50.216
2.9239	50.227
2.9223	50.236
2.9207	50.241
2.9190	50.234
2.9174	50.224
2.9157	50.208
2.9141	50.205
2.9124	50.219
2.9108	50.239
2.9092	50.256
2.9075	50.274
2.9059	50.298
2.9043	50.323
2.9027	50.349
2.9010	50.384
2.8994	50.414
2.8978	50.438
2.8962	50.464
2.8946	50.479
2.8929	50.492
2.8913	50.506
2.8897	50.524
2.8881	50.558
2.8865	50.594
2.8849	50.625
2.8833	50.665
2.8817	50.704
2.8801	50.742
2.8785	50.773
2.8769	50.804
2.8753	50.840
2.8737	50.877
2.8721	50.906
2.8705	50.936
2.8689	50.970
2.8673	51.014
2.8658	51.047
2.8642	51.071
2.8626	51.097
2.8610	51.141
2.8594	51.188
2.8579	51.235
2.8563	51.287
2.8547	51.335
2.8531	51.363
2.8516	51.385
2.8500	51.407
2.8484	51.430
2.8469	51.461
2.8453	51.497
2.8437	51.526
2.8422	51.534
2.8406	51.543
2.8391	51.565
2.8375	51.582
2.8360	51.584
2.8344	51.572
2.8329	51.554
2.8313	51.532
2.8298	51.495
2.8282	51.465
2.8267	51.449
2.8252	51.424
2.8236	51.382
2.8221	51.323
2.8205	51.260
2.8190	51.187
2.8175	51.082
2.8159	50.968
2.8144	50.847
2.8129	50.707
2.8114	50.548
2.8098	50.363
2.8083	50.138
2.8068	49.849
2.8053	49.494
2.8038	49.079
2.8022	48.603
2.8007	48.067
2.7992	47.481
2.7977	46.845
2.7962	46.156
2.7947	45.426
2.7932	44.681
2.7917	43.922
2.7902	43.167
2.7887	42.440
2.7872	41.755
2.7857	41.086
2.7842	40.419
2.7827	39.758
2.7812	39.064
2.7797	38.302
2.7782	37.468
2.7767	36.561
2.7752	35.558
2.7738	34.456
2.7723	33.290
2.7708	32.110
2.7693	30.933
2.7678	29.778
2.7664	28.669
2.7649	27.632
2.7634	26.702
2.7619	25.920
2.7605	25.287
2.7590	24.807
2.7575	24.516
2.7561	24.423
2.7546	24.526
2.7531	24.809
2.7517	25.219
2.7502	25.686
2.7488	26.107
2.7473	26.445
2.7458	26.726
2.7444	26.983
2.7429	27.264
2.7415	27.601
2.7400	27.976
2.7386	28.372
2.7371	28.806
2.7357	29.300
2.7343	29.875
2.7328	30.577
2.7314	31.452
2.7299	32.513
2.7285	33.744
2.7271	35.152
2.7256	36.732
2.7242	38.484
2.7228	40.425
2.7213	42.539
2.7199	44.778
2.7185	47.085
2.7171	49.389
2.7156	51.590
2.7142	53.588
2.7128	55.367
2.7114	56.905
2.7100	58.150
2.7085	59.128
2.7071	59.924
2.7057	60.625
2.7043	61.306
2.7029	62.058
2.7015	62.927
2.7001	63.841
2.6987	64.696
2.6973	65.441
2.6959	66.079
2.6945	66.611
2.6931	67.064
2.6917	67.466
2.6903	67.819
2.6889	68.109
2.6875	68.329
2.6861	68.507
2.6847	68.673
2.6833	68.802
2.6819	68.899
2.6805	68.951
2.6791	68.988
2.6778	69.044
2.6764	69.111
2.6750	69.141
2.6736	69.165
2.6722	69.254
2.6709	69.415
2.6695	69.625
2.6681	69.908
2.6667	70.270
2.6654	70.629
2.6640	70.893
2.6626	71.084
2.6613	71.259
2.6599	71.377
2.6585	71.448
2.6572	71.499
2.6558	71.547
2.6545	71.595
2.6531	71.650
2.6517	71.709
2.6504	71.770
2.6490	71.810
2.6477	71.848
2.6463	71.882
2.6450	71.897
2.6436	71.912
2.6423	71.944
2.6409	71.980
2.6396	72.010
2.6382	72.017
2.6369	72.027
2.6356	72.025
2.6342	71.974
2.6329	71.927
2.6315	71.899
2.6302	71.860
2.6289	71.847
2.6275	71.875
2.6262	71.949
2.6249	71.999
2.6236	71.986
2.6222	71.980
2.6209	71.946
2.6196	71.886
2.6183	71.875
2.6169	71.899
2.6156	71.950
2.6143	71.981
2.6130	71.993
2.6117	72.016
2.6103	72.002
2.6090	71.948
2.6077	71.908
2.6064	71.880
2.6051	71.878
2.6038	71.907
2.6025	71.981
2.6012	72.094
2.5999	72.168
2.5986	72.111
2.5973	72.006
2.5960	71.935
2.5947	71.915
2.5934	71.953
2.5921	72.044
2.5908	72.155
2.5895	72.244
2.5882	72.243
2.5869	72.202
2.5856	72.191
2.5843	72.201
2.5830	72.233
2.5817	72.265
2.5805	72.283
2.5792	72.308
2.5779	72.313
2.5766	72.286
2.5753	72.277
2.5741	72.274
2.5728	72.274
2.5715	72.283
2.5702	72.310
2.5690	72.346
2.5677	72.367
2.5664	72.363
2.5651	72.362
2.5639	72.350
2.5626	72.339
2.5613	72.352
2.5601	72.387
2.5588	72.433
2.5575	72.472
2.5563	72.488
2.5550	72.482
2.5538	72.475
2.5525	72.484
2.5513	72.492
2.5500	72.492
2.5487	72.504
2.5475	72.514
2.5462	72.513
2.5450	72.509
2.5437	72.509
2.5425	72.516
2.5413	72.532
2.5400	72.547
2.5388	72.558
2.5375	72.559
2.5363	72.552
2.5350	72.538
2.5338	72.513
2.5326	72.494
2.5313	72.493
2.5301	72.491
2.5289	72.495
2.5276	72.500
2.5264	72.500
2.5252	72.494
2.5239	72.481
2.5227	72.460
2.5215	72.439
2.5202	72.420
2.5190	72.405
2.5178	72.387
2.5166	72.375
2.5154	72.371
2.5141	72.364
2.5129	72.341
2.5117	72.320
2.5105	72.298
2.5093	72.266
2.5081	72.229
2.5068	72.202
2.5056	72.188
2.5044	72.173
2.5032	72.158
2.5020	72.161
2.5008	72.166
2.4996	72.159
2.4984	72.148
2.4972	72.131
2.4960	72.117
2.4948	72.108
2.4936	72.101
2.4924	72.105
2.4912	72.102
2.4900	72.090
2.4888	72.085
2.4876	72.075
2.4864	72.073
2.4852	72.073
2.4840	72.060
2.4828	72.058
2.4816	72.049
2.4805	72.033
2.4793	72.029
2.4781	72.026
2.4769	72.021
2.4757	72.006
2.4745	71.992
2.4734	71.990
2.4722	71.970
2.4710	71.942
2.4698	71.927
2.4686	71.913
2.4675	71.899
2.4663	71.884
2.4651	71.876
2.4640	71.860
2.4628	71.836
2.4616	71.824
2.4604	71.815
2.4593	71.807
2.4581	71.797
2.4569	71.785
2.4558	71.765
2.4546	71.735
2.4535	71.720
2.4523	71.719
2.4511	71.714
2.4500	71.689
2.4488	71.659
2.4477	71.638
2.4465	71.621
2.4454	71.613
2.4442	71.604
2.4431	71.593
2.4419	71.584
2.4408	71.567
2.4396	71.568
2.4385	71.578
2.4373	71.592
2.4362	71.606
2.4350	71.609
2.4339	71.609
2.4327	71.616
2.4316	71.631
2.4305	71.655
2.4293	71.672
2.4282	71.678
2.4270	71.691
2.4259	71.719
2.4248	71.757
2.4236	71.794
2.4225	71.822
2.4214	71.834
2.4202	71.841
2.4191	71.849
2.4180	71.872
2.4169	71.907
2.4157	71.944
2.4146	71.980
2.4135	72.002
2.4124	72.013
2.4112	72.035
2.4101	72.065
2.4090	72.099
2.4079	72.139
2.4068	72.171
2.4056	72.202
2.4045	72.220
2.4034	72.226
2.4023	72.242
2.4012	72.255
2.4001	72.255
2.3990	72.253
2.3979	72.254
2.3967	72.257
2.3956	72.262
2.3945	72.270
2.3934	72.285
2.3923	72.290
2.3912	72.269
2.3901	72.233
2.3890	72.200
2.3879	72.175
2.3868	72.164
2.3857	72.172
2.3846	72.185
2.3835	72.199
2.3824	72.203
2.3813	72.196
2.3802	72.188
2.3791	72.182
2.3781	72.185
2.3770	72.202
2.3759	72.218
2.3748	72.232
2.3737	72.227
2.3726	72.211
2.3715	72.194
2.3704	72.184
2.3694	72.186
2.3683	72.190
2.3672	72.191
2.3661	72.195
2.3650	72.193
2.3640	72.183
2.3629	72.172
2.3618	72.169
2.3607	72.169
2.3597	72.162
2.3586	72.144
2.3575	72.126
2.3564	72.114
2.3554	72.099
2.3543	72.079
2.3532	72.064
2.3522	72.052
2.3511	72.042
2.3500	72.025
2.3490	72.007
2.3479	72.007
2.3468	72.007
2.3458	71.996
2.3447	71.991
2.3436	71.992
2.3426	72.007
2.3415	72.032
2.3405	72.048
2.3394	72.068
2.3384	72.082
2.3373	72.092
2.3363	72.108
2.3352	72.127
2.3342	72.165
2.3331	72.211
2.3321	72.240
2.3310	72.270
2.3300	72.296
2.3289	72.325
2.3279	72.350
2.3268	72.360
2.3258	72.371
2.3247	72.380
2.3237	72.383
2.3226	72.397
2.3216	72.424
2.3206	72.472
2.3195	72.521
2.3185	72.560
2.3175	72.590
2.3164	72.601
2.3154	72.605
2.3144	72.618
2.3133	72.625
2.3123	72.630
2.3113	72.633
2.3102	72.653
2.3092	72.681
2.3082	72.685
2.3071	72.686
2.3061	72.708
2.3051	72.723
2.3041	72.723
2.3030	72.719
2.3020	72.723
2.3010	72.743
2.3000	72.750
2.2990	72.743
2.2979	72.749
2.2969	72.766
2.2959	72.776
2.2949	72.785
2.2939	72.796
2.2929	72.818
2.2918	72.829
2.2908	72.819
2.2898	72.806
2.2888	72.815
2.2878	72.834
2.2868	72.850
2.2858	72.857
2.2848	72.852
2.2838	72.834
2.2828	72.812
2.2818	72.804
2.2808	72.820
2.2798	72.848
2.2787	72.868
2.2777	72.868
2.2767	72.857
2.2757	72.841
2.2747	72.815
2.2738	72.803
2.2728	72.794
2.2718	72.794
2.2708	72.794
2.2698	72.780
2.2688	72.769
2.2678	72.766
2.2668	72.768
2.2658	72.770
2.2648	72.765
2.2638	72.769
2.2628	72.767
2.2618	72.752
2.2609	72.739
2.2599	72.744
2.2589	72.757
2.2579	72.752
2.2569	72.740
2.2559	72.745
2.2550	72.743
2.2540	72.723
2.2530	72.695
2.2520	72.680
2.2510	72.668
2.2501	72.652
2.2491	72.647
2.2481	72.659
2.2471	72.668
2.2462	72.669
2.2452	72.661
2.2442	72.650
2.2433	72.630
2.2423	72.595
2.2413	72.558
2.2403	72.521
2.2394	72.492
2.2384	72.480
2.2374	72.462
2.2365	72.446
2.2355	72.425
2.2345	72.402
2.2336	72.384
2.2326	72.357
2.2317	72.337
2.2307	72.335
2.2297	72.324
2.2288	72.310
2.2278	72.288
2.2269	72.270
2.2259	72.250
2.2250	72.217
2.2240	72.195
2.2231	72.193
2.2221	72.168
2.2211	72.116
2.2202	72.058
2.2192	72.005
2.2183	71.958
2.2173	71.914
2.2164	71.869
2.2155	71.825
2.2145	71.760
2.2136	71.666
2.2126	71.567
2.2117	71.478
2.2107	71.400
2.2098	71.320
2.2088	71.232
2.2079	71.147
2.2070	71.058
2.2060	70.955
2.2051	70.868
2.2041	70.810
2.2032	70.760
2.2023	70.702
2.2013	70.649
2.2004	70.600
2.1995	70.550
2.1985	70.503
2.1976	70.469
2.1967	70.463
2.1957	70.475
2.1948	70.502
2.1939	70.560
2.1930	70.630
2.1920	70.705
2.1911	70.780
2.1902	70.844
2.1893	70.915
2.1883	70.993
2.1874	71.072
2.1865	71.148
2.1856	71.223
2.1846	71.314
2.1837	71.416
2.1828	71.508
2.1819	71.584
2.1810	71.648
2.1800	71.702
2.1791	71.752
2.1782	71.806
2.1773	71.879
2.1764	71.969
2.1755	72.046
2.1746	72.101
2.1736	72.159
2.1727	72.217
2.1718	72.257
2.1709	72.275
2.1700	72.299
2.1691	72.335
2.1682	72.357
2.1673	72.372
2.1664	72.400
2.1655	72.437
2.1646	72.467
2.1637	72.488
2.1628	72.505
2.1619	72.517
2.1610	72.525
2.1601	72.534
2.1592	72.545
2.1583	72.566
2.1574	72.591
2.1565	72.612
2.1556	72.626
2.1547	72.626
2.1538	72.642
2.1529	72.665
2.1520	72.673
2.1511	72.680
2.1502	72.683
2.1493	72.675
2.1484	72.670
2.1475	72.661
2.1466	72.655
2.1458	72.640
2.1449	72.632
2.1440	72.655
2.1431	72.679
2.1422	72.698
2.1413	72.724
2.1404	72.737
2.1396	72.729
2.1387	72.704
2.1378	72.675
2.1369	72.663
2.1360	72.665
2.1352	72.675
2.1343	72.689
2.1334	72.700
2.1325	72.721
2.1316	72.725
2.1308	72.713
2.1299	72.715
2.1290	72.719
2.1281	72.708
2.1273	72.700
2.1264	72.695
2.1255	72.694
2.1247	72.681
2.1238	72.670
2.1229	72.676
2.1220	72.678
2.1212	72.663
2.1203	72.650
2.1194	72.647
2.1186	72.642
2.1177	72.638
2.1168	72.645
2.1160	72.655
2.1151	72.670
2.1143	72.672
2.1134	72.666
2.1125	72.663
2.1117	72.668
2.1108	72.688
2.1100	72.712
2.1091	72.713
2.1082	72.707
2.1074	72.691
2.1065	72.659
2.1057	72.632
2.1048	72.651
2.1040	72.680
2.1031	72.690
2.1023	72.690
2.1014	72.681
2.1005	72.666
2.0997	72.646
2.0988	72.640
2.0980	72.658
2.0971	72.662
2.0963	72.663
2.0955	72.671
2.0946	72.675
2.0938	72.672
2.0929	72.662
2.0921	72.654
2.0912	72.640
2.0904	72.646
2.0895	72.659
2.0887	72.667
2.0879	72.670
2.0870	72.657
2.0862	72.635
2.0853	72.624
2.0845	72.607
2.0837	72.614
2.0828	72.633
2.0820	72.609
2.0812	72.649
2.0803	72.655
2.0795	72.556
2.0760	72.556
2.0720	72.366
2.0680	72.493
2.0640	72.588
2.0600	72.430
2.0560	72.114
2.0520	71.957
2.0480	71.771
2.0440	71.898
2.0400	71.931
2.0360	71.934
2.0320	71.721
2.0280	71.538
2.0240	71.505
2.0200	71.627
2.0160	71.379
2.0120	71.384
2.0080	71.077
2.0040	70.863
2.0000	70.803
1.9960	70.717
1.9920	70.591
1.9880	70.380
1.9840	70.380
1.9800	70.261
1.9760	69.900
1.9720	69.750
1.9680	69.691
1.9640	69.575
1.9600	69.842
1.9560	69.716
1.9520	69.658
1.9480	69.507
1.9440	69.507
1.9400	69.474
1.9360	69.338
1.9320	69.194
1.9280	69.308
1.9240	69.205
1.9200	69.112
1.9160	68.866
1.9120	69.053
1.9080	69.146
1.9040	69.194
1.9000	69.198
1.8960	69.079
1.8920	69.247
1.8880	69.356
1.8840	69.219
1.8800	69.281
1.8760	69.218
1.8720	69.177
1.8680	69.201
1.8640	69.304
1.8600	69.333
1.8560	69.281
1.8520	69.257
1.8480	69.051
1.8440	69.235
1.8400	69.447
1.8360	69.437
1.8320	69.481
1.8280	69.337
1.8240	69.242
1.8200	69.025
1.8160	68.879
1.8120	68.890
1.8080	68.834
1.8040	68.913
1.8000	69.002
1.7960	68.543
1.7920	68.655
1.7880	68.890
1.7840	68.442
1.7800	68.464
1.7760	68.442
1.7720	68.509
1.7680	68.534
1.7640	68.534
1.7600	68.454
1.7560	68.398
1.7520	68.054
1.7480	67.855
1.7440	68.287
1.7400	68.041
1.7360	68.452
1.7320	68.621
1.7280	68.553
1.7240	68.553
1.7200	68.711
1.7160	68.610
1.7120	68.846
1.7080	68.473
1.7040	68.565
1.7000	68.208
1.6960	68.016
1.6920	67.940
1.6880	68.318
1.6840	67.933
1.6800	68.454
1.6760	68.241
1.6720	67.803
1.6680	67.693
1.6640	68.195
1.6600	68.072
1.6560	67.872
1.6520	67.242
1.6480	67.495
1.6440	68.260
1.6400	68.306
1.6360	67.680
1.6320	67.396
1.6280	67.376
1.6240	67.535
1.6200	67.604
1.6160	66.941
1.6120	66.887
1.6080	67.123
1.6040	67.217
1.6000	67.272
1.5960	67.197
1.5920	67.541
1.5880	67.486
1.5840	67.541
1.5800	67.942
1.5760	67.759
1.5720	67.290
1.5680	67.161
1.5640	66.960
1.5600	66.780
1.5560	66.408
1.5520	66.799
1.5480	67.103
1.5440	66.960
1.5400	66.515
1.5360	67.266
1.5320	67.072
1.5280	67.126
1.5240	67.231
1.5200	67.103
1.5160	66.551
1.5120	66.623
1.5080	67.110
1.5040	67.168
1.5000	66.994
1.4960	66.374
1.4920	65.915
1.4880	65.702
1.4840	65.775
1.4800	65.563
1.4760	65.547
1.4720	65.583
1.4680	66.221
1.4640	66.527
1.4600	66.221
1.4560	65.988
1.4520	65.649
1.4480	65.401
1.4440	65.613
1.4400	65.708
1.4360	65.815
1.4320	65.922
1.4280	65.905
1.4240	65.835
1.4200	65.692
1.4160	65.422
1.4120	65.237
1.4080	65.149
1.4040	64.870
1.4000	64.331
1.3960	64.657
1.3920	64.718
1.3880	64.492
1.3840	64.259
1.3800	64.528
1.3760	65.253
1.3720	65.262
1.3680	65.521
1.3640	65.894
1.3600	65.631
1.3560	65.250
1.3520	65.177
1.3480	64.837
1.3440	65.089
1.3400	64.476
1.3360	64.667
1.3320	64.443
1.3280	64.368
1.3240	64.340
1.3200	64.382
1.3160	64.071
1.3120	64.199
1.3080	64.020
1.3040	63.918
1.3000	63.918
1.2960	63.829
1.2920	63.893
1.2880	63.637
1.2840	63.624
1.2800	63.623
1.2760	63.570
1.2720	63.388
1.2680	63.725
1.2640	63.655
1.2600	63.563
1.2560	63.460
1.2520	63.551
1.2480	63.681
1.2440	63.644
1.2400	63.562
1.2360	63.522
1.2320	63.302
1.2280	63.325
1.2240	62.848
1.2200	62.706
1.2160	62.717
1.2120	62.475
1.2080	62.003
1.2040	61.822
1.2000	61.732
1.1960	61.601
1.1920	61.453
1.1880	61.242
1.1840	61.193
1.1800	61.145
1.1760	60.999
1.1720	60.902
1.1680	60.723
1.1640	60.644
1.1600	60.599
1.1560	60.661
1.1520	61.135
1.1480	61.281
1.1440	61.603
1.1400	62.016
1.1360	61.422
1.1320	61.003
1.1280	60.781
1.1240	60.836
1.1200	60.573
1.1160	60.258
1.1120	61.188
1.1080	61.139
1.1040	60.670
1.1000	59.972
1.0960	60.361
1.0920	60.071
1.0880	60.034
1.0840	60.233
1.0800	59.704
1.0760	60.210
1.0720	59.846
1.0680	59.548
1.0640	59.514
1.0600	59.343
1.0560	58.610
1.0520	58.518
1.0480	58.768
1.0440	58.709
1.0400	59.033
1.0360	59.359
1.0320	59.269
1.0280	59.080
1.0240	58.993
1.0200	58.721
1.0160	58.768
1.0120	58.442
1.0080	58.628
1.0040	58.721
1.0000	58.217
0.99600	58.569
0.99200	57.912
0.98800	57.942
0.98400	57.800
0.98000	58.317
0.97600	57.938
0.97200	57.949
0.96800	57.894
0.96400	58.169
0.96000	57.713
0.95600	57.940
0.95200	57.802
0.94800	57.351
0.94400	57.261
0.94000	57.530
0.93600	57.439
0.93200	57.395
0.92800	57.124
0.92400	57.249
0.92000	57.213
0.91600	57.159
0.91200	57.024
0.90800	57.114
0.90400	56.935
0.90000	56.935
0.89600	56.712
0.89200	56.622
0.88800	56.578
0.88400	56.398
0.88000	56.299
0.87600	56.253
0.87200	56.386
0.86800	56.116
0.86400	55.889
0.86000	55.961
0.85600	55.931
0.85200	55.612
0.84800	55.776
0.84400	55.563
0.84000	55.472
0.83600	55.329
0.83200	55.066
0.82800	55.295
0.82400	55.344
0.82000	55.428
0.81600	55.220
0.81200	54.912
0.80800	55.360
0.80400	55.452
0.80000	55.231
0.79900	54.330
0.79800	54.330
0.79700	54.475
0.79600	54.671
0.79500	54.769
0.79400	54.230
0.79300	54.086
0.79200	54.232
0.79100	54.278
0.79000	54.474
0.78900	54.524
0.78800	54.231
0.78700	54.280
0.78600	54.036
0.78500	54.330
0.78400	54.716
0.78300	54.619
0.78200	53.987
0.78100	53.984
0.78000	54.133
0.77900	54.281
0.77800	54.182
0.77700	54.083
0.77600	53.939
0.77500	53.935
0.77400	54.032
0.77300	54.032
0.77200	54.076
0.77100	53.983
0.77000	53.840
0.76900	53.739
0.76800	54.173
0.76700	54.372
0.76600	54.372
0.76500	53.932
0.76400	54.168
0.76300	54.031
0.76200	53.645
0.76100	54.317
0.76000	54.077
0.75900	53.737
0.75800	53.737
0.75700	53.737
0.75600	53.642
0.75500	53.838
0.75400	54.077
0.75300	53.496
0.75200	53.545
0.75100	53.545
0.75000	53.544
0.74900	53.739
0.74800	53.545
0.74700	53.642
0.74600	53.641
0.74500	53.739
0.74400	53.297
0.74300	52.869
0.74200	53.635
0.74100	54.176
0.74000	53.885
0.73900	53.351
0.73800	53.351
0.73700	53.157
0.73600	53.296
0.73500	53.254
0.73400	53.643
0.73300	53.589
0.73200	53.782
0.73100	53.681
0.73000	53.151
0.72900	53.540
0.72800	53.590
0.72700	53.443
0.72600	53.493
0.72500	53.493
0.72400	53.200
0.72300	53.200
0.72200	52.955
0.72100	53.054
0.72000	53.401
0.71900	53.496
0.71800	53.447
0.71700	53.691
0.71600	53.199
0.71500	53.003
0.71400	53.100
0.71300	52.908
0.71200	53.147
0.71100	52.758
0.71000	53.150
0.70900	52.905
0.70800	52.905
0.70700	52.808
0.70600	52.807
0.70500	52.954
0.70400	53.003
0.70300	52.756
0.70200	52.462
0.70100	52.173
0.70000	52.806
0.69900	53.448
0.69800	52.550
0.69700	52.902
0.69600	52.802
0.69500	52.802
0.69400	52.702
0.69300	52.652
0.69200	52.603
0.69100	52.802
0.69000	52.852
0.68900	53.002
0.68800	52.502
0.68700	52.602
0.68600	52.401
0.68500	52.701
0.68400	52.602
0.68300	52.602
0.68200	52.352
0.68100	52.452
0.68000	52.802
0.67900	52.651
0.67800	52.300
0.67700	52.101
0.67600	52.301
0.67500	52.550
0.67400	52.852
0.67300	52.752
0.67200	52.352
0.67100	52.751
0.67000	52.802
0.66900	52.650
0.66800	52.499
0.66700	52.298
0.66600	52.048
0.66500	51.899
0.66400	51.752
0.66300	51.703
0.66200	51.943
0.66100	51.842
0.66000	51.946
0.65900	52.195
0.65800	52.195
0.65700	52.094
0.65600	52.049
0.65500	51.997
0.65400	51.899
0.65300	51.801
0.65200	51.601
0.65100	51.403
0.65000	51.406
0.64900	51.163
0.64800	51.262
0.64700	51.695
0.64600	52.195
0.64500	51.890
0.64400	51.689
0.64300	51.288
0.64200	51.246
0.64100	51.197
0.64000	51.640
0.63900	51.745
0.63800	51.093
0.63700	50.752
0.63600	50.609
0.63500	50.652
0.63400	50.700
0.63300	50.752
0.63200	50.904
0.63100	51.145
0.63000	51.200
0.62900	51.104
0.62800	50.656
0.62700	50.357
0.62600	50.504
0.62500	50.743
0.62400	50.796
0.62300	50.552
0.62200	50.257
0.62100	50.408
0.62000	50.792
0.61900	51.131
0.61800	51.479
0.61700	51.331
0.61600	51.184
0.61500	50.985
0.61400	50.390
0.61300	49.799
0.61200	50.178
0.61100	50.476
0.61000	50.428
0.60900	50.380
0.60800	50.533
0.60700	50.331
0.60600	50.325
0.60500	50.379
0.60400	50.278
0.60300	50.071
0.60200	50.215
0.60100	49.945
0.60000	49.927
0.59900	49.763
0.59800	50.077
0.59700	50.424
0.59600	50.364
0.59500	49.827
0.59400	49.866
0.59300	50.151
0.59200	50.057
0.59100	50.112
0.59000	49.902
0.58900	49.863
0.58800	49.954
0.58700	49.856
0.58600	49.954
0.58500	50.299
0.58400	49.769
0.58300	49.766
0.58200	49.763
0.58100	49.715
0.58000	49.863
0.57900	49.856
0.57800	49.808
0.57700	49.615
0.57600	49.718
0.57500	49.766
0.57400	49.772
0.57300	49.789
0.57200	49.768
0.57100	50.162
0.57000	50.071
0.56900	49.922
0.56800	50.024
0.56700	50.011
0.56600	49.959
0.56500	50.114
0.56400	49.816
0.56300	49.905
0.56200	49.857
0.56100	49.756
0.56000	49.951
0.55900	49.951
0.55800	49.951
0.55700	50.354
0.55600	50.168
0.55500	50.080
0.55400	49.971
0.55300	50.265
0.55200	50.004
0.55100	49.939
0.55000	49.575
0.54900	50.040
0.54800	49.873
0.54700	49.630
0.54600	49.751
0.54500	49.540
0.54400	49.363
0.54300	49.629
0.54200	49.774
0.54100	49.572
0.54000	49.472
0.53900	49.784
0.53800	49.628
0.53700	49.695
0.53600	49.594
0.53500	49.650
0.53400	49.335
0.53300	48.895
0.53200	48.592
0.53100	48.450
0.53000	48.138
0.52900	48.352
0.52800	48.611
0.52700	48.367
0.52600	48.667
0.52500	48.768
0.52400	48.956
0.52300	48.725
0.52200	48.769
0.52100	48.726
0.52000	48.583
0.51900	48.337
0.51800	48.309
0.51700	48.352
0.51600	47.807
0.51500	48.237
0.51400	47.706
0.51300	47.547
0.51200	47.395
0.51100	47.353
0.51000	47.421
0.50900	47.537
0.50800	47.647
0.50700	47.801
0.50600	47.353
0.50500	47.227
0.50400	47.311
0.50300	47.421
0.50200	47.354
0.50100	47.627
0.50000	47.566
0.49900	46.742
0.49800	46.522
0.49700	46.563
0.49600	46.399
0.49500	46.522
0.49400	46.439
0.49300	46.361
0.49200	46.364
0.49100	46.469
0.49000	46.364
0.48900	46.160
0.48800	45.895
0.48700	45.956
0.48600	45.733
0.48500	45.649
0.48400	45.651
0.48300	45.976
0.48200	45.470
0.48100	44.964
0.48000	45.420
0.47900	45.501
0.47800	45.211
0.47700	45.080
0.47600	45.034
0.47500	45.159
0.47400	45.398
0.47300	45.214
0.47200	45.134
0.47100	44.711
0.47000	44.508
0.46900	44.035
0.46800	44.063
0.46700	44.010
0.46600	44.352
0.46500	44.174
0.46400	44.201
0.46300	44.443
0.46200	44.254
0.46100	43.857
0.46000	43.363
0.45900	45.328
0.45800	45.261
0.45700	45.071
0.45600	44.841
0.45500	44.723
0.45400	44.579
0.45300	44.427
0.45200	44.476
0.45100	44.220
0.45000	44.618
0.44900	44.632
0.44800	44.307
0.44700	44.139
0.44600	44.160
0.44500	43.949
0.44400	43.953
0.44300	43.735
0.44200	43.882
0.44100	43.960
0.44000	43.433
0.43900	43.300
0.43800	43.450
0.43700	43.199
0.43600	43.100
0.43500	43.174
0.43400	42.960
0.43300	42.919
0.43200	42.747
0.43100	42.752
0.43000	42.931
0.42900	42.826
0.42800	42.400
0.42700	42.147
0.42600	42.118
0.42500	41.827
0.42400	41.793
0.42300	42.193
0.42200	41.726
0.42100	41.473
0.42000	41.836
0.41900	41.650
0.41800	41.403
0.41700	41.252
0.41600	41.036
0.41500	40.902
0.41400	40.723
0.41300	40.476
0.41200	40.422
0.41100	40.255
0.41000	40.250
0.40900	40.355
0.40800	40.456
0.40700	40.278
0.40600	39.914
0.40500	39.848
0.40400	39.841
0.40300	39.628
0.40200	39.661
0.40100	39.326
0.40000	39.546
