Name: Oligoclase (Feldspar) (NaSi,CaAl)AlSi_2O_8
Type: Mineral
Class: Silicates
Subclass: Tectosilicates
Particle Size: 45-125um
Sample No.: TS-3A
Owner: JPL
Wavelength range: IR
Origin: 
Collected by JPL
Description:  Oligoclase 





Measurement: Hemispherical reflectance
First Column: X
Second Column: Y
X Units:  Wavelength (micrometers)
Y Units:  Reflectance (percent)
First X Value: 15.3853
Last X Value: 2.00032
Number of X Values: 2256
Additional information: ts03aa.txt
 
15.3853	4.55997
15.3397	4.23925
15.2945	3.66123
15.2495	2.88768
15.2048	2.46534
15.1603	2.3375
15.1161	1.90463
15.0722	1.46327
15.0285	1.42812
14.9851	1.84826
14.9419	1.83808
14.8989	1.62341
14.8563	1.48771
14.8138	1.70751
14.7716	1.81122
14.7296	1.97289
14.6879	1.96705
14.6464	1.71374
14.6052	1.7571
14.5641	1.95997
14.5233	2.06006
14.4828	2.12402
14.4424	2.14083
14.4023	2.14659
14.3624	2.16706
14.3227	2.27465
14.2833	2.2339
14.244	2.20178
14.205	2.42554
14.1662	2.49182
14.1276	2.5034
14.0892	2.52416
14.051	2.43725
14.0131	2.52105
13.9753	2.6227
13.9377	2.88889
13.9004	3.02264
13.8632	2.86603
13.8262	2.74026
13.7895	2.7414
13.7529	2.71905
13.7165	2.85042
13.6803	2.94264
13.6443	2.94924
13.6085	2.89231
13.5729	2.91956
13.5374	2.91006
13.5022	2.93406
13.4671	3.06818
13.4322	3.17107
13.3975	2.9868
13.363	2.7635
13.3286	2.84451
13.2944	3.09624
13.2604	3.15104
13.2266	3.04276
13.193	2.92145
13.1595	2.98559
13.1262	2.88603
13.093	2.6956
13.06	2.46584
13.0272	2.41822
12.9946	2.44012
12.9621	2.43955
12.9298	2.42363
12.8976	2.56795
12.8656	2.64755
12.8337	2.51071
12.8021	2.46946
12.7705	2.57224
12.7391	2.57222
12.7079	2.49915
12.6769	2.45648
12.6459	2.47618
12.6152	2.31323
12.5845	2.03075
12.5541	1.83023
12.5238	1.90365
12.4936	2.05396
12.4635	2.2011
12.4337	2.31115
12.4039	2.24625
12.3743	2.17315
12.3448	2.32518
12.3155	2.46808
12.2863	2.60087
12.2573	2.7254
12.2284	2.82131
12.1996	3.10461
12.171	3.36883
12.1425	3.47751
12.1141	3.62332
12.0859	3.61755
12.0578	3.55678
12.0298	3.53299
12.0019	3.68889
11.9742	3.87067
11.9466	3.86956
11.9192	3.89414
11.8918	4.12628
11.8646	4.24631
11.8375	4.1732
11.8106	3.99807
11.7837	4.02212
11.757	4.05152
11.7304	4.05189
11.7039	3.9799
11.6776	4.02018
11.6513	4.04961
11.6252	4.09724
11.5992	4.20205
11.5733	4.25793
11.5475	4.32205
11.5219	4.41286
11.4963	4.50546
11.4709	4.5646
11.4455	4.47068
11.4203	4.45128
11.3952	4.51246
11.3702	4.565
11.3454	4.53545
11.3206	4.59492
11.2959	4.90696
11.2714	5.12255
11.2469	5.07698
11.2226	5.1099
11.1983	5.10042
11.1742	5.0871
11.1502	5.30852
11.1263	5.4557
11.1024	5.35629
11.0787	5.42583
11.0551	5.66027
11.0316	5.8202
11.0081	5.9414
10.9848	6.11293
10.9616	6.25676
10.9385	6.32488
10.9154	6.31303
10.8925	6.43357
10.8697	6.5914
10.8469	6.63837
10.8243	6.79193
10.8017	7.05178
10.7793	7.29002
10.7569	7.36473
10.7346	7.36226
10.7125	7.43885
10.6904	7.58861
10.6684	7.73341
10.6465	7.84548
10.6247	7.9591
10.6029	8.09527
10.5813	8.11876
10.5597	8.18268
10.5383	8.33932
10.5169	8.35062
10.4956	8.39987
10.4744	8.55801
10.4533	8.75584
10.4323	8.96261
10.4113	9.06728
10.3904	9.16761
10.3697	9.39059
10.349	9.54198
10.3284	9.67693
10.3078	9.93825
10.2874	10.4412
10.267	10.8273
10.2467	11.1252
10.2265	11.4887
10.2064	11.7685
10.1863	11.9134
10.1663	12.2077
10.1464	12.5528
10.1266	12.7824
10.1069	13.0566
10.0872	13.3355
10.0676	13.5172
10.0481	13.7922
10.0287	14.0595
10.0093	14.2964
9.99005	14.5849
9.97084	14.8462
9.95169	15.0924
9.93263	15.2888
9.91364	15.3304
9.89472	15.3753
9.87587	15.391
9.8571	15.34
9.83839	15.2673
9.81976	15.2421
9.80119	15.2327
9.78271	15.2136
9.76428	15.0775
9.74592	14.9324
9.72764	14.8646
9.70943	14.9461
9.69128	15.1424
9.6732	15.1465
9.65518	15.0271
9.63724	14.857
9.61935	14.5456
9.60155	14.1759
9.5838	13.6381
9.56611	13.1195
9.5485	12.5086
9.53094	11.9879
9.51345	11.5291
9.49604	11.0132
9.47867	10.5647
9.46137	10.108
9.44414	9.56955
9.42697	9.11419
9.40986	8.8307
9.39281	8.71975
9.37583	8.59088
9.35891	8.4465
9.34204	8.28
9.32524	8.23877
9.3085	8.28003
9.29182	8.24238
9.27519	8.20184
9.25863	8.27584
9.24213	8.47665
9.22568	8.59878
9.2093	8.53755
9.19297	8.51612
9.17669	8.57336
9.16048	8.64235
9.14433	8.62515
9.12823	8.65934
9.11218	8.68762
9.0962	8.81117
9.08027	8.97046
9.06439	9.16045
9.04858	9.22175
9.03281	9.29399
9.0171	9.42042
9.00145	9.50828
8.98585	9.66953
8.9703	9.85579
8.9548	9.94639
8.93937	10.0238
8.92398	10.2357
8.90865	10.404
8.89337	10.5894
8.87814	10.8061
8.86296	10.984
8.84784	11.0989
8.83277	11.0736
8.81774	11.2365
8.80277	11.4135
8.78786	11.523
8.77298	11.6912
8.75816	11.7734
8.7434	11.8577
8.72868	11.9461
8.714	11.9138
8.69938	11.9148
8.68481	11.9401
8.67029	11.9199
8.65581	11.8564
8.64139	11.7676
8.62701	11.7639
8.61268	11.7684
8.5984	11.5898
8.58416	11.5161
8.56997	11.5546
8.55583	11.5719
8.54174	11.7317
8.52769	11.7922
8.51368	11.8369
8.49973	11.749
8.48582	11.6471
8.47195	11.6733
8.45813	11.6995
8.44436	11.6147
8.43062	11.5194
8.41693	11.5786
8.4033	11.5123
8.3897	11.3976
8.37614	11.4105
8.36264	11.3189
8.34917	11.0871
8.33574	10.7649
8.32236	10.5514
8.30903	10.1245
8.29573	9.5704
8.28248	9.08072
8.26927	8.4854
8.2561	7.68036
8.24298	6.96575
8.2299	6.26441
8.21685	5.63134
8.20385	5.01505
8.19089	4.3222
8.17797	3.73864
8.16509	3.15003
8.15225	2.65916
8.13946	2.37807
8.1267	2.0711
8.11398	1.62573
8.10131	1.41497
8.08867	1.30285
8.07606	1.10694
8.0635	1.00716
8.05099	1.02316
8.0385	0.814295
8.02606	0.542285
8.01366	0.493238
8.00129	0.528933
7.98896	0.45005
7.97667	0.3541
7.96442	0.360737
7.9522	0.255154
7.94002	0.237135
7.92788	0.252948
7.91578	0.135617
7.90371	0.0100003
7.89168	0.024613
7.87969	0.129501
7.86773	0.157566
7.85581	0.152989
7.84392	0.190019
7.83207	0.19051
7.82026	0.207501
7.80849	0.247945
7.79674	0.214011
7.78503	0.162225
7.77337	0.159492
7.76173	0.159517
7.75012	0.214112
7.73856	0.188556
7.72703	0.0685913
7.71553	0.155943
7.70406	0.181103
7.69263	0.243771
7.68123	0.287172
7.66987	0.251359
7.65855	0.346102
7.64725	0.288851
7.63598	0.254952
7.62475	0.309296
7.61356	0.280689
7.60239	0.331821
7.59126	0.368299
7.58017	0.438367
7.5691	0.491928
7.55806	0.463082
7.54707	0.42328
7.5361	0.44942
7.52516	0.454363
7.51425	0.517407
7.50338	0.557672
7.49253	0.557468
7.48172	0.62785
7.47094	0.591587
7.46019	0.536633
7.44947	0.680391
7.43879	0.73689
7.42813	0.742999
7.4175	0.813804
7.4069	0.811521
7.39634	0.816857
7.3858	0.898686
7.37529	0.954354
7.36482	0.889494
7.35437	0.844785
7.34396	0.868903
7.33357	0.988443
7.32321	1.01488
7.31288	0.964765
7.30258	1.01634
7.29231	1.0635
7.28207	1.1593
7.27185	1.23032
7.26167	1.26991
7.25152	1.35495
7.24139	1.35883
7.23129	1.41591
7.22122	1.45537
7.21117	1.47274
7.20116	1.46206
7.19117	1.43478
7.18121	1.54235
7.17128	1.6411
7.16137	1.6654
7.1515	1.71626
7.14164	1.67875
7.13182	1.68191
7.12203	1.74287
7.11225	1.82619
7.10251	1.90941
7.0928	1.9375
7.08311	1.97871
7.07344	2.05207
7.06381	2.08584
7.0542	2.14298
7.04461	2.23849
7.03506	2.25991
7.02552	2.218
7.01601	2.20775
7.00653	2.22111
6.99708	2.18699
6.98765	2.28749
6.97824	2.4523
6.96886	2.4631
6.95951	2.43718
6.95018	2.49065
6.94087	2.47226
6.9316	2.48005
6.92234	2.53951
6.91311	2.59245
6.90391	2.68023
6.89473	2.74698
6.88557	2.7509
6.87644	2.75268
6.86733	2.78123
6.85824	2.7535
6.84918	2.75165
6.84015	2.79247
6.83114	2.90641
6.82215	2.93778
6.81319	2.91667
6.80424	2.91891
6.79532	3.04189
6.78643	3.16803
6.77756	3.14431
6.76871	3.10474
6.75989	3.04929
6.75109	3.09399
6.74231	3.15158
6.73355	3.16437
6.72482	3.18042
6.71611	3.21087
6.70742	3.25306
6.69875	3.25207
6.69011	3.24542
6.68149	3.25804
6.67289	3.25751
6.66431	3.31127
6.65576	3.31406
6.64722	3.33174
6.63871	3.38075
6.63022	3.37812
6.62175	3.42427
6.61331	3.43856
6.60488	3.33591
6.59648	3.32266
6.5881	3.44347
6.57974	3.54583
6.5714	3.6072
6.56308	3.58621
6.55478	3.58972
6.54651	3.59899
6.53825	3.61282
6.53001	3.64471
6.5218	3.68542
6.51361	3.69075
6.50544	3.85737
6.49729	3.94323
6.48915	3.85941
6.48104	3.81133
6.47295	3.78907
6.46488	3.74671
6.45683	3.80549
6.4488	3.89584
6.44079	3.83205
6.4328	3.80538
6.42482	3.88299
6.41687	4.01704
6.40894	3.92604
6.40103	3.85089
6.39314	3.83842
6.38526	3.7957
6.37741	3.79189
6.36957	3.83178
6.36176	3.79468
6.35396	3.7376
6.34618	3.79953
6.33843	3.80511
6.33069	3.76252
6.32297	3.69495
6.31527	3.63105
6.30758	3.68744
6.29992	3.73601
6.29227	3.66612
6.28465	3.64018
6.27704	3.59777
6.26945	3.57038
6.26188	3.61095
6.25432	3.63093
6.24679	3.6557
6.23927	3.65436
6.23177	3.62898
6.22429	3.6656
6.21683	3.6917
6.20938	3.67897
6.20195	3.65552
6.19454	3.68517
6.18715	3.6744
6.17978	3.5904
6.17242	3.60512
6.16508	3.74617
6.15776	3.76963
6.15045	3.75061
6.14317	3.80594
6.1359	3.77967
6.12864	3.78256
6.12141	3.9061
6.11419	3.9064
6.10699	3.84328
6.0998	3.83816
6.09263	3.79378
6.08549	3.91369
6.07835	4.02124
6.07123	4.12207
6.06413	4.15134
6.05705	4.16508
6.04998	4.12572
6.04293	4.00916
6.0359	4.02125
6.02888	4.07857
6.02187	4.12447
6.01489	4.14571
6.00792	4.17655
6.00096	4.15311
5.99403	4.16295
5.98711	4.19499
5.9802	4.19266
5.97331	4.2542
5.96644	4.31039
5.95958	4.27914
5.95274	4.25584
5.94591	4.27882
5.9391	4.33936
5.9323	4.26304
5.92552	4.17008
5.91876	4.19924
5.91201	4.2275
5.90528	4.25757
5.89856	4.30692
5.89186	4.322
5.88517	4.32383
5.8785	4.35552
5.87184	4.37521
5.8652	4.45742
5.85857	4.5025
5.85196	4.4202
5.84536	4.4254
5.83878	4.49421
5.83221	4.46047
5.82566	4.52303
5.81912	4.58499
5.81259	4.50802
5.80608	4.46196
5.79959	4.38736
5.79311	4.32353
5.78665	4.43658
5.78019	4.57903
5.77376	4.60974
5.76734	4.57724
5.76093	4.46881
5.75453	4.41935
5.74815	4.49127
5.74179	4.54129
5.73543	4.54184
5.7291	4.53587
5.72277	4.60216
5.71646	4.61426
5.71017	4.54237
5.70389	4.5383
5.69762	4.5593
5.69136	4.59401
5.68513	4.56498
5.6789	4.53508
5.67268	4.58175
5.66648	4.61387
5.6603	4.65073
5.65413	4.69152
5.64797	4.69525
5.64182	4.73867
5.63569	4.74711
5.62957	4.80542
5.62347	4.89588
5.61737	4.84362
5.61129	4.78721
5.60522	4.90757
5.59917	5.00574
5.59313	5.01986
5.5871	5.03954
5.58109	5.11017
5.57509	5.14164
5.5691	5.15818
5.56312	5.23161
5.55716	5.35022
5.55121	5.41704
5.54528	5.48112
5.53935	5.55546
5.53344	5.58336
5.52754	5.69304
5.52166	5.80392
5.51578	5.88715
5.50992	6.04458
5.50407	6.16558
5.49823	6.26789
5.49241	6.4009
5.4866	6.50089
5.4808	6.51949
5.47501	6.55679
5.46923	6.74236
5.46347	6.98681
5.45772	7.10626
5.45198	7.17703
5.44625	7.28646
5.44054	7.46322
5.43484	7.57739
5.42914	7.69584
5.42347	7.86341
5.4178	8.01335
5.41214	8.07536
5.4065	8.13672
5.40087	8.30014
5.39525	8.46941
5.38964	8.59082
5.38404	8.70263
5.37846	8.8065
5.37288	8.93542
5.36732	9.07641
5.36177	9.16811
5.35623	9.24931
5.35071	9.33003
5.34519	9.43129
5.33968	9.50205
5.33419	9.60731
5.32871	9.66915
5.32324	9.72407
5.31778	9.79269
5.31233	9.83754
5.30689	9.83985
5.30147	9.86677
5.29605	9.95653
5.29065	9.98681
5.28525	10.0018
5.27987	10.1226
5.2745	10.2474
5.26914	10.2646
5.26379	10.2938
5.25845	10.3725
5.25312	10.4191
5.24781	10.4569
5.2425	10.4555
5.23721	10.4759
5.23192	10.6248
5.22665	10.7551
5.22138	10.8696
5.21613	11.0248
5.21089	11.1418
5.20566	11.2134
5.20044	11.3836
5.19522	11.5758
5.19002	11.6769
5.18483	11.7453
5.17965	11.9097
5.17448	12.1459
5.16933	12.3725
5.16418	12.563
5.15904	12.7048
5.15391	12.8097
5.14879	12.9701
5.14368	13.0956
5.13859	13.2354
5.1335	13.3968
5.12842	13.5207
5.12335	13.8026
5.1183	14.0305
5.11325	14.1546
5.10821	14.4015
5.10318	14.6191
5.09817	14.8418
5.09316	15.088
5.08816	15.3617
5.08317	15.6096
5.07819	15.8098
5.07322	15.9938
5.06826	16.1752
5.06331	16.3883
5.05837	16.6128
5.05344	16.8519
5.04852	17.0802
5.04361	17.2736
5.03871	17.4791
5.03382	17.6465
5.02894	17.7988
5.02406	18.0147
5.0192	18.2033
5.01435	18.3808
5.0095	18.5561
5.00467	18.7003
4.99984	18.8996
4.99502	19.094
4.99021	19.3012
4.98542	19.433
4.98063	19.5632
4.97585	19.7705
4.97108	19.9172
4.96632	20.0058
4.96156	20.207
4.95682	20.402
4.95209	20.5198
4.94736	20.6263
4.94264	20.6802
4.93794	20.7644
4.93324	20.869
4.92855	20.971
4.92387	21.0522
4.9192	21.1173
4.91453	21.0977
4.90988	21.0994
4.90524	21.1044
4.9006	21.1565
4.89597	21.3161
4.89135	21.4315
4.88674	21.5021
4.88214	21.5827
4.87755	21.599
4.87296	21.7334
4.86839	21.848
4.86382	21.9754
4.85926	22.1664
4.85471	22.2837
4.85017	22.3031
4.84564	22.2986
4.84111	22.3524
4.8366	22.4557
4.83209	22.5034
4.82759	22.4975
4.8231	22.615
4.81862	22.794
4.81415	22.8642
4.80968	22.8707
4.80522	22.9152
4.80077	22.9474
4.79633	22.9532
4.7919	23.0251
4.78747	23.0938
4.78306	23.1334
4.77865	23.1328
4.77425	23.1768
4.76986	23.2531
4.76547	23.3315
4.7611	23.4357
4.75673	23.559
4.75237	23.7206
4.74802	23.8368
4.74367	23.9247
4.73934	24.0359
4.73501	24.2155
4.73069	24.3518
4.72638	24.4231
4.72207	24.5841
4.71777	24.7733
4.71348	24.9933
4.7092	25.127
4.70493	25.2639
4.70066	25.4353
4.69641	25.5757
4.69216	25.7114
4.68791	25.8822
4.68368	26.0682
4.67945	26.2225
4.67523	26.3183
4.67102	26.5127
4.66682	26.7877
4.66262	27.0253
4.65843	27.2079
4.65425	27.396
4.65007	27.6361
4.64591	27.8451
4.64175	28.0046
4.6376	28.2521
4.63345	28.5425
4.62932	28.8722
4.62519	29.1038
4.62106	29.2467
4.61695	29.5288
4.61284	29.8305
4.60874	30.0912
4.60465	30.3949
4.60056	30.7883
4.59648	31.1262
4.59241	31.3953
4.58835	31.6373
4.58429	31.8937
4.58024	32.2399
4.5762	32.556
4.57216	32.8711
4.56814	33.1671
4.56411	33.4893
4.5601	33.823
4.55609	34.1032
4.55209	34.3344
4.5481	34.6726
4.54411	35.0598
4.54013	35.369
4.53616	35.6378
4.5322	35.9893
4.52824	36.3612
4.52429	36.6535
4.52034	36.9029
4.51641	37.2203
4.51247	37.5523
4.50855	37.859
4.50463	38.2083
4.50072	38.5262
4.49682	38.8473
4.49292	39.1659
4.48903	39.4253
4.48515	39.8146
4.48127	40.1686
4.4774	40.4277
4.47354	40.7171
4.46968	41.0606
4.46584	41.4126
4.46199	41.7229
4.45815	41.9785
4.45432	42.2693
4.4505	42.5801
4.44668	42.8675
4.44287	43.1649
4.43907	43.5207
4.43527	43.8247
4.43148	44.072
4.4277	44.3597
4.42392	44.6993
4.42015	44.9445
4.41638	45.1905
4.41262	45.4415
4.40887	45.6544
4.40513	45.9093
4.40139	46.2128
4.39765	46.5233
4.39393	46.8251
4.39021	47.1548
4.38649	47.4203
4.38278	47.6137
4.37908	47.9448
4.37539	48.3572
4.3717	48.6146
4.36801	48.8604
4.36434	49.204
4.36067	49.5344
4.357	49.8767
4.35335	50.1685
4.34969	50.4219
4.34605	50.7204
4.34241	50.9885
4.33877	51.3123
4.33514	51.6717
4.33152	51.9584
4.32791	52.3221
4.3243	52.7366
4.32069	53.0554
4.3171	53.3601
4.31351	53.6898
4.30992	54.0173
4.30634	54.2828
4.30277	54.6146
4.2992	54.9494
4.29564	55.2331
4.29208	55.4946
4.28853	55.7732
4.28499	56.1561
4.28145	56.4442
4.27792	56.6626
4.27439	56.9582
4.27087	57.2599
4.26735	57.5295
4.26384	57.7787
4.26034	57.9548
4.25684	58.1389
4.25335	58.4123
4.24986	58.7464
4.24638	59.0915
4.24291	59.3612
4.23944	59.6722
4.23598	59.9421
4.23252	60.1917
4.22906	60.4853
4.22562	60.7349
4.22218	60.844
4.21874	60.9908
4.21531	61.1769
4.21189	61.3497
4.20847	61.4855
4.20506	61.6202
4.20165	61.7731
4.19825	61.9695
4.19485	62.1714
4.19146	62.3151
4.18807	62.5121
4.18469	62.6397
4.18132	62.7456
4.17795	62.9379
4.17458	63.1082
4.17123	63.2505
4.16787	63.3978
4.16453	63.5897
4.16118	63.7665
4.15785	63.8383
4.15451	63.9103
4.15119	64.0456
4.14787	64.1888
4.14455	64.3022
4.14124	64.377
4.13794	64.4646
4.13464	64.5835
4.13134	64.7152
4.12805	64.8168
4.12477	64.9453
4.12149	64.9917
4.11822	64.9631
4.11495	65.0366
4.11168	65.1837
4.10843	65.2959
4.10517	65.4385
4.10192	65.4955
4.09868	65.4896
4.09545	65.564
4.09221	65.6233
4.08899	65.7016
4.08576	65.757
4.08255	65.8051
4.07933	65.8333
4.07613	65.8608
4.07292	65.9488
4.06973	66.0598
4.06654	66.067
4.06335	66.042
4.06017	66.0763
4.05699	66.1699
4.05382	66.2605
4.05065	66.2642
4.04749	66.2861
4.04433	66.3475
4.04118	66.3897
4.03803	66.3194
4.03489	66.2825
4.03175	66.4298
4.02862	66.4536
4.02549	66.375
4.02237	66.4218
4.01925	66.4624
4.01614	66.4809
4.01303	66.5517
4.00993	66.6181
4.00683	66.6346
4.00373	66.6701
4.00064	66.7485
3.99756	66.7348
3.99448	66.6888
3.9914	66.7233
3.98833	66.7715
3.98527	66.7621
3.98221	66.8282
3.97915	66.9348
3.9761	66.9079
3.97305	66.9196
3.97001	67.0623
3.96697	67.1458
3.96394	67.1658
3.96091	67.219
3.95789	67.2408
3.95487	67.2737
3.95186	67.3848
3.94885	67.5299
3.94584	67.5902
3.94284	67.6089
3.93984	67.7265
3.93685	67.798
3.93386	67.7916
3.93088	67.8202
3.9279	67.9107
3.92493	67.9971
3.92196	68.1262
3.919	68.1051
3.91604	68.0724
3.91308	68.1304
3.91013	68.2164
3.90718	68.3587
3.90424	68.4169
3.9013	68.3361
3.89837	68.313
3.89544	68.4279
3.89252	68.4846
3.8896	68.4748
3.88668	68.5029
3.88377	68.594
3.88086	68.6401
3.87796	68.6564
3.87506	68.6663
3.87217	68.6609
3.86928	68.7215
3.86639	68.7819
3.86351	68.8393
3.86064	68.9376
3.85776	68.9377
3.8549	68.8787
3.85203	68.9284
3.84917	68.9654
3.84631	69.0407
3.84346	69.1231
3.84062	69.1279
3.83777	69.1146
3.83494	69.2084
3.8321	69.2737
3.82927	69.2907
3.82644	69.364
3.82362	69.3868
3.82081	69.3697
3.81799	69.4031
3.81518	69.4551
3.81238	69.5431
3.80958	69.6003
3.80678	69.6399
3.80399	69.6268
3.8012	69.6316
3.79841	69.6878
3.79563	69.7804
3.79286	69.8501
3.79008	69.8424
3.78731	69.7898
3.78455	69.8007
3.78179	69.8583
3.77903	69.9657
3.77628	70.0056
3.77353	69.986
3.77079	69.9402
3.76805	69.9373
3.76531	69.9426
3.76258	69.938
3.75985	69.9473
3.75713	69.9518
3.7544	69.9254
3.75169	69.9671
3.74898	70.0118
3.74627	70.0344
3.74356	70.0519
3.74086	70.0574
3.73816	70.0824
3.73547	70.0745
3.73278	70.0073
3.7301	69.9258
3.72741	69.9404
3.72474	70.0252
3.72206	70.008
3.71939	69.9728
3.71673	70.0202
3.71406	70.0301
3.71141	69.9812
3.70875	69.979
3.7061	69.9695
3.70345	69.9059
3.70081	69.878
3.69817	69.8768
3.69553	69.8706
3.6929	69.8354
3.69027	69.7959
3.68765	69.8151
3.68503	69.8723
3.68241	69.8041
3.6798	69.7005
3.67719	69.7557
3.67458	69.7375
3.67198	69.6029
3.66938	69.5395
3.66678	69.5654
3.66419	69.5378
3.66161	69.5182
3.65902	69.5202
3.65644	69.4771
3.65387	69.4159
3.65129	69.3232
3.64872	69.2597
3.64616	69.3127
3.64359	69.3985
3.64103	69.302
3.63848	69.1903
3.63593	69.1826
3.63338	69.1251
3.63084	69.066
3.6283	68.9759
3.62576	68.9337
3.62322	68.9017
3.62069	68.845
3.61817	68.8528
3.61564	68.7548
3.61312	68.6723
3.61061	68.6298
3.6081	68.5337
3.60559	68.4539
3.60308	68.4072
3.60058	68.3701
3.59808	68.272
3.59558	68.2108
3.59309	68.184
3.59061	68.0696
3.58812	67.9875
3.58564	67.939
3.58316	67.8134
3.58069	67.7301
3.57822	67.6395
3.57575	67.5195
3.57328	67.4362
3.57082	67.3808
3.56836	67.2844
3.56591	67.1643
3.56346	67.0258
3.56101	66.95
3.55857	66.8592
3.55613	66.6824
3.55369	66.5436
3.55126	66.4661
3.54883	66.3196
3.5464	66.1594
3.54397	66.0554
3.54155	65.9353
3.53914	65.8426
3.53672	65.7343
3.53431	65.6275
3.5319	65.4706
3.5295	65.3559
3.5271	65.2067
3.5247	64.9879
3.52231	64.8528
3.51991	64.7073
3.51753	64.4557
3.51514	64.2638
3.51276	64.0408
3.51038	63.7574
3.50801	63.6203
3.50563	63.4616
3.50327	63.1784
3.5009	63.0672
3.49854	63.0227
3.49618	62.8728
3.49382	62.7615
3.49147	62.6584
3.48912	62.5662
3.48677	62.4136
3.48443	62.2312
3.48209	62.127
3.47975	62.0322
3.47742	61.8438
3.47509	61.6475
3.47276	61.4968
3.47044	61.4202
3.46812	61.3484
3.4658	61.3081
3.46348	61.2482
3.46117	61.0957
3.45886	60.9235
3.45656	60.8067
3.45425	60.6407
3.45195	60.4974
3.44966	60.3158
3.44736	60.052
3.44507	59.8503
3.44279	59.745
3.4405	59.59
3.43822	59.3598
3.43594	59.1645
3.43367	58.9999
3.43139	58.8133
3.42912	58.5363
3.42686	58.3208
3.42459	58.137
3.42233	57.9447
3.42007	57.6918
3.41782	57.3828
3.41557	57.221
3.41332	57.128
3.41108	57.0032
3.40883	56.7976
3.40659	56.6111
3.40435	56.4674
3.40212	56.3068
3.39989	56.1892
3.39766	56.1411
3.39544	56.0868
3.39322	55.9776
3.391	55.7686
3.38878	55.5918
3.38657	55.4468
3.38436	55.2715
3.38215	55.0683
3.37994	54.7781
3.37774	54.5522
3.37554	54.4846
3.37335	54.3241
3.37115	54.1484
3.36896	53.9685
3.36678	53.8452
3.36459	53.6296
3.36241	53.4892
3.36023	53.4233
3.35805	53.2663
3.35588	53.0125
3.35371	52.8101
3.35154	52.7193
3.34938	52.5878
3.34721	52.3984
3.34505	52.2362
3.3429	52.0643
3.34074	51.8282
3.33859	51.7148
3.33644	51.6239
3.3343	51.4354
3.33215	51.1624
3.33001	50.9893
3.32788	50.8478
3.32574	50.6162
3.32361	50.4253
3.32148	50.2554
3.31936	50.0802
3.31723	49.8901
3.31511	49.6366
3.31299	49.3515
3.31088	49.1776
3.30876	49.0987
3.30665	48.9062
3.30455	48.6107
3.30244	48.3436
3.30034	48.1166
3.29824	47.9348
3.29614	47.8298
3.29405	47.696
3.29196	47.4149
3.28987	47.0973
3.28778	46.9362
3.2857	46.843
3.28362	46.6669
3.28154	46.3966
3.27946	46.2102
3.27739	45.9824
3.27532	45.6657
3.27325	45.4297
3.27119	45.2498
3.26913	45.0047
3.26707	44.7431
3.26501	44.6123
3.26295	44.4781
3.2609	44.1966
3.25885	43.9255
3.2568	43.7296
3.25476	43.5111
3.25272	43.2972
3.25068	43.1289
3.24864	42.861
3.24661	42.5708
3.24458	42.378
3.24255	42.1799
3.24052	41.8909
3.2385	41.6546
3.23648	41.4309
3.23446	41.1897
3.23244	40.8553
3.23043	40.5912
3.22841	40.412
3.2264	40.2258
3.2244	40.0286
3.22239	39.7727
3.22039	39.4694
3.21839	39.1928
3.2164	38.9491
3.2144	38.7029
3.21241	38.4431
3.21042	38.1737
3.20844	37.9683
3.20645	37.7141
3.20447	37.5365
3.20249	37.3473
3.20051	37.0011
3.19854	36.6751
3.19657	36.425
3.1946	36.3201
3.19263	36.059
3.19067	35.6394
3.1887	35.2681
3.18674	35.0394
3.18479	34.8377
3.18283	34.5528
3.18088	34.2884
3.17893	34.0407
3.17698	33.8565
3.17504	33.6711
3.17309	33.4788
3.17115	33.2303
3.16921	32.9548
3.16728	32.6799
3.16534	32.4451
3.16341	32.2329
3.16148	32.011
3.15956	31.8076
3.15763	31.5247
3.15571	31.2351
3.15379	31.0393
3.15187	30.8794
3.14996	30.7072
3.14805	30.5768
3.14614	30.3539
3.14423	30.1324
3.14232	30.0182
3.14042	29.8251
3.13852	29.5538
3.13662	29.3179
3.13472	29.1603
3.13283	29.0259
3.13094	28.8823
3.12905	28.7439
3.12716	28.5734
3.12528	28.4296
3.12339	28.2993
3.12151	28.0875
3.11964	27.8863
3.11776	27.7346
3.11589	27.6683
3.11401	27.4873
3.11214	27.3424
3.11028	27.1875
3.10841	26.9014
3.10655	26.7795
3.10469	26.7339
3.10283	26.5963
3.10098	26.458
3.09912	26.2725
3.09727	26.0448
3.09542	25.9803
3.09358	25.9264
3.09173	25.8096
3.08989	25.6406
3.08805	25.4492
3.08621	25.4088
3.08437	25.2746
3.08254	25.1171
3.08071	25.1826
3.07888	25.1512
3.07705	25.0465
3.07523	24.8848
3.0734	24.7744
3.07158	24.618
3.06977	24.4412
3.06795	24.3517
3.06613	24.4051
3.06432	24.3994
3.06251	24.2174
3.0607	24.2343
3.0589	24.1628
3.0571	24.063
3.05529	24.0257
3.05349	23.9629
3.0517	23.8232
3.0499	23.7239
3.04811	23.701
3.04632	23.6536
3.04453	23.5377
3.04274	23.4371
3.04096	23.2284
3.03918	23.0317
3.0374	22.9058
3.03562	22.9135
3.03384	22.8886
3.03207	22.6762
3.03029	22.5263
3.02852	22.4265
3.02676	22.3243
3.02499	22.1786
3.02323	21.9977
3.02146	21.8749
3.0197	21.7496
3.01795	21.5178
3.01619	21.2896
3.01444	21.1891
3.01269	21.1855
3.01094	21.0006
3.00919	20.7629
3.00744	20.5736
3.0057	20.515
3.00396	20.565
3.00222	20.519
3.00048	20.3771
2.99875	20.3396
2.99701	20.3023
2.99528	20.2634
2.99355	20.3137
2.99183	20.312
2.9901	20.1983
2.98838	20.0977
2.98666	19.9917
2.98494	19.8864
2.98322	19.8524
2.9815	19.913
2.97979	19.8994
2.97808	19.7784
2.97637	19.6563
2.97466	19.6496
2.97295	19.6337
2.97125	19.5885
2.96955	19.5098
2.96785	19.507
2.96615	19.5189
2.96446	19.5571
2.96276	19.5893
2.96107	19.5328
2.95938	19.4962
2.95769	19.4077
2.95601	19.2871
2.95432	19.2763
2.95264	19.3413
2.95096	19.3713
2.94928	19.2878
2.9476	19.2015
2.94593	19.1829
2.94425	19.088
2.94258	19.1407
2.94092	19.416
2.93925	19.3697
2.93758	19.1625
2.93592	19.1552
2.93426	19.0951
2.9326	19.0964
2.93094	19.1741
2.92928	19.1918
2.92763	19.1118
2.92598	19.2052
2.92433	19.1284
2.92268	19.044
2.92103	19.1236
2.91939	19.2008
2.91775	19.3104
2.9161	19.3032
2.91447	19.1591
2.91283	19.3391
2.91119	19.5835
2.90956	19.5579
2.90793	19.5128
2.9063	19.4104
2.90467	19.3558
2.90304	19.416
2.90142	19.6093
2.89979	19.7284
2.89817	19.6705
2.89656	19.7171
2.89494	19.8806
2.89332	19.9744
2.89171	20.1023
2.8901	20.2203
2.88849	20.2535
2.88688	20.2188
2.88527	20.2359
2.88367	20.3078
2.88206	20.4273
2.88046	20.4431
2.87886	20.4328
2.87727	20.5387
2.87567	20.6001
2.87408	20.7606
2.87248	20.9091
2.87089	20.9384
2.8693	20.9908
2.86772	21.1576
2.86613	21.2986
2.86455	21.3629
2.86297	21.3434
2.86139	21.4126
2.85981	21.5153
2.85823	21.6349
2.85666	21.8107
2.85508	21.9392
2.85351	22.0508
2.85194	22.0885
2.85038	22.2024
2.84881	22.383
2.84724	22.6267
2.84568	22.7851
2.84412	22.8692
2.84256	23.1525
2.841	23.445
2.83945	23.4828
2.83789	23.4674
2.83634	23.6785
2.83479	24.004
2.83324	24.1478
2.83169	24.5295
2.83015	24.7309
2.82861	24.7625
2.82706	24.9931
2.82552	25.1593
2.82398	25.3553
2.82245	25.5204
2.82091	25.7785
2.81938	25.9678
2.81784	26.0615
2.81631	26.3819
2.81479	26.6321
2.81326	26.6441
2.81173	26.8354
2.81021	27.1308
2.80869	27.3655
2.80716	27.5703
2.80565	27.6962
2.80413	27.9033
2.80261	28.2765
2.8011	28.4122
2.79959	28.4561
2.79808	28.638
2.79657	28.9618
2.79506	29.2422
2.79355	29.4242
2.79205	29.5754
2.79055	29.6718
2.78904	29.8672
2.78754	30.0562
2.78605	30.0968
2.78455	30.0669
2.78306	30.0927
2.78156	30.0817
2.78007	30.2145
2.77858	30.2523
2.77709	30.1489
2.77561	29.95
2.77412	29.7348
2.77264	29.7148
2.77116	29.7591
2.76968	29.5842
2.7682	29.3417
2.76672	29.2957
2.76524	29.1929
2.76377	29.2808
2.7623	29.3426
2.76083	29.1159
2.75936	29.171
2.75789	29.2474
2.75642	29.378
2.75496	29.7255
2.7535	29.8618
2.75203	30.241
2.75057	30.695
2.74912	31.2208
2.74766	31.8038
2.7462	32.1747
2.74475	32.5193
2.7433	33.1289
2.74185	33.7897
2.7404	34.4021
2.73895	34.9724
2.7375	35.2522
2.73606	35.811
2.73462	36.5191
2.73318	36.9774
2.73174	37.5706
2.7303	38.4304
2.72886	39.3674
2.72742	40.4201
2.72599	41.7769
2.72456	43.2212
2.72313	44.4692
2.7217	45.9205
2.72027	47.4935
2.71884	48.7278
2.71742	50.1392
2.71599	51.7132
2.71457	53.1475
2.71315	54.6512
2.71173	56.3169
2.71032	57.7602
2.7089	58.7839
2.70748	59.568
2.70607	60.3409
2.70466	61.2702
2.70325	62.0699
2.70184	62.8552
2.70043	63.6563
2.69903	64.4738
2.69762	65.2848
2.69622	66.1775
2.69482	67.0045
2.69342	67.6267
2.69202	68.068
2.69062	68.5432
2.68923	69.1002
2.68783	69.6638
2.68644	70.1951
2.68505	70.6399
2.68366	71.0291
2.68227	71.2431
2.68089	71.4968
2.6795	71.9576
2.67812	72.2978
2.67673	72.745
2.67535	72.9776
2.67397	73.0291
2.6726	73.2028
2.67122	73.873
2.66984	74.1542
2.66847	74.0432
2.6671	74.6112
2.66572	74.9835
2.66435	74.8777
2.66299	74.6433
2.66162	74.7576
2.66025	74.9768
2.65889	75.1119
2.65753	75.1259
2.65616	75.2933
2.65481	75.4013
2.65345	75.7288
2.65209	76.076
2.65073	75.9901
2.64938	75.8658
2.64803	75.917
2.64667	76.0672
2.64532	76.1885
2.64397	76.2974
2.64263	76.4917
2.64128	76.506
2.63994	76.4318
2.63859	76.5457
2.63725	76.6087
2.63591	76.5792
2.63457	76.816
2.63323	76.9794
2.6319	77.1687
2.63056	77.5126
2.62923	77.327
2.62789	77.2528
2.62656	77.4393
2.62523	77.1675
2.6239	77.0697
2.62258	77.1521
2.62125	77.3976
2.61993	77.5732
2.6186	77.5414
2.61728	77.7666
2.61596	77.7262
2.61464	77.4469
2.61332	77.4551
2.61201	77.5024
2.61069	77.6425
2.60938	77.8287
2.60807	77.8904
2.60675	78.026
2.60544	78.1554
2.60414	78.0338
2.60283	78.0577
2.60152	78.0231
2.60022	77.9453
2.59891	78.0211
2.59761	78.2721
2.59631	78.6829
2.59501	79.1848
2.59371	78.7849
2.59242	78.1793
2.59112	78.1249
2.58983	78.3751
2.58853	78.564
2.58724	78.6236
2.58595	78.5251
2.58466	78.7003
2.58338	78.7432
2.58209	78.5841
2.5808	78.5635
2.57952	78.4392
2.57824	78.4675
2.57695	78.5425
2.57567	78.5953
2.5744	78.8353
2.57312	78.8505
2.57184	78.6249
2.57057	78.7741
2.56929	78.8555
2.56802	78.6101
2.56675	78.5183
2.56548	78.7138
2.56421	79.0742
2.56294	79.1884
2.56168	79.0983
2.56041	78.9757
2.55915	78.9057
2.55789	78.8655
2.55662	78.7844
2.55536	78.7761
2.5541	78.8736
2.55285	79.0377
2.55159	79.0587
2.55034	79.0967
2.54908	79.0836
2.54783	79.1294
2.54658	79.1383
2.54533	79.1064
2.54408	79.1443
2.54283	79.0866
2.54159	79.0148
2.54034	79.0457
2.5391	79.0084
2.53785	79.0103
2.53661	79.1835
2.53537	79.294
2.53413	79.2514
2.53289	79.1898
2.53166	79.1201
2.53042	79.092
2.52919	79.1631
2.52795	79.1969
2.52672	79.2183
2.52549	79.1948
2.52426	79.2131
2.52303	79.3162
2.52181	79.2235
2.52058	79.2409
2.51936	79.2568
2.51813	79.2366
2.51691	79.325
2.51569	79.3647
2.51447	79.2578
2.51325	79.2201
2.51203	79.1889
2.51082	79.1822
2.5096	79.3022
2.50839	79.3391
2.50717	79.3476
2.50596	79.2954
2.50475	79.2693
2.50354	79.3658
2.50233	79.4307
2.50113	79.4014
2.49992	79.2924
2.49872	79.1963
2.49751	79.2793
2.49631	79.376
2.49511	79.3329
2.49391	79.2761
2.49271	79.2705
2.49151	79.2618
2.49031	79.3031
2.48912	79.3035
2.48792	79.3191
2.48673	79.3269
2.48554	79.2899
2.48435	79.3461
2.48316	79.3866
2.48197	79.3705
2.48078	79.3511
2.4796	79.3035
2.47841	79.3226
2.47723	79.2783
2.47604	79.2704
2.47486	79.2628
2.47368	79.3049
2.4725	79.4093
2.47132	79.4347
2.47014	79.371
2.46897	79.3981
2.46779	79.3918
2.46662	79.4593
2.46545	79.4993
2.46427	79.496
2.4631	79.5791
2.46193	79.6461
2.46077	79.6604
2.4596	79.6888
2.45843	79.7419
2.45727	79.8023
2.4561	79.835
2.45494	79.8661
2.45378	79.8672
2.45262	79.9318
2.45146	79.9686
2.4503	79.9187
2.44914	79.89
2.44799	79.8847
2.44683	79.8817
2.44568	79.9897
2.44452	80.1306
2.44337	80.1376
2.44222	80.0062
2.44107	79.9368
2.43992	79.9873
2.43877	79.9776
2.43763	79.9882
2.43648	80.1142
2.43534	80.2478
2.43419	80.1974
2.43305	80.0614
2.43191	80.1447
2.43077	80.2414
2.42963	80.1719
2.42849	80.2126
2.42736	80.509
2.42622	80.53
2.42509	80.5036
2.42395	80.5734
2.42282	80.5676
2.42169	80.5667
2.42056	80.7084
2.41943	80.6836
2.4183	80.7713
2.41717	81.0305
2.41605	81.027
2.41492	80.8942
2.4138	80.8711
2.41267	80.9724
2.41155	81.0966
2.41043	81.2227
2.40931	81.2263
2.40819	81.1932
2.40707	81.2469
2.40595	81.3635
2.40484	81.4073
2.40372	81.3808
2.40261	81.3458
2.4015	81.4694
2.40039	81.5641
2.39928	81.5037
2.39817	81.4834
2.39706	81.5285
2.39595	81.6469
2.39484	81.6761
2.39374	81.477
2.39263	81.4497
2.39153	81.681
2.39043	81.7267
2.38932	81.6666
2.38822	81.6724
2.38712	81.6753
2.38603	81.5877
2.38493	81.5657
2.38383	81.4317
2.38274	81.3862
2.38164	81.5475
2.38055	81.4928
2.37946	81.3571
2.37836	81.344
2.37727	81.3987
2.37618	81.4546
2.3751	81.3131
2.37401	81.1775
2.37292	81.038
2.37184	80.8865
2.37075	80.7673
2.36967	80.6932
2.36859	80.6456
2.3675	80.4892
2.36642	80.381
2.36534	80.3169
2.36427	80.0686
2.36319	79.829
2.36211	79.8292
2.36104	79.8419
2.35996	79.666
2.35889	79.5469
2.35781	79.5417
2.35674	79.5696
2.35567	79.621
2.3546	79.604
2.35353	79.6426
2.35247	79.8389
2.3514	79.9315
2.35033	79.9752
2.34927	80.0528
2.3482	80.1325
2.34714	80.1299
2.34608	80.1146
2.34502	80.2798
2.34396	80.4149
2.3429	80.444
2.34184	80.4392
2.34078	80.5594
2.33973	80.6132
2.33867	80.7045
2.33762	80.792
2.33656	80.834
2.33551	80.9358
2.33446	81.0173
2.33341	81.1442
2.33236	81.2796
2.33131	81.4295
2.33026	81.6143
2.32922	81.6976
2.32817	81.7307
2.32712	81.9046
2.32608	81.9782
2.32504	82.0737
2.324	82.2804
2.32295	82.3434
2.32191	82.3487
2.32087	82.4093
2.31984	82.468
2.3188	82.6686
2.31776	82.8297
2.31673	82.8615
2.31569	82.8969
2.31466	83.0544
2.31362	83.0441
2.31259	82.9633
2.31156	83.1781
2.31053	83.2891
2.3095	83.3022
2.30847	83.3661
2.30745	83.4767
2.30642	83.4755
2.3054	83.3985
2.30437	83.4154
2.30335	83.5728
2.30232	83.6402
2.3013	83.6227
2.30028	83.6671
2.29926	83.6646
2.29824	83.7037
2.29722	83.797
2.29621	83.7599
2.29519	83.7285
2.29417	83.7663
2.29316	83.8327
2.29215	83.9188
2.29113	83.9538
2.29012	84.1041
2.28911	84.26
2.2881	84.2954
2.28709	84.1634
2.28608	84.0412
2.28507	84.048
2.28407	84.1744
2.28306	84.2887
2.28206	84.2688
2.28105	84.1827
2.28005	84.0502
2.27905	84.0729
2.27805	84.1045
2.27705	84.0277
2.27605	84.1428
2.27505	84.2792
2.27405	84.3423
2.27305	84.4067
2.27206	84.4628
2.27106	84.3012
2.27007	84.2237
2.26907	84.2971
2.26808	84.2584
2.26709	84.1436
2.2661	84.1248
2.26511	84.0413
2.26412	83.9233
2.26313	83.9389
2.26214	84.0069
2.26116	84.04
2.26017	84.0369
2.25919	83.9616
2.2582	83.9623
2.25722	84.0875
2.25624	84.1645
2.25526	84.1013
2.25428	84.0481
2.2533	84.1533
2.25232	84.2903
2.25134	84.3302
2.25036	84.1502
2.24939	84.2508
2.24841	84.4333
2.24744	84.466
2.24646	84.3659
2.24549	84.3219
2.24452	84.3534
2.24355	84.4475
2.24257	84.468
2.24161	84.4426
2.24064	84.472
2.23967	84.5808
2.2387	84.669
2.23774	84.6727
2.23677	84.4656
2.23581	84.4366
2.23484	84.5646
2.23388	84.5327
2.23292	84.4863
2.23196	84.4581
2.231	84.4798
2.23004	84.4213
2.22908	84.4232
2.22812	84.2472
2.22716	84.1207
2.22621	84.2728
2.22525	84.4604
2.2243	84.4781
2.22334	84.3804
2.22239	84.4367
2.22144	84.4536
2.22049	84.2527
2.21953	84.182
2.21859	84.2409
2.21764	84.1002
2.21669	83.9256
2.21574	83.8619
2.21479	83.7925
2.21385	83.7628
2.2129	83.7267
2.21196	83.5917
2.21102	83.5018
2.21007	83.5163
2.20913	83.3524
2.20819	83.1728
2.20725	83.0368
2.20631	82.8806
2.20537	82.7114
2.20444	82.6273
2.2035	82.5765
2.20256	82.5119
2.20163	82.4546
2.20069	82.2546
2.19976	82.2458
2.19883	82.3334
2.19789	82.3485
2.19696	82.3449
2.19603	82.2839
2.1951	82.2439
2.19417	82.3874
2.19325	82.4614
2.19232	82.5781
2.19139	82.6926
2.19047	82.6472
2.18954	82.5621
2.18862	82.8166
2.18769	83.1371
2.18677	83.2588
2.18585	83.3002
2.18493	83.2848
2.18401	83.4887
2.18309	83.6461
2.18217	83.7283
2.18125	83.7574
2.18033	83.7319
2.17942	83.8787
2.1785	84.1313
2.17759	84.2254
2.17667	84.2678
2.17576	84.2911
2.17485	84.5169
2.17393	84.6154
2.17302	84.453
2.17211	84.4823
2.1712	84.7221
2.17029	84.9224
2.16939	84.9883
2.16848	84.8879
2.16757	84.8665
2.16667	84.846
2.16576	84.9037
2.16486	85.0791
2.16395	85.1037
2.16305	85.0102
2.16215	85.072
2.16125	85.1118
2.16035	84.879
2.15945	84.7836
2.15855	85.0738
2.15765	85.3514
2.15675	85.3463
2.15586	85.2889
2.15496	85.204
2.15406	85.2637
2.15317	85.4811
2.15228	85.392
2.15138	85.2571
2.15049	85.223
2.1496	85.1795
2.14871	85.1919
2.14782	85.3045
2.14693	85.3309
2.14604	85.3742
2.14515	85.3028
2.14427	85.1122
2.14338	85.125
2.14249	85.2809
2.14161	85.3198
2.14072	85.3116
2.13984	85.3052
2.13896	85.4441
2.13808	85.4624
2.13719	85.3541
2.13631	85.3389
2.13543	85.4395
2.13455	85.385
2.13368	85.2444
2.1328	85.2503
2.13192	85.4154
2.13105	85.4258
2.13017	85.274
2.1293	85.3459
2.12842	85.4815
2.12755	85.4255
2.12668	85.2265
2.1258	85.0721
2.12493	85.1981
2.12406	85.2591
2.12319	85.2064
2.12232	85.1329
2.12145	85.1985
2.12059	85.4051
2.11972	85.5077
2.11885	85.3561
2.11799	85.3551
2.11712	85.3187
2.11626	85.226
2.1154	85.2878
2.11453	85.2575
2.11367	85.1712
2.11281	85.2425
2.11195	85.1623
2.11109	85.1834
2.11023	85.1889
2.10937	85.226
2.10851	85.3849
2.10766	85.3555
2.1068	85.2257
2.10594	85.4823
2.10509	85.4106
2.10423	85.1146
2.10338	85.0411
2.10253	85.1881
2.10168	85.1703
2.10082	84.9386
2.09997	85.0748
2.09912	85.423
2.09827	85.4832
2.09742	85.3932
2.09658	85.5104
2.09573	85.5364
2.09488	85.3585
2.09404	85.2816
2.09319	85.0384
2.09235	84.8104
2.0915	84.9097
2.09066	85.12
2.08982	85.0849
2.08897	85.0394
2.08813	85.2581
2.08729	85.0097
2.08645	84.8732
2.08561	85.0379
2.08477	85.1305
2.08394	85.0854
2.0831	85.226
2.08226	85.2724
2.08143	85.1479
2.08059	84.9776
2.07976	85.0286
2.07892	85.0726
2.07809	85.1224
2.07726	84.9874
2.07643	85.1269
2.07559	85.2842
2.07476	85.0089
2.07393	84.5271
2.0731	84.4756
2.07228	85.0127
2.07145	85.1638
2.07062	85.2891
2.06979	85.1535
2.06897	84.9508
2.06814	84.8418
2.06732	84.9432
2.06649	84.9672
2.06567	84.7464
2.06485	84.8042
2.06403	84.9174
2.0632	84.8727
2.06238	84.9658
2.06156	84.9326
2.06074	84.7827
2.05993	84.7227
2.05911	84.8942
2.05829	84.8832
2.05747	84.7267
2.05666	84.5507
2.05584	84.4938
2.05503	84.6174
2.05421	84.5825
2.0534	84.3258
2.05259	84.3601
2.05177	84.5959
2.05096	84.6508
2.05015	84.6842
2.04934	84.6995
2.04853	84.5827
2.04772	84.5811
2.04691	84.6518
2.04611	84.6113
2.0453	84.6835
2.04449	84.701
2.04369	84.5282
2.04288	84.3308
2.04208	84.1684
2.04127	84.163
2.04047	84.2689
2.03967	84.4134
2.03886	84.5554
2.03806	84.4091
2.03726	84.1829
2.03646	84.1801
2.03566	84.3187
2.03486	84.3415
2.03407	84.225
2.03327	84.2749
2.03247	84.2594
2.03167	84.0804
2.03088	84.1196
2.03008	84.2069
2.02929	84.152
2.0285	83.8611
2.0277	83.9196
2.02691	84.1334
2.02612	84.1275
2.02533	83.9407
2.02453	83.9391
2.02374	83.9964
2.02295	83.9655
2.02217	83.9744
2.02138	83.9605
2.02059	83.7843
2.0198	83.705
2.01902	83.6858
2.01823	83.6192
2.01744	83.5295
2.01666	83.3642
2.01588	83.3797
2.01509	83.3529
2.01431	83.5085
2.01353	83.7353
2.01275	83.6475
2.01196	83.4796
2.01118	83.3595
2.0104	83.283
2.00963	83.2743
2.00885	83.255
2.00807	83.2395
2.00729	83.1072
2.00651	83.1874
2.00574	83.2206
2.00496	83.09
2.00419	83.041
2.00341	83.0714
2.00264	83.0497
2.00187	83.0768
2.00109	82.9333
2.00032	82.8392
