Name: Brass plate
Type: Manmade materials
Class: Reflectance target
Subclass: 
Particle Size: Solid
Sample No.: SN: ILF-17464-2-1
Owner: JPL
Wavelength range: IR
Origin: Labsphere, P.O. Box 70, Shaker Street, North Sutton, NH 03260
(603) 927-4266
Description: Measurement made at center right. Field Brass 2.
Measured Oct. 30th 1997 to Nov. 2nd 1997.




Measurement: Hemispherical Reflectance
First Column: X
Second Column: Y
X Units: Wavelength (micrometers)
Y Units: Reflectence (percent)
First X Value: 15.3853
Last X Value: 2.00032
Number of X Values: 2256
Additional information: None.
 
15.3853	88.548
15.3397	88.4188
15.2945	88.5719
15.2495	88.6224
15.2048	88.3348
15.1603	88.3818
15.1161	88.5051
15.0722	88.5018
15.0285	88.5551
14.9851	88.7714
14.9419	88.9231
14.8989	88.746
14.8563	88.5318
14.8138	88.4945
14.7716	88.5712
14.7296	88.6173
14.6879	88.5782
14.6464	88.5008
14.6052	88.4922
14.5641	88.4665
14.5233	88.405
14.4828	88.5103
14.4424	88.5591
14.4023	88.5557
14.3624	88.6034
14.3227	88.5879
14.2833	88.5441
14.244	88.5926
14.205	88.6192
14.1662	88.6061
14.1276	88.6542
14.0892	88.6562
14.051	88.5949
14.0131	88.5175
13.9753	88.434
13.9377	88.39
13.9004	88.4376
13.8632	88.5576
13.8262	88.6498
13.7895	88.5555
13.7529	88.4667
13.7165	88.3761
13.6803	88.2457
13.6443	88.2733
13.6085	88.3789
13.5729	88.4274
13.5374	88.3942
13.5022	88.3912
13.4671	88.3786
13.4322	88.2893
13.3975	88.293
13.363	88.3474
13.3286	88.4852
13.2944	88.5297
13.2604	88.3564
13.2266	88.2803
13.193	88.394
13.1595	88.4831
13.1262	88.4466
13.093	88.3352
13.06	88.2985
13.0272	88.3265
12.9946	88.2827
12.9621	88.2286
12.9298	88.1463
12.8976	88.186
12.8656	88.2157
12.8337	88.1233
12.8021	88.0721
12.7705	88.1073
12.7391	88.1282
12.7079	88.0996
12.6769	87.9819
12.6459	87.9481
12.6152	88.0633
12.5845	88.0466
12.5541	88.0179
12.5238	88.0353
12.4936	88.0373
12.4635	87.9866
12.4337	87.942
12.4039	87.9123
12.3743	87.92
12.3448	87.8887
12.3155	87.8434
12.2863	87.9103
12.2573	88.0249
12.2284	88.0407
12.1996	87.9302
12.171	87.7983
12.1425	87.8351
12.1141	88.0203
12.0859	88.0994
12.0578	88.0411
12.0298	87.9541
12.0019	88.0192
11.9742	88.0809
11.9466	87.9656
11.9192	87.9476
11.8918	87.954
11.8646	87.9488
11.8375	87.9919
11.8106	87.9863
11.7837	87.9932
11.757	88.0168
11.7304	88
11.7039	88.0327
11.6776	88.0174
11.6513	87.9816
11.6252	88.0038
11.5992	88.0426
11.5733	87.9727
11.5475	87.9255
11.5219	88.0504
11.4963	88.0767
11.4709	87.9865
11.4455	87.9634
11.4203	87.9878
11.3952	88.0084
11.3702	88.0035
11.3454	88.009
11.3206	87.9614
11.2959	87.8464
11.2714	87.7486
11.2469	87.797
11.2226	87.7664
11.1983	87.7256
11.1742	87.7737
11.1502	87.799
11.1263	87.8352
11.1024	87.9007
11.0787	87.8444
11.0551	87.7519
11.0316	87.6823
11.0081	87.6397
10.9848	87.7273
10.9616	87.7454
10.9385	87.6781
10.9154	87.6426
10.8925	87.6219
10.8697	87.6887
10.8469	87.7482
10.8243	87.6426
10.8017	87.6214
10.7793	87.6913
10.7569	87.6516
10.7346	87.6403
10.7125	87.6664
10.6904	87.7493
10.6684	87.7563
10.6465	87.7604
10.6247	87.7154
10.6029	87.685
10.5813	87.6597
10.5597	87.6479
10.5383	87.6287
10.5169	87.522
10.4956	87.5171
10.4744	87.631
10.4533	87.6352
10.4323	87.5517
10.4113	87.6226
10.3904	87.706
10.3697	87.648
10.349	87.5493
10.3284	87.4996
10.3078	87.5624
10.2874	87.6732
10.267	87.6868
10.2467	87.6867
10.2265	87.6233
10.2064	87.5944
10.1863	87.5606
10.1663	87.4951
10.1464	87.5388
10.1266	87.5668
10.1069	87.5712
10.0872	87.565
10.0676	87.5236
10.0481	87.5306
10.0287	87.4734
10.0093	87.4342
9.99005	87.5633
9.97084	87.54
9.95169	87.443
9.93263	87.4177
9.91364	87.4317
9.89472	87.3651
9.87587	87.3283
9.8571	87.3278
9.83839	87.3136
9.81976	87.3785
9.80119	87.412
9.78271	87.326
9.76428	87.282
9.74592	87.3642
9.72764	87.4473
9.70943	87.4665
9.69128	87.3529
9.6732	87.2839
9.65518	87.2711
9.63724	87.2306
9.61935	87.239
9.60155	87.2463
9.5838	87.3017
9.56611	87.2424
9.5485	87.1781
9.53094	87.2622
9.51345	87.3127
9.49604	87.2712
9.47867	87.2761
9.46137	87.3125
9.44414	87.3105
9.42697	87.3077
9.40986	87.3154
9.39281	87.3129
9.37583	87.3575
9.35891	87.3254
9.34204	87.3225
9.32524	87.3634
9.3085	87.3778
9.29182	87.3838
9.27519	87.4041
9.25863	87.4457
9.24213	87.4524
9.22568	87.4264
9.2093	87.4968
9.19297	87.5015
9.17669	87.4425
9.16048	87.5132
9.14433	87.6218
9.12823	87.5761
9.11218	87.5071
9.0962	87.528
9.08027	87.612
9.06439	87.6802
9.04858	87.7562
9.03281	87.7656
9.0171	87.7206
9.00145	87.7756
8.98585	87.8436
8.9703	87.7847
8.9548	87.7208
8.93937	87.6957
8.92398	87.6984
8.90865	87.6882
8.89337	87.7699
8.87814	87.8182
8.86296	87.7635
8.84784	87.6368
8.83277	87.5953
8.81774	87.5309
8.80277	87.5461
8.78786	87.6659
8.77298	87.6386
8.75816	87.6206
8.7434	87.5951
8.72868	87.5643
8.714	87.6149
8.69938	87.6654
8.68481	87.6757
8.67029	87.6112
8.65581	87.6274
8.64139	87.5924
8.62701	87.6158
8.61268	87.6322
8.5984	87.6163
8.58416	87.5676
8.56997	87.6115
8.55583	87.6204
8.54174	87.5658
8.52769	87.5312
8.51368	87.6261
8.49973	87.5944
8.48582	87.5589
8.47195	87.5924
8.45813	87.5994
8.44436	87.5973
8.43062	87.6489
8.41693	87.648
8.4033	87.6434
8.3897	87.7079
8.37614	87.7477
8.36264	87.7195
8.34917	87.7108
8.33574	87.6574
8.32236	87.5609
8.30903	87.5883
8.29573	87.6364
8.28248	87.5646
8.26927	87.5426
8.2561	87.5869
8.24298	87.602
8.2299	87.5935
8.21685	87.611
8.20385	87.6458
8.19089	87.6364
8.17797	87.6241
8.16509	87.7279
8.15225	87.7849
8.13946	87.7461
8.1267	87.6929
8.11398	87.6851
8.10131	87.7076
8.08867	87.7471
8.07606	87.783
8.0635	87.7732
8.05099	87.7466
8.0385	87.7337
8.02606	87.7313
8.01366	87.7883
8.00129	87.8665
7.98896	87.9601
7.97667	87.9996
7.96442	88.0291
7.9522	88.0503
7.94002	88.0631
7.92788	88.1707
7.91578	88.239
7.90371	88.2281
7.89168	88.3091
7.87969	88.346
7.86773	88.4033
7.85581	88.4282
7.84392	88.4915
7.83207	88.5873
7.82026	88.6192
7.80849	88.6528
7.79674	88.704
7.78503	88.7612
7.77337	88.844
7.76173	88.839
7.75012	88.7574
7.73856	88.7621
7.72703	88.8189
7.71553	88.8425
7.70406	88.8198
7.69263	88.795
7.68123	88.8278
7.66987	88.8689
7.65855	88.9295
7.64725	88.9233
7.63598	88.9225
7.62475	88.9352
7.61356	88.9723
7.60239	89.0265
7.59126	89.0571
7.58017	89.0283
7.5691	89.0268
7.55806	89.058
7.54707	89.093
7.5361	89.0735
7.52516	89.0572
7.51425	89.0278
7.50338	89.0698
7.49253	89.0927
7.48172	89.0838
7.47094	89.156
7.46019	89.1658
7.44947	89.104
7.43879	89.0949
7.42813	89.1269
7.4175	89.1649
7.4069	89.1324
7.39634	89.0997
7.3858	89.0906
7.37529	89.115
7.36482	89.1423
7.35437	89.1889
7.34396	89.266
7.33357	89.2732
7.32321	89.1034
7.31288	88.9989
7.30258	89.0445
7.29231	89.1227
7.28207	89.2631
7.27185	89.2466
7.26167	89.0204
7.25152	88.9395
7.24139	89.022
7.23129	89.0847
7.22122	89.0793
7.21117	89.1861
7.20116	89.1541
7.19117	89.0349
7.18121	89.0782
7.17128	89.2593
7.16137	89.2566
7.1515	89.2046
7.14164	89.1435
7.13182	89.0157
7.12203	89.025
7.11225	89.0822
7.10251	89.0766
7.0928	89.0621
7.08311	89.0231
7.07344	89.0011
7.06381	89.0416
7.0542	89.3382
7.04461	89.5935
7.03506	89.365
7.02552	89.2359
7.01601	89.1791
7.00653	89.1161
6.99708	89.2215
6.98765	89.3037
6.97824	89.2434
6.96886	89.3753
6.95951	89.5789
6.95018	89.2941
6.94087	89.1803
6.9316	89.2224
6.92234	89.2615
6.91311	89.3718
6.90391	89.3911
6.89473	89.2695
6.88557	89.2947
6.87644	89.4648
6.86733	89.9928
6.85824	89.9243
6.84918	89.3987
6.84015	89.25
6.83114	89.3834
6.82215	89.3727
6.81319	89.2117
6.80424	89.2309
6.79532	89.58
6.78643	89.7738
6.77756	89.547
6.76871	89.3401
6.75989	89.239
6.75109	89.2272
6.74231	89.1628
6.73355	89.1629
6.72482	89.3446
6.71611	89.5706
6.70742	89.5284
6.69875	89.2715
6.69011	89.3851
6.68149	89.5752
6.67289	89.431
6.66431	89.2211
6.65576	89.1712
6.64722	89.6414
6.63871	90.2818
6.63022	90.0014
6.62175	89.5222
6.61331	89.3928
6.60488	89.3599
6.59648	89.5477
6.5881	89.5967
6.57974	89.7697
6.5714	89.9781
6.56308	89.6266
6.55478	89.4991
6.54651	89.3921
6.53825	89.2622
6.53001	89.3277
6.5218	89.5521
6.51361	89.4076
6.50544	89.488
6.49729	90.1089
6.48915	90.1929
6.48104	89.8174
6.47295	89.5411
6.46488	89.3062
6.45683	89.2466
6.4488	89.1934
6.44079	89.2278
6.4328	89.4225
6.42482	89.6399
6.41687	90.265
6.40894	90.0007
6.40103	89.1694
6.39314	88.9872
6.38526	88.986
6.37741	89.0958
6.36957	89.1848
6.36176	88.9207
6.35396	89.005
6.34618	89.4361
6.33843	89.2656
6.33069	88.925
6.32297	88.8503
6.31527	88.7872
6.30758	88.803
6.29992	88.8478
6.29227	88.8231
6.28465	88.7622
6.27704	88.7518
6.26945	88.7183
6.26188	88.7159
6.25432	88.725
6.24679	88.7323
6.23927	88.7263
6.23177	88.7005
6.22429	88.673
6.21683	88.7255
6.20938	88.7559
6.20195	88.74
6.19454	88.8589
6.18715	89.1887
6.17978	89.0114
6.17242	88.7357
6.16508	88.85
6.15776	88.8947
6.15045	88.8069
6.14317	88.7965
6.1359	88.8119
6.12864	88.8654
6.12141	89.2163
6.11419	89.6824
6.10699	89.4082
6.0998	89.0685
6.09263	89.006
6.08549	89.0953
6.07835	89.4774
6.07123	89.6648
6.06413	89.3928
6.05705	89.7201
6.04998	90.5629
6.04293	89.9802
6.0359	89.2528
6.02888	89.1237
6.02187	89.2014
6.01489	89.3874
6.00792	89.2966
6.00096	89.2363
5.99403	89.5048
5.98711	89.6019
5.9802	89.457
5.97331	89.5754
5.96644	89.5465
5.95958	89.2428
5.95274	89.2465
5.94591	89.4249
5.9391	89.982
5.9323	89.8373
5.92552	89.3395
5.91876	89.265
5.91201	89.2422
5.90528	89.3639
5.89856	89.8753
5.89186	89.8867
5.88517	90.0125
5.8785	90.0423
5.87184	89.4158
5.8652	89.3839
5.85857	89.3293
5.85196	89.1821
5.84536	89.1073
5.83878	89.1994
5.83221	89.4559
5.82566	89.81
5.81912	89.753
5.81259	89.2757
5.80608	89.1252
5.79959	89.1756
5.79311	89.1604
5.78665	89.1895
5.78019	89.1889
5.77376	89.4668
5.76734	89.9342
5.76093	89.5833
5.75453	89.2964
5.74815	89.3984
5.74179	89.2536
5.73543	89.1977
5.7291	89.218
5.72277	89.299
5.71646	89.3906
5.71017	89.3895
5.70389	89.1369
5.69762	89.1113
5.69136	89.1897
5.68513	89.0881
5.6789	89.1636
5.67268	89.1931
5.66648	89.0693
5.6603	89.1286
5.65413	89.2104
5.64797	89.2728
5.64182	89.4964
5.63569	89.2964
5.62957	89.0488
5.62347	88.9866
5.61737	89.0491
5.61129	89.0582
5.60522	89.0482
5.59917	89.0261
5.59313	88.9393
5.5871	89.0707
5.58109	89.3322
5.57509	89.2286
5.5691	88.9964
5.56312	88.9634
5.55716	89.0058
5.55121	89.0713
5.54528	89.0567
5.53935	88.9825
5.53344	88.9029
5.52754	88.9455
5.52166	88.9677
5.51578	88.951
5.50992	88.9811
5.50407	88.9958
5.49823	88.9538
5.49241	88.9087
5.4866	88.8498
5.4808	88.9261
5.47501	88.9744
5.46923	89.021
5.46347	89.0649
5.45772	88.9535
5.45198	88.9056
5.44625	88.899
5.44054	88.9047
5.43484	88.8753
5.42914	88.8684
5.42347	89.0476
5.4178	89.0195
5.41214	88.8919
5.4065	88.8623
5.40087	88.8621
5.39525	88.9154
5.38964	88.9334
5.38404	88.8688
5.37846	88.8307
5.37288	88.8798
5.36732	88.8979
5.36177	88.9093
5.35623	88.9765
5.35071	88.9825
5.34519	88.8647
5.33968	88.7803
5.33419	88.8052
5.32871	88.8609
5.32324	88.8661
5.31778	88.8281
5.31233	88.8094
5.30689	88.8453
5.30147	88.8864
5.29605	88.8998
5.29065	88.8758
5.28525	88.8108
5.27987	88.883
5.2745	88.898
5.26914	88.83
5.26379	88.8212
5.25845	88.8575
5.25312	88.8473
5.24781	88.8215
5.2425	88.887
5.23721	88.9206
5.23192	88.877
5.22665	88.8716
5.22138	88.8532
5.21613	88.9367
5.21089	88.9918
5.20566	88.9381
5.20044	88.9462
5.19522	88.8776
5.19002	88.8318
5.18483	88.8581
5.17965	88.8892
5.17448	88.8732
5.16933	88.8881
5.16418	88.8978
5.15904	88.9092
5.15391	88.8902
5.14879	88.8866
5.14368	88.8649
5.13859	88.8159
5.1335	88.796
5.12842	88.8316
5.12335	88.8714
5.1183	88.9232
5.11325	88.9797
5.10821	88.96
5.10318	88.901
5.09817	88.9343
5.09316	88.9761
5.08816	88.9169
5.08317	88.8786
5.07819	88.886
5.07322	88.8632
5.06826	88.8798
5.06331	88.9343
5.05837	88.9252
5.05344	88.8937
5.04852	88.8314
5.04361	88.846
5.03871	88.9304
5.03382	88.9859
5.02894	88.9545
5.02406	88.897
5.0192	88.878
5.01435	88.8759
5.0095	88.909
5.00467	88.9333
4.99984	88.917
4.99502	88.871
4.99021	88.8669
4.98542	88.8586
4.98063	88.8253
4.97585	88.8835
4.97108	88.9673
4.96632	88.955
4.96156	88.8824
4.95682	88.908
4.95209	88.9668
4.94736	88.9227
4.94264	88.8864
4.93794	88.9274
4.93324	88.9391
4.92855	88.9442
4.92387	88.9536
4.9192	88.9072
4.91453	88.9129
4.90988	88.9587
4.90524	88.9259
4.9006	88.912
4.89597	88.8756
4.89135	88.8908
4.88674	88.8933
4.88214	88.8407
4.87755	88.9049
4.87296	88.9292
4.86839	88.9262
4.86382	88.924
4.85926	88.905
4.85471	88.9229
4.85017	88.9542
4.84564	88.9256
4.84111	88.913
4.8366	88.9691
4.83209	88.982
4.82759	88.9717
4.8231	88.9725
4.81862	88.9811
4.81415	88.9277
4.80968	88.9011
4.80522	88.8823
4.80077	88.904
4.79633	88.9196
4.7919	88.9011
4.78747	88.9662
4.78306	88.9637
4.77865	88.9812
4.77425	88.9896
4.76986	88.9775
4.76547	88.975
4.7611	88.9868
4.75673	88.8566
4.75237	88.8383
4.74802	88.995
4.74367	89.0351
4.73934	88.9797
4.73501	88.9214
4.73069	88.92
4.72638	88.9306
4.72207	88.9472
4.71777	88.9772
4.71348	88.9784
4.7092	88.9755
4.70493	88.963
4.70066	88.9372
4.69641	88.8968
4.69216	88.9082
4.68791	88.9549
4.68368	88.9734
4.67945	88.9088
4.67523	88.8783
4.67102	88.9256
4.66682	88.897
4.66262	88.8886
4.65843	88.9417
4.65425	88.9665
4.65007	88.9117
4.64591	88.8772
4.64175	88.8983
4.6376	88.9759
4.63345	88.971
4.62932	88.8996
4.62519	88.868
4.62106	88.908
4.61695	88.9251
4.61284	88.9153
4.60874	88.9407
4.60465	88.9482
4.60056	88.964
4.59648	88.9561
4.59241	88.9319
4.58835	88.954
4.58429	88.9293
4.58024	88.9099
4.5762	88.9161
4.57216	88.9284
4.56814	88.9471
4.56411	88.9497
4.5601	88.9654
4.55609	88.9981
4.55209	88.9876
4.5481	88.9466
4.54411	88.923
4.54013	88.935
4.53616	88.9514
4.5322	88.9588
4.52824	88.9526
4.52429	88.9885
4.52034	88.9866
4.51641	88.9553
4.51247	88.9038
4.50855	88.9086
4.50463	88.9146
4.50072	88.9171
4.49682	88.9367
4.49292	88.9311
4.48903	88.8911
4.48515	88.8824
4.48127	88.9071
4.4774	88.9197
4.47354	88.8946
4.46968	88.8584
4.46584	88.8757
4.46199	88.8913
4.45815	88.9068
4.45432	88.9026
4.4505	88.8822
4.44668	88.9022
4.44287	88.8334
4.43907	88.8345
4.43527	88.9166
4.43148	88.9512
4.4277	88.9349
4.42392	88.9098
4.42015	88.9586
4.41638	88.9287
4.41262	88.8926
4.40887	88.8592
4.40513	88.8452
4.40139	88.8855
4.39765	88.8564
4.39393	88.8403
4.39021	88.8945
4.38649	88.9313
4.38278	88.9382
4.37908	88.9167
4.37539	88.8529
4.3717	88.8879
4.36801	88.9094
4.36434	88.8507
4.36067	88.8541
4.357	88.921
4.35335	88.9475
4.34969	88.9391
4.34605	88.9133
4.34241	88.8948
4.33877	88.8805
4.33514	88.8709
4.33152	88.8927
4.32791	88.9614
4.3243	88.9749
4.32069	88.946
4.3171	88.9885
4.31351	89.0133
4.30992	88.9504
4.30634	88.9548
4.30277	88.9824
4.2992	89.0307
4.29564	89.0505
4.29208	89.0972
4.28853	89.1006
4.28499	89.0698
4.28145	89.061
4.27792	89.0667
4.27439	89.0807
4.27087	89.0747
4.26735	89.012
4.26384	88.9597
4.26034	88.9161
4.25684	88.8842
4.25335	88.9514
4.24986	89.0546
4.24638	89.1301
4.24291	89.1309
4.23944	89.109
4.23598	89.133
4.23252	89.1213
4.22906	89.1438
4.22562	89.1523
4.22218	89.099
4.21874	89.0648
4.21531	89.0311
4.21189	89.0006
4.20847	88.9315
4.20506	88.8302
4.20165	88.798
4.19825	88.8304
4.19485	88.8663
4.19146	88.884
4.18807	88.8461
4.18469	88.7732
4.18132	88.7824
4.17795	88.7962
4.17458	88.7865
4.17123	88.8062
4.16787	88.8869
4.16453	88.8765
4.16118	88.8065
4.15785	88.7585
4.15451	88.7773
4.15119	88.8068
4.14787	88.8476
4.14455	88.86
4.14124	88.8463
4.13794	88.831
4.13464	88.807
4.13134	88.8164
4.12805	88.8202
4.12477	88.8692
4.12149	88.9458
4.11822	88.8996
4.11495	88.8251
4.11168	88.7996
4.10843	88.8431
4.10517	88.8048
4.10192	88.779
4.09868	88.8523
4.09545	88.8908
4.09221	88.8617
4.08899	88.834
4.08576	88.8562
4.08255	88.8526
4.07933	88.7894
4.07613	88.7781
4.07292	88.8422
4.06973	88.8625
4.06654	88.8343
4.06335	88.846
4.06017	88.8314
4.05699	88.821
4.05382	88.8451
4.05065	88.8268
4.04749	88.772
4.04433	88.7768
4.04118	88.7517
4.03803	88.739
4.03489	88.8076
4.03175	88.8711
4.02862	88.8318
4.02549	88.8369
4.02237	88.8705
4.01925	88.8207
4.01614	88.7716
4.01303	88.7439
4.00993	88.7998
4.00683	88.8389
4.00373	88.8241
4.00064	88.7513
3.99756	88.7247
3.99448	88.7938
3.9914	88.843
3.98833	88.8343
3.98527	88.817
3.98221	88.8195
3.97915	88.8126
3.9761	88.8411
3.97305	88.7989
3.97001	88.8364
3.96697	88.877
3.96394	88.8413
3.96091	88.7825
3.95789	88.7673
3.95487	88.7637
3.95186	88.7446
3.94885	88.7819
3.94584	88.8175
3.94284	88.8037
3.93984	88.7849
3.93685	88.7836
3.93386	88.7776
3.93088	88.7642
3.9279	88.7749
3.92493	88.7623
3.92196	88.7286
3.919	88.7397
3.91604	88.7862
3.91308	88.8039
3.91013	88.7732
3.90718	88.7765
3.90424	88.784
3.9013	88.7928
3.89837	88.8241
3.89544	88.859
3.89252	88.7923
3.8896	88.7295
3.88668	88.7481
3.88377	88.7939
3.88086	88.7437
3.87796	88.6919
3.87506	88.6415
3.87217	88.6893
3.86928	88.7467
3.86639	88.653
3.86351	88.6603
3.86064	88.7317
3.85776	88.7384
3.8549	88.7867
3.85203	88.7926
3.84917	88.8166
3.84631	88.8196
3.84346	88.7741
3.84062	88.7681
3.83777	88.7854
3.83494	88.74
3.8321	88.7529
3.82927	88.7631
3.82644	88.7135
3.82362	88.7223
3.82081	88.7416
3.81799	88.7577
3.81518	88.7917
3.81238	88.803
3.80958	88.7525
3.80678	88.7241
3.80399	88.7157
3.8012	88.7584
3.79841	88.7775
3.79563	88.7511
3.79286	88.6942
3.79008	88.736
3.78731	88.7893
3.78455	88.8163
3.78179	88.8
3.77903	88.7403
3.77628	88.7542
3.77353	88.8058
3.77079	88.7996
3.76805	88.734
3.76531	88.719
3.76258	88.7183
3.75985	88.6863
3.75713	88.6915
3.7544	88.6767
3.75169	88.705
3.74898	88.7426
3.74627	88.8005
3.74356	88.7917
3.74086	88.7316
3.73816	88.7017
3.73547	88.6637
3.73278	88.6658
3.7301	88.6734
3.72741	88.7101
3.72474	88.7273
3.72206	88.7162
3.71939	88.7361
3.71673	88.7096
3.71406	88.7106
3.71141	88.7153
3.70875	88.7218
3.7061	88.7398
3.70345	88.7366
3.70081	88.7334
3.69817	88.7515
3.69553	88.713
3.6929	88.6596
3.69027	88.7072
3.68765	88.7229
3.68503	88.7649
3.68241	88.8275
3.6798	88.8062
3.67719	88.8139
3.67458	88.8139
3.67198	88.7367
3.66938	88.7167
3.66678	88.763
3.66419	88.7504
3.66161	88.7404
3.65902	88.7228
3.65644	88.6942
3.65387	88.6972
3.65129	88.6968
3.64872	88.6762
3.64616	88.7569
3.64359	88.8077
3.64103	88.7517
3.63848	88.6896
3.63593	88.6612
3.63338	88.636
3.63084	88.6891
3.6283	88.7546
3.62576	88.8037
3.62322	88.7741
3.62069	88.7113
3.61817	88.6888
3.61564	88.7298
3.61312	88.742
3.61061	88.7716
3.6081	88.7581
3.60559	88.7441
3.60308	88.7833
3.60058	88.7599
3.59808	88.6821
3.59558	88.6806
3.59309	88.7365
3.59061	88.7125
3.58812	88.7461
3.58564	88.7978
3.58316	88.7331
3.58069	88.6481
3.57822	88.6634
3.57575	88.6946
3.57328	88.6599
3.57082	88.6699
3.56836	88.6828
3.56591	88.679
3.56346	88.7013
3.56101	88.7035
3.55857	88.7479
3.55613	88.7387
3.55369	88.6639
3.55126	88.6728
3.54883	88.6762
3.5464	88.6221
3.54397	88.7396
3.54155	88.7757
3.53914	88.7312
3.53672	88.7265
3.53431	88.7305
3.5319	88.7699
3.5295	88.7423
3.5271	88.6771
3.5247	88.6518
3.52231	88.6405
3.51991	88.6401
3.51753	88.7021
3.51514	88.7775
3.51276	88.8705
3.51038	88.8718
3.50801	88.8496
3.50563	88.8391
3.50327	88.7991
3.5009	88.8282
3.49854	88.8375
3.49618	88.797
3.49382	88.735
3.49147	88.7268
3.48912	88.6762
3.48677	88.7336
3.48443	88.7929
3.48209	88.7681
3.47975	88.7996
3.47742	88.7559
3.47509	88.7407
3.47276	88.7434
3.47044	88.765
3.46812	88.84
3.4658	88.828
3.46348	88.7673
3.46117	88.7767
3.45886	88.7473
3.45656	88.676
3.45425	88.7209
3.45195	88.7904
3.44966	88.7316
3.44736	88.7381
3.44507	88.8141
3.44279	88.8158
3.4405	88.7759
3.43822	88.7921
3.43594	88.7603
3.43367	88.7896
3.43139	88.933
3.42912	88.9867
3.42686	89.0055
3.42459	88.9139
3.42233	88.8455
3.42007	88.8132
3.41782	88.8303
3.41557	88.8099
3.41332	88.8339
3.41108	88.8474
3.40883	88.7689
3.40659	88.7394
3.40435	88.7224
3.40212	88.7066
3.39989	88.7038
3.39766	88.7895
3.39544	88.8933
3.39322	88.9005
3.391	88.8238
3.38878	88.7363
3.38657	88.7321
3.38436	88.7031
3.38215	88.7028
3.37994	88.7469
3.37774	88.7816
3.37554	88.8297
3.37335	88.7374
3.37115	88.6831
3.36896	88.6618
3.36678	88.7158
3.36459	88.773
3.36241	88.8052
3.36023	88.917
3.35805	88.8762
3.35588	88.7362
3.35371	88.7283
3.35154	88.7548
3.34938	88.6542
3.34721	88.6308
3.34505	88.6595
3.3429	88.6816
3.34074	88.6836
3.33859	88.7126
3.33644	88.7613
3.3343	88.6679
3.33215	88.6443
3.33001	88.6766
3.32788	88.6519
3.32574	88.6326
3.32361	88.6519
3.32148	88.6654
3.31936	88.6179
3.31723	88.6868
3.31511	88.7342
3.31299	88.7294
3.31088	88.7531
3.30876	88.7186
3.30665	88.6947
3.30455	88.7595
3.30244	88.7838
3.30034	88.7554
3.29824	88.7073
3.29614	88.6779
3.29405	88.7071
3.29196	88.7059
3.28987	88.709
3.28778	88.7111
3.2857	88.6601
3.28362	88.6552
3.28154	88.6831
3.27946	88.7202
3.27739	88.6799
3.27532	88.6294
3.27325	88.6446
3.27119	88.6058
3.26913	88.6769
3.26707	88.7452
3.26501	88.6953
3.26295	88.6925
3.2609	88.7539
3.25885	88.7046
3.2568	88.5796
3.25476	88.6173
3.25272	88.7172
3.25068	88.7339
3.24864	88.6414
3.24661	88.6744
3.24458	88.7418
3.24255	88.7629
3.24052	88.7361
3.2385	88.6783
3.23648	88.7184
3.23446	88.6657
3.23244	88.6374
3.23043	88.682
3.22841	88.6803
3.2264	88.7042
3.2244	88.7245
3.22239	88.716
3.22039	88.6161
3.21839	88.595
3.2164	88.666
3.2144	88.6596
3.21241	88.6438
3.21042	88.7006
3.20844	88.6737
3.20645	88.6866
3.20447	88.7077
3.20249	88.6936
3.20051	88.6953
3.19854	88.6463
3.19657	88.636
3.1946	88.7089
3.19263	88.8002
3.19067	88.7552
3.1887	88.6885
3.18674	88.6226
3.18479	88.6277
3.18283	88.6712
3.18088	88.5879
3.17893	88.634
3.17698	88.7385
3.17504	88.7877
3.17309	88.7731
3.17115	88.6904
3.16921	88.6614
3.16728	88.6423
3.16534	88.6668
3.16341	88.6657
3.16148	88.6111
3.15956	88.6367
3.15763	88.6886
3.15571	88.7748
3.15379	88.8206
3.15187	88.7698
3.14996	88.7582
3.14805	88.6874
3.14614	88.716
3.14423	88.6812
3.14232	88.673
3.14042	88.6661
3.13852	88.6079
3.13662	88.6079
3.13472	88.625
3.13283	88.7096
3.13094	88.785
3.12905	88.7533
3.12716	88.7305
3.12528	88.7264
3.12339	88.6533
3.12151	88.6824
3.11964	88.696
3.11776	88.6231
3.11589	88.6579
3.11401	88.7334
3.11214	88.7419
3.11028	88.7301
3.10841	88.6903
3.10655	88.6948
3.10469	88.7588
3.10283	88.805
3.10098	88.8212
3.09912	88.7682
3.09727	88.7686
3.09542	88.8037
3.09358	88.7243
3.09173	88.6764
3.08989	88.651
3.08805	88.7262
3.08621	88.7624
3.08437	88.7635
3.08254	88.7746
3.08071	88.6989
3.07888	88.6696
3.07705	88.6948
3.07523	88.8025
3.0734	88.8021
3.07158	88.7219
3.06977	88.723
3.06795	88.7733
3.06613	88.7843
3.06432	88.7278
3.06251	88.7061
3.0607	88.6678
3.0589	88.6821
3.0571	88.7044
3.05529	88.7166
3.05349	88.696
3.0517	88.6746
3.0499	88.6938
3.04811	88.6679
3.04632	88.7137
3.04453	88.7692
3.04274	88.728
3.04096	88.6885
3.03918	88.6682
3.0374	88.6318
3.03562	88.636
3.03384	88.7143
3.03207	88.7436
3.03029	88.7904
3.02852	88.7812
3.02676	88.7912
3.02499	88.772
3.02323	88.7261
3.02146	88.6557
3.0197	88.6287
3.01795	88.6237
3.01619	88.6882
3.01444	88.7388
3.01269	88.6955
3.01094	88.6569
3.00919	88.7177
3.00744	88.795
3.0057	88.8531
3.00396	88.8051
3.00222	88.7167
3.00048	88.6927
2.99875	88.7407
2.99701	88.6978
2.99528	88.6935
2.99355	88.7362
2.99183	88.7603
2.9901	88.8125
2.98838	88.7078
2.98666	88.667
2.98494	88.6646
2.98322	88.6082
2.9815	88.6535
2.97979	88.6536
2.97808	88.7069
2.97637	88.8244
2.97466	88.745
2.97295	88.7038
2.97125	88.8256
2.96955	88.8541
2.96785	88.765
2.96615	88.6591
2.96446	88.5922
2.96276	88.6198
2.96107	88.7013
2.95938	88.7735
2.95769	88.8101
2.95601	88.7875
2.95432	88.7505
2.95264	88.6907
2.95096	88.6903
2.94928	88.6429
2.9476	88.6539
2.94593	88.7258
2.94425	88.7128
2.94258	88.6957
2.94092	88.6368
2.93925	88.5948
2.93758	88.6854
2.93592	88.7737
2.93426	88.6815
2.9326	88.5388
2.93094	88.5458
2.92928	88.6037
2.92763	88.6263
2.92598	88.7646
2.92433	88.7554
2.92268	88.6908
2.92103	88.7301
2.91939	88.6756
2.91775	88.6489
2.9161	88.6376
2.91447	88.6131
2.91283	88.6508
2.91119	88.6879
2.90956	88.6331
2.90793	88.632
2.9063	88.6733
2.90467	88.7383
2.90304	88.7596
2.90142	88.7271
2.89979	88.654
2.89817	88.5855
2.89656	88.6275
2.89494	88.6215
2.89332	88.6876
2.89171	88.6141
2.8901	88.4619
2.88849	88.4629
2.88688	88.5634
2.88527	88.6047
2.88367	88.6471
2.88206	88.6722
2.88046	88.7552
2.87886	88.7552
2.87727	88.6337
2.87567	88.6209
2.87408	88.5878
2.87248	88.6106
2.87089	88.6957
2.8693	88.7532
2.86772	88.7245
2.86613	88.6374
2.86455	88.5777
2.86297	88.6204
2.86139	88.6509
2.85981	88.703
2.85823	88.6261
2.85666	88.6018
2.85508	88.6713
2.85351	88.6848
2.85194	88.5794
2.85038	88.5765
2.84881	88.7246
2.84724	88.7569
2.84568	88.6972
2.84412	88.6259
2.84256	88.6871
2.841	88.6404
2.83945	88.5002
2.83789	88.524
2.83634	88.6861
2.83479	88.7413
2.83324	88.6572
2.83169	88.6774
2.83015	88.6801
2.82861	88.6595
2.82706	88.6672
2.82552	88.6902
2.82398	88.7406
2.82245	88.7459
2.82091	88.678
2.81938	88.5721
2.81784	88.6108
2.81631	88.6087
2.81479	88.577
2.81326	88.6014
2.81173	88.5988
2.81021	88.6756
2.80869	88.732
2.80716	88.6185
2.80565	88.5899
2.80413	88.7487
2.80261	88.8411
2.8011	88.7618
2.79959	88.6097
2.79808	88.529
2.79657	88.5972
2.79506	88.5787
2.79355	88.5506
2.79205	88.607
2.79055	88.6479
2.78904	88.6871
2.78754	88.847
2.78605	88.7725
2.78455	88.4891
2.78306	88.473
2.78156	88.4746
2.78007	88.3793
2.77858	88.31
2.77709	88.4141
2.77561	88.6455
2.77412	88.7001
2.77264	88.5391
2.77116	88.4769
2.76968	88.5966
2.7682	88.7136
2.76672	88.5802
2.76524	88.5297
2.76377	88.5224
2.7623	88.6477
2.76083	88.5802
2.75936	88.5987
2.75789	88.6586
2.75642	88.9929
2.75496	89.241
2.7535	88.7723
2.75203	88.4447
2.75057	88.4813
2.74912	88.5559
2.74766	88.5257
2.7462	88.4538
2.74475	88.4905
2.7433	88.5786
2.74185	88.8017
2.7404	89.1412
2.73895	89.0943
2.7375	88.6932
2.73606	88.6936
2.73462	88.8424
2.73318	88.581
2.73174	88.4476
2.7303	88.4183
2.72886	88.3479
2.72742	88.505
2.72599	88.8837
2.72456	89.0776
2.72313	88.8081
2.7217	88.9818
2.72027	89.2362
2.71884	88.6989
2.71742	88.4771
2.71599	88.4437
2.71457	88.4887
2.71315	88.4871
2.71173	88.8064
2.71032	88.9582
2.7089	88.7738
2.70748	88.5891
2.70607	88.4665
2.70466	88.4099
2.70325	88.5031
2.70184	88.603
2.70043	88.5899
2.69903	88.5563
2.69762	88.4947
2.69622	88.5853
2.69482	88.8636
2.69342	88.8822
2.69202	88.6061
2.69062	88.4761
2.68923	88.4448
2.68783	88.4051
2.68644	88.4383
2.68505	88.6037
2.68366	88.7635
2.68227	88.7148
2.68089	88.6355
2.6795	88.7611
2.67812	88.9207
2.67673	89.1285
2.67535	88.8749
2.67397	88.5501
2.6726	88.5673
2.67122	89.1081
2.66984	89.2445
2.66847	88.8377
2.6671	89.0989
2.66572	89.2236
2.66435	89.0377
2.66299	88.6137
2.66162	88.5606
2.66025	88.6434
2.65889	88.5833
2.65753	88.3179
2.65616	88.3572
2.65481	88.4102
2.65345	88.5373
2.65209	88.5809
2.65073	88.4169
2.64938	88.3433
2.64803	88.4315
2.64667	88.5507
2.64532	88.6214
2.64397	88.4637
2.64263	88.3906
2.64128	88.3667
2.63994	88.4006
2.63859	88.374
2.63725	88.3478
2.63591	88.3393
2.63457	88.4246
2.63323	88.5179
2.6319	88.6866
2.63056	88.955
2.62923	88.6602
2.62789	88.5497
2.62656	88.8012
2.62523	88.5959
2.6239	88.4769
2.62258	88.4764
2.62125	88.7447
2.61993	88.8551
2.6186	88.6599
2.61728	88.8447
2.61596	88.6388
2.61464	88.3261
2.61332	88.3836
2.61201	88.4702
2.61069	88.543
2.60938	88.5979
2.60807	88.6271
2.60675	88.8477
2.60544	89.0188
2.60414	88.6545
2.60283	88.4967
2.60152	88.6257
2.60022	88.5403
2.59891	88.3832
2.59761	88.5062
2.59631	88.9933
2.59501	89.6576
2.59371	89.2111
2.59242	88.4548
2.59112	88.2148
2.58983	88.3869
2.58853	88.4736
2.58724	88.4599
2.58595	88.4444
2.58466	88.7071
2.58338	88.7514
2.58209	88.5067
2.5808	88.4423
2.57952	88.2977
2.57824	88.2077
2.57695	88.276
2.57567	88.3176
2.5744	88.6045
2.57312	88.7559
2.57184	88.4905
2.57057	88.5594
2.56929	88.6171
2.56802	88.3706
2.56675	88.1989
2.56548	88.2267
2.56421	88.3751
2.56294	88.6301
2.56168	88.7443
2.56041	88.6398
2.55915	88.3994
2.55789	88.249
2.55662	88.3279
2.55536	88.3967
2.5541	88.3585
2.55285	88.2836
2.55159	88.2944
2.55034	88.4325
2.54908	88.4342
2.54783	88.3341
2.54658	88.2517
2.54533	88.226
2.54408	88.28
2.54283	88.356
2.54159	88.3343
2.54034	88.343
2.5391	88.2538
2.53785	88.1508
2.53661	88.2748
2.53537	88.3121
2.53413	88.4139
2.53289	88.4879
2.53166	88.4257
2.53042	88.3369
2.52919	88.2502
2.52795	88.2545
2.52672	88.2907
2.52549	88.2816
2.52426	88.3426
2.52303	88.3422
2.52181	88.2924
2.52058	88.3256
2.51936	88.3231
2.51813	88.1809
2.51691	88.1688
2.51569	88.2413
2.51447	88.1813
2.51325	88.1591
2.51203	88.1979
2.51082	88.2359
2.5096	88.3426
2.50839	88.4344
2.50717	88.3728
2.50596	88.2907
2.50475	88.2503
2.50354	88.3118
2.50233	88.3123
2.50113	88.2921
2.49992	88.28
2.49872	88.1792
2.49751	88.1573
2.49631	88.1609
2.49511	88.1454
2.49391	88.1822
2.49271	88.2608
2.49151	88.2974
2.49031	88.2813
2.48912	88.2603
2.48792	88.2829
2.48673	88.2335
2.48554	88.2746
2.48435	88.3757
2.48316	88.3847
2.48197	88.3078
2.48078	88.2601
2.4796	88.2457
2.47841	88.1949
2.47723	88.1917
2.47604	88.1855
2.47486	88.2086
2.47368	88.2868
2.4725	88.2307
2.47132	88.1373
2.47014	88.1516
2.46897	88.2559
2.46779	88.2961
2.46662	88.3749
2.46545	88.3663
2.46427	88.3041
2.4631	88.2471
2.46193	88.1922
2.46077	88.1919
2.4596	88.2209
2.45843	88.1509
2.45727	88.1118
2.4561	88.1565
2.45494	88.1184
2.45378	88.1186
2.45262	88.2631
2.45146	88.3517
2.4503	88.3751
2.44914	88.1648
2.44799	87.9537
2.44683	88.0213
2.44568	88.0733
2.44452	88.1262
2.44337	88.2283
2.44222	88.3658
2.44107	88.4042
2.43992	88.1341
2.43877	88.0163
2.43763	88.1165
2.43648	88.2034
2.43534	88.2647
2.43419	88.1507
2.43305	88.0071
2.43191	88.0109
2.43077	88.1942
2.42963	88.2109
2.42849	88.1586
2.42736	88.1229
2.42622	88.1035
2.42509	88.1837
2.42395	88.1825
2.42282	88.1415
2.42169	88.132
2.42056	88.219
2.41943	88.3405
2.4183	88.2347
2.41717	88.1374
2.41605	88.1867
2.41492	88.2288
2.4138	88.2682
2.41267	88.1432
2.41155	88.1313
2.41043	88.3003
2.40931	88.3042
2.40819	88.2375
2.40707	88.1401
2.40595	88.1898
2.40484	88.2994
2.40372	88.2221
2.40261	88.0889
2.4015	88.1902
2.40039	88.2859
2.39928	88.3198
2.39817	88.2954
2.39706	88.118
2.39595	87.9966
2.39484	88.0538
2.39374	88.1919
2.39263	88.172
2.39153	88.093
2.39043	88.1306
2.38932	88.1083
2.38822	88.0855
2.38712	88.1662
2.38603	88.1479
2.38493	88.1868
2.38383	88.2243
2.38274	88.3547
2.38164	88.4024
2.38055	88.2603
2.37946	88.1494
2.37836	88.0913
2.37727	88.0181
2.37618	88.0435
2.3751	88.0334
2.37401	88.0004
2.37292	88.0953
2.37184	88.2829
2.37075	88.2408
2.36967	88.1679
2.36859	88.2428
2.3675	88.2884
2.36642	88.2934
2.36534	88.18
2.36427	88.0407
2.36319	87.9799
2.36211	87.9941
2.36104	88.13
2.35996	88.2651
2.35889	88.3627
2.35781	88.3617
2.35674	88.2526
2.35567	88.2807
2.3546	88.2504
2.35353	88.1775
2.35247	88.185
2.3514	88.0831
2.35033	88.0267
2.34927	88.0728
2.3482	88.1037
2.34714	88.1041
2.34608	88.1357
2.34502	88.1971
2.34396	88.2469
2.3429	88.192
2.34184	88.172
2.34078	88.083
2.33973	88.0745
2.33867	88.1692
2.33762	88.1787
2.33656	88.099
2.33551	88.0712
2.33446	88.0968
2.33341	88.2302
2.33236	88.2418
2.33131	88.0682
2.33026	87.9704
2.32922	88.0651
2.32817	88.0872
2.32712	88.0812
2.32608	88.0066
2.32504	88.0193
2.324	88.1593
2.32295	88.18
2.32191	88.1784
2.32087	88.1435
2.31984	88.071
2.3188	88.0668
2.31776	87.9949
2.31673	88.0333
2.31569	88.1311
2.31466	88.0324
2.31362	88.0642
2.31259	88.185
2.31156	88.0991
2.31053	87.9734
2.3095	87.9183
2.30847	87.8922
2.30745	88.0306
2.30642	88.1198
2.3054	88.0493
2.30437	88.0381
2.30335	88.1369
2.30232	88.1246
2.3013	88.0272
2.30028	88.0549
2.29926	88.1306
2.29824	88.1513
2.29722	88.1456
2.29621	88.1105
2.29519	88.058
2.29417	87.9889
2.29316	87.9614
2.29215	88.0015
2.29113	88.0283
2.29012	87.9648
2.28911	87.8757
2.2881	87.915
2.28709	88.0012
2.28608	88.1545
2.28507	88.1724
2.28407	88.2194
2.28306	88.331
2.28206	88.1718
2.28105	88.0703
2.28005	88.0915
2.27905	88.1265
2.27805	88.0977
2.27705	87.9901
2.27605	87.9548
2.27505	87.9852
2.27405	88.1327
2.27305	88.1119
2.27206	87.899
2.27106	87.9408
2.27007	88.009
2.26907	87.9916
2.26808	87.978
2.26709	87.9468
2.2661	87.9734
2.26511	88.0935
2.26412	88.0313
2.26313	88.0598
2.26214	88.0399
2.26116	88.0369
2.26017	88.0739
2.25919	88.0478
2.2582	87.9138
2.25722	87.9885
2.25624	88.1913
2.25526	88.136
2.25428	88.0126
2.2533	88.1152
2.25232	88.163
2.25134	88.1381
2.25036	88.0184
2.24939	87.9266
2.24841	88.1756
2.24744	88.2275
2.24646	88.0556
2.24549	88.0197
2.24452	88.0903
2.24355	88.1021
2.24257	88.0892
2.24161	88.1118
2.24064	88.1122
2.23967	88.0934
2.2387	88.1783
2.23774	88.1625
2.23677	88.1047
2.23581	88.053
2.23484	88.0192
2.23388	88.0714
2.23292	88.053
2.23196	88.0958
2.231	88.0293
2.23004	87.8992
2.22908	87.91
2.22812	87.8987
2.22716	87.8864
2.22621	88.1519
2.22525	88.3399
2.2243	88.1368
2.22334	87.9689
2.22239	87.9942
2.22144	87.9604
2.22049	88.0119
2.21953	87.9743
2.21859	87.8779
2.21764	88.0323
2.21669	88.1359
2.21574	87.9875
2.21479	87.8707
2.21385	87.8597
2.2129	87.8823
2.21196	87.9271
2.21102	88.1143
2.21007	88.1074
2.20913	88.0047
2.20819	87.9753
2.20725	88.1638
2.20631	88.1646
2.20537	88.0497
2.20444	87.9679
2.2035	87.9167
2.20256	87.9674
2.20163	87.8754
2.20069	87.8457
2.19976	87.9824
2.19883	87.9806
2.19789	87.8927
2.19696	87.821
2.19603	87.9194
2.1951	88.0763
2.19417	88.0075
2.19325	87.9197
2.19232	87.9406
2.19139	87.8957
2.19047	87.8815
2.18954	88.0545
2.18862	88.1824
2.18769	88.0907
2.18677	87.9949
2.18585	88.0636
2.18493	88.0172
2.18401	87.9789
2.18309	87.976
2.18217	87.9958
2.18125	87.8985
2.18033	87.8804
2.17942	87.9883
2.1785	88.0491
2.17759	88.0498
2.17667	88.0238
2.17576	87.9331
2.17485	87.8094
2.17393	87.8138
2.17302	88.0077
2.17211	87.9911
2.1712	87.8425
2.17029	87.8659
2.16939	87.9027
2.16848	87.8774
2.16757	87.8906
2.16667	87.919
2.16576	87.9584
2.16486	87.8475
2.16395	87.8917
2.16305	87.9714
2.16215	87.9898
2.16125	87.9748
2.16035	88.0059
2.15945	88.0186
2.15855	87.8899
2.15765	87.8377
2.15675	87.8072
2.15586	87.849
2.15496	87.8369
2.15406	87.7788
2.15317	87.8052
2.15228	87.871
2.15138	87.9153
2.15049	88.1298
2.1496	88.0833
2.14871	87.9033
2.14782	87.6934
2.14693	87.8938
2.14604	88.1547
2.14515	88.1512
2.14427	88.2016
2.14338	88.153
2.14249	87.902
2.14161	87.8397
2.14072	87.8565
2.13984	87.845
2.13896	87.8749
2.13808	87.8782
2.13719	87.852
2.13631	87.8733
2.13543	88.083
2.13455	88.1422
2.13368	88.042
2.1328	87.9405
2.13192	87.9616
2.13105	87.9779
2.13017	87.8896
2.1293	87.8436
2.12842	87.8746
2.12755	87.9211
2.12668	87.9119
2.1258	87.9744
2.12493	88.0431
2.12406	87.7775
2.12319	87.6017
2.12232	87.7341
2.12145	87.8895
2.12059	87.9016
2.11972	87.7336
2.11885	87.8075
2.11799	87.9498
2.11712	87.9541
2.11626	88.0731
2.1154	88.189
2.11453	88.1188
2.11367	87.8978
2.11281	87.8047
2.11195	87.9429
2.11109	87.8694
2.11023	87.8074
2.10937	87.9675
2.10851	88.0116
2.10766	87.9848
2.1068	87.9489
2.10594	87.7853
2.10509	87.8796
2.10423	88.0535
2.10338	88.0476
2.10253	87.9618
2.10168	87.7491
2.10082	87.6426
2.09997	87.732
2.09912	87.787
2.09827	87.7301
2.09742	87.7671
2.09658	87.8338
2.09573	87.7684
2.09488	87.7115
2.09404	87.7245
2.09319	87.8934
2.09235	88.0838
2.0915	88.0603
2.09066	87.8536
2.08982	87.7539
2.08897	87.5398
2.08813	87.5668
2.08729	87.866
2.08645	87.9573
2.08561	87.763
2.08477	87.5749
2.08394	87.6673
2.0831	87.9996
2.08226	88.0589
2.08143	87.8674
2.08059	87.8756
2.07976	87.7376
2.07892	87.6305
2.07809	87.6159
2.07726	87.7669
2.07643	87.8448
2.07559	87.9146
2.07476	88.1342
2.07393	87.8691
2.0731	87.6801
2.07228	87.6772
2.07145	87.6439
2.07062	87.9104
2.06979	88.0666
2.06897	87.8871
2.06814	87.8793
2.06732	87.968
2.06649	87.908
2.06567	87.5677
2.06485	87.5559
2.06403	87.6957
2.0632	87.6599
2.06238	87.9635
2.06156	87.9378
2.06074	87.6996
2.05993	87.7917
2.05911	87.9242
2.05829	88.0296
2.05747	87.8669
2.05666	87.7688
2.05584	88.0313
2.05503	88.1731
2.05421	88.0453
2.0534	88.0835
2.05259	87.9088
2.05177	87.6543
2.05096	87.646
2.05015	87.7558
2.04934	87.9356
2.04853	87.876
2.04772	87.7614
2.04691	87.9433
2.04611	87.9467
2.0453	87.9018
2.04449	87.8209
2.04369	87.847
2.04288	87.9255
2.04208	87.7201
2.04127	87.7586
2.04047	87.7435
2.03967	87.7028
2.03886	87.7523
2.03806	87.6936
2.03726	87.7038
2.03646	87.7189
2.03566	87.7212
2.03486	87.7348
2.03407	87.8338
2.03327	87.9297
2.03247	87.9575
2.03167	87.966
2.03088	87.9061
2.03008	87.5766
2.02929	87.5546
2.0285	87.8661
2.0277	87.9963
2.02691	87.9648
2.02612	87.7027
2.02533	87.6365
2.02453	87.6811
2.02374	87.6641
2.02295	87.8167
2.02217	87.8704
2.02138	87.6862
2.02059	87.6806
2.0198	87.7899
2.01902	87.923
2.01823	87.9322
2.01744	87.9906
2.01666	88.102
2.01588	87.894
2.01509	87.7236
2.01431	87.7501
2.01353	87.7201
2.01275	87.4875
2.01196	87.4029
2.01118	87.4074
2.0104	87.6645
2.00963	87.8621
2.00885	87.733
2.00807	87.8109
2.00729	87.7321
2.00651	87.6082
2.00574	88.0295
2.00496	88.1182
2.00419	87.7461
2.00341	87.7375
2.00264	87.9447
2.00187	87.8207
2.00109	87.6534
2.00032	87.5969
