Name: Aplite
Type: Rock
Class: Igneous
Subclass:  Felsic 
Particle Size: Solid surface
Sample No.: Ward16.txt
Owner: JPL
Wavelength range:  IR 
Origin: Ward's Collection of American Rocks.  Sample locality - Boulder County, Colorado.
Collected by:  Ward's Natural Science
Description: A fine-grained pink rock composed of quartz, glassy feldspar
and biotite.  The hand specimen occasionally has irregular stringers and
patches of coarser grain.
Geologic age - Pre-Cambrian.


Measurement: Hemispherical reflectance
First Column: X
Second Column: Y
X Units: Wavelength (micrometers)
Y Units: Reflectance (percent)
First X Value: 15.3871
Last X Value: 1.9998
Number of X Values: 2257
Additional information: None

15.3871   6.70959
15.3416   6.20549
15.2964   6.03413
15.2514   6.12168
15.2066   5.53143
15.1622   4.65053
15.1180   4.81340
15.0740   4.94411
15.0303   4.45378
14.9869   4.01431
14.9437   3.50701
14.9008   3.63227
14.8581   3.95236
14.8156   4.56611
14.7734   5.40203
14.7314   4.74207
14.6897   3.65734
14.6482   4.40522
14.6069   5.10588
14.5659   4.83494
14.5251   4.88564
14.4845   5.09889
14.4442   5.43118
14.4041   5.25611
14.3642   4.80897
14.3245   4.46122
14.2850   4.31338
14.2458   4.92665
14.2068   6.04863
14.1679   6.08001
14.1293   5.44811
14.0909   5.01280
14.0528   5.06924
14.0148   5.77845
13.9770   6.06353
13.9394   6.13844
13.9021   5.92217
13.8649   5.81159
13.8279   6.17514
13.7911   6.78649
13.7546   6.69591
13.7182   6.21363
13.6820   6.49248
13.6460   7.15210
13.6101   7.07745
13.5745   6.22924
13.5391   5.65438
13.5038   5.77482
13.4687   6.15882
13.4339   6.09320
13.3991   6.54521
13.3646   6.68300
13.3302   6.24766
13.2961   5.92651
13.2621   6.16794
13.2282   6.67849
13.1946   6.94766
13.1611   7.11698
13.1278   7.49747
13.0946   7.81188
13.0616   8.25091
13.0288   8.25332
12.9962   8.17176
12.9637   8.20553
12.9313   8.56305
12.8992   9.35844
12.8672  10.14410
12.8353  10.45540
12.8036  10.51340
12.7721  10.38400
12.7407   9.79630
12.7095   8.43537
12.6784   7.60759
12.6475   7.21977
12.6167   7.13706
12.5861   7.55627
12.5556   8.23155
12.5253   8.73978
12.4951   9.15840
12.4651   8.71406
12.4352   7.94249
12.4054   7.25723
12.3758   5.82203
12.3463   3.94671
12.3170   3.49384
12.2878   3.39450
12.2588   3.13101
12.2299   3.69850
12.2011   4.04196
12.1725   3.77591
12.1439   3.45743
12.1156   3.69771
12.0873   4.50712
12.0592   4.80170
12.0312   4.33968
12.0034   4.40088
11.9757   4.90403
11.9481   5.00277
11.9206   5.25602
11.8933   5.55334
11.8661   5.71837
11.8390   6.04952
11.8120   5.83807
11.7852   5.32436
11.7584   5.52524
11.7318   5.80452
11.7053   5.86272
11.6790   6.09391
11.6527   6.10004
11.6266   6.19407
11.6006   6.53450
11.5747   6.53998
11.5489   6.49655
11.5233   6.51079
11.4977   6.75444
11.4723   6.76399
11.4469   6.58522
11.4217   6.74255
11.3966   7.01323
11.3716   6.89351
11.3468   7.03222
11.3220   7.17492
11.2973   7.49002
11.2728   7.50116
11.2483   7.27947
11.2240   7.58202
11.1997   7.84793
11.1756   7.92690
11.1515   7.90750
11.1276   7.92192
11.1038   7.90441
11.0801   7.84480
11.0564   7.87126
11.0329   8.10010
11.0095   8.36057
10.9862   8.25451
10.9629   8.70905
10.9398   9.03135
10.9168   8.86625
10.8938   8.86006
10.8710   9.17154
10.8483   9.23253
10.8256   9.28043
10.8031   9.41954
10.7806   9.61509
10.7582   9.81484
10.7360   9.88576
10.7138   9.78054
10.6917   9.84388
10.6697   9.80501
10.6478   9.71834
10.6260   9.93602
10.6042  10.53170
10.5826  10.79280
10.5610  10.90880
10.5396  10.82520
10.5182  11.05280
10.4969  11.52360
10.4757  11.96100
10.4546  12.22990
10.4335  12.22930
10.4126  12.20160
10.3917  12.50690
10.3709  12.87610
10.3502  13.05030
10.3296  13.45010
10.3091  14.04560
10.2886  14.17360
10.2683  14.40460
10.2480  14.74300
10.2277  15.24050
10.2076  15.73740
10.1876  16.43550
10.1676  17.02780
10.1477  17.59950
10.1279  18.25140
10.1081  19.03730
10.0885  19.41420
10.0689  19.81590
10.0494  20.43970
10.0299  21.40860
10.0106  22.35780
 9.9913  23.06100
 9.9720  23.64940
 9.9529  23.83520
 9.9338  24.34770
 9.9148  25.11670
 9.8959  25.25670
 9.8771  25.47560
 9.8583  25.70890
 9.8396  25.55610
 9.8210  25.46300
 9.8024  25.76120
 9.7839  25.74750
 9.7655  25.65700
 9.7471  25.74740
 9.7288  25.89490
 9.7106  26.19990
 9.6925  26.60350
 9.6744  26.86840
 9.6564  27.17940
 9.6384  27.50290
 9.6205  28.14460
 9.6027  28.73690
 9.5850  29.01990
 9.5673  29.05020
 9.5497  29.21080
 9.5321  29.46390
 9.5146  30.00160
 9.4972  30.61990
 9.4798  30.78880
 9.4625  30.59810
 9.4453  30.62400
 9.4281  30.82480
 9.4110  31.63970
 9.3940  32.49890
 9.3770  33.28700
 9.3600  34.17680
 9.3432  35.27720
 9.3264  36.11590
 9.3096  37.15170
 9.2930  37.75280
 9.2763  38.13100
 9.2598  38.39930
 9.2432  38.78330
 9.2268  38.78760
 9.2104  38.56240
 9.1941  38.67920
 9.1778  38.67710
 9.1616  38.23590
 9.1454  37.60840
 9.1293  37.29880
 9.1133  36.76880
 9.0973  36.16670
 9.0814  35.75020
 9.0655  35.13670
 9.0497  34.32680
 9.0339  33.94910
 9.0182  34.10880
 9.0025  34.02550
 8.9870  33.91730
 8.9714  34.01380
 8.9559  34.20850
 8.9405  34.57670
 8.9251  35.31570
 8.9097  35.45180
 8.8945  35.39290
 8.8792  35.43770
 8.8641  35.50180
 8.8489  35.63180
 8.8338  35.68580
 8.8188  35.67540
 8.8039  35.67860
 8.7889  35.85170
 8.7741  36.15100
 8.7592  35.99720
 8.7445  35.53520
 8.7297  35.49740
 8.7151  35.37340
 8.7005  34.73260
 8.6859  34.21350
 8.6714  33.50140
 8.6569  32.01650
 8.6425  30.21740
 8.6281  29.51610
 8.6137  30.49250
 8.5994  32.33170
 8.5852  33.76820
 8.5710  34.74470
 8.5569  35.38650
 8.5428  35.36190
 8.5287  35.21300
 8.5147  35.52680
 8.5008  35.65660
 8.4869  35.22520
 8.4730  34.80220
 8.4592  34.80640
 8.4454  34.74050
 8.4316  34.20760
 8.4180  33.77260
 8.4043  33.59170
 8.3907  33.49890
 8.3772  33.21670
 8.3637  32.56220
 8.3502  31.89630
 8.3368  31.36340
 8.3234  30.79880
 8.3100  30.23800
 8.2967  29.34620
 8.2835  28.48840
 8.2703  28.01470
 8.2571  27.30810
 8.2440  26.48110
 8.2309  25.73320
 8.2179  25.05760
 8.2049  24.37690
 8.1919  23.53460
 8.1790  22.77620
 8.1661  21.85860
 8.1532  20.73010
 8.1404  19.28110
 8.1277  17.38660
 8.1150  15.98230
 8.1023  14.57410
 8.0897  13.30900
 8.0770  12.20010
 8.0645  11.07650
 8.0520  10.19390
 8.0395   9.57913
 8.0270   8.75097
 8.0146   7.92417
 8.0023   7.25970
 7.9899   6.68700
 7.9776   6.25801
 7.9654   5.82186
 7.9532   5.11089
 7.9410   4.53171
 7.9288   4.34066
 7.9167   4.22657
 7.9047   4.15140
 7.8926   3.65741
 7.8807   3.05314
 7.8687   2.84213
 7.8568   2.74390
 7.8449   2.60634
 7.8330   2.53478
 7.8212   2.43270
 7.8094   2.24441
 7.7977   2.16565
 7.7860   2.14568
 7.7743   2.01371
 7.7627   1.73012
 7.7511   1.55813
 7.7395   1.66318
 7.7280   1.61681
 7.7165   1.47703
 7.7050   1.51907
 7.6936   1.33730
 7.6822   1.04281
 7.6708   0.95735
 7.6595   0.97164
 7.6482   0.97964
 7.6369   1.07217
 7.6257   1.12127
 7.6145   1.09583
 7.6033   1.03879
 7.5922   1.04799
 7.5811   1.07977
 7.5700   1.13408
 7.5590   1.11183
 7.5480   0.93016
 7.5370   1.10384
 7.5261   1.18632
 7.5152   1.32984
 7.5043   1.29309
 7.4935   0.87204
 7.4826   0.79570
 7.4718   0.82246
 7.4611   0.65266
 7.4504   0.60923
 7.4397   0.93321
 7.4290   1.09922
 7.4184   1.04868
 7.4078   1.26869
 7.3972   1.09397
 7.3867   0.95219
 7.3762   1.01234
 7.3657   0.94810
 7.3553   0.78699
 7.3449   0.86712
 7.3345   1.09457
 7.3241   0.95931
 7.3138   0.93355
 7.3035   1.27052
 7.2932   1.25557
 7.2830   1.01785
 7.2727   0.96982
 7.2626   1.07163
 7.2524   1.16339
 7.2423   1.30545
 7.2322   1.46437
 7.2221   1.29917
 7.2120   1.14879
 7.2020   1.08606
 7.1921   1.01208
 7.1821   0.98171
 7.1722   1.23286
 7.1623   1.36138
 7.1524   1.32261
 7.1425   1.32519
 7.1327   1.68238
 7.1229   1.71094
 7.1131   1.43493
 7.1034   1.35879
 7.0937   1.50593
 7.0840   1.54352
 7.0743   1.30781
 7.0647   1.01077
 7.0551   1.13577
 7.0455   1.53326
 7.0359   1.62260
 7.0264   1.73890
 7.0169   1.76431
 7.0074   1.42802
 6.9979   1.39879
 6.9885   1.32045
 6.9791   1.26477
 6.9697   1.54478
 6.9604   1.68815
 6.9510   1.67142
 6.9417   1.53137
 6.9324   1.46528
 6.9232   1.64975
 6.9140   1.56731
 6.9047   1.38003
 6.8956   1.55780
 6.8864   1.61667
 6.8773   1.54443
 6.8682   1.55829
 6.8591   1.49092
 6.8500   1.41029
 6.8410   1.63249
 6.8320   1.74071
 6.8230   1.76473
 6.8140   1.85125
 6.8051   1.69862
 6.7962   1.67229
 6.7873   1.83654
 6.7784   1.68606
 6.7695   1.58671
 6.7607   1.75557
 6.7519   1.68814
 6.7431   1.75965
 6.7344   1.69577
 6.7256   1.63269
 6.7169   1.83222
 6.7082   1.82869
 6.6996   1.77689
 6.6909   1.87198
 6.6823   1.98169
 6.6737   1.92568
 6.6651   1.79283
 6.6566   1.85935
 6.6480   1.96342
 6.6395   1.98035
 6.6310   1.92754
 6.6226   1.83038
 6.6141   1.77266
 6.6057   1.89948
 6.5973   1.88881
 6.5889   1.86383
 6.5805   2.01842
 6.5722   2.24783
 6.5639   2.04591
 6.5556   1.69649
 6.5473   1.58016
 6.5390   1.68431
 6.5308   1.85793
 6.5226   1.89299
 6.5144   1.99650
 6.5062   2.05699
 6.4981   2.11329
 6.4900   2.17376
 6.4818   2.08037
 6.4737   2.02789
 6.4657   2.23055
 6.4576   2.24902
 6.4496   2.25010
 6.4416   2.33873
 6.4336   2.50594
 6.4256   2.24741
 6.4177   1.80758
 6.4097   1.97385
 6.4018   2.46657
 6.3939   2.50285
 6.3860   2.31275
 6.3782   2.12248
 6.3704   2.23631
 6.3625   2.48965
 6.3547   2.40539
 6.3470   2.11438
 6.3392   2.05422
 6.3315   2.03020
 6.3237   2.23905
 6.3160   2.42245
 6.3083   2.27476
 6.3007   2.31331
 6.2930   2.62474
 6.2854   2.51028
 6.2778   2.18948
 6.2702   2.09564
 6.2626   2.16476
 6.2551   2.19808
 6.2476   2.35679
 6.2400   2.35834
 6.2325   2.21272
 6.2251   2.12211
 6.2176   2.26869
 6.2101   2.44273
 6.2027   2.55227
 6.1953   2.40747
 6.1879   2.36428
 6.1805   2.36710
 6.1732   2.32835
 6.1658   2.37710
 6.1585   2.50168
 6.1512   2.23849
 6.1439   2.06258
 6.1367   2.44743
 6.1294   2.74048
 6.1222   2.45073
 6.1149   2.33186
 6.1077   2.33591
 6.1006   2.49957
 6.0934   2.39759
 6.0862   2.30182
 6.0791   2.37751
 6.0720   2.40707
 6.0649   2.40956
 6.0578   2.26528
 6.0507   2.47008
 6.0437   2.56683
 6.0366   2.47805
 6.0296   2.66040
 6.0226   2.65431
 6.0156   2.54828
 6.0087   2.45667
 6.0017   2.43844
 5.9948   2.47431
 5.9878   2.50148
 5.9809   2.55718
 5.9740   2.66524
 5.9672   2.76554
 5.9603   2.61376
 5.9535   2.46016
 5.9466   2.35483
 5.9398   2.46052
 5.9330   2.62790
 5.9262   2.47005
 5.9195   2.16453
 5.9127   2.42671
 5.9060   2.50547
 5.8993   2.61897
 5.8926   2.87934
 5.8859   2.81794
 5.8792   2.75104
 5.8726   2.78089
 5.8659   2.80529
 5.8593   2.58738
 5.8527   2.38089
 5.8461   2.36905
 5.8395   2.66007
 5.8329   2.74817
 5.8264   2.71341
 5.8198   2.77825
 5.8133   2.74821
 5.8068   2.58259
 5.8003   2.64490
 5.7938   2.78954
 5.7874   2.91849
 5.7809   2.91738
 5.7745   2.75143
 5.7680   2.73811
 5.7616   2.70792
 5.7552   2.82674
 5.7489   2.79648
 5.7425   2.61707
 5.7361   2.67529
 5.7298   2.82013
 5.7235   2.87521
 5.7172   2.90726
 5.7109   2.95141
 5.7046   2.94886
 5.6983   2.84706
 5.6921   2.91808
 5.6858   2.94135
 5.6796   3.05819
 5.6734   2.91726
 5.6672   2.66408
 5.6610   2.65958
 5.6548   2.82677
 5.6487   2.78408
 5.6425   2.66964
 5.6364   2.68020
 5.6303   2.82235
 5.6242   2.85710
 5.6181   2.89434
 5.6120   2.85748
 5.6059   2.80461
 5.5999   2.74807
 5.5938   2.87300
 5.5878   2.99316
 5.5818   2.77122
 5.5758   2.73755
 5.5698   2.69188
 5.5638   2.74591
 5.5578   2.93440
 5.5519   3.11415
 5.5460   2.97009
 5.5400   2.84658
 5.5341   2.94997
 5.5282   2.93014
 5.5223   2.96332
 5.5164   3.13147
 5.5106   3.22620
 5.5047   3.12646
 5.4989   3.04900
 5.4931   2.89090
 5.4873   2.96389
 5.4815   3.15047
 5.4757   3.19732
 5.4699   3.29209
 5.4641   3.36281
 5.4584   3.31704
 5.4527   3.36585
 5.4469   3.30227
 5.4412   3.15729
 5.4355   3.02778
 5.4298   2.99900
 5.4241   3.04306
 5.4185   3.14683
 5.4128   3.20919
 5.4072   3.19060
 5.4015   3.18752
 5.3959   3.22352
 5.3903   3.19238
 5.3847   3.29444
 5.3791   3.34210
 5.3735   3.33501
 5.3680   3.36074
 5.3624   3.32543
 5.3569   3.30084
 5.3514   3.36353
 5.3458   3.34366
 5.3403   3.29522
 5.3348   3.44891
 5.3294   3.52158
 5.3239   3.37544
 5.3184   3.30397
 5.3130   3.40599
 5.3075   3.31192
 5.3021   3.24199
 5.2967   3.37208
 5.2913   3.40845
 5.2859   3.45791
 5.2805   3.45749
 5.2751   3.19722
 5.2698   3.37092
 5.2644   3.62473
 5.2591   3.53439
 5.2538   3.62658
 5.2485   3.51098
 5.2431   3.54087
 5.2378   3.81706
 5.2326   3.82492
 5.2273   3.76684
 5.2220   3.56029
 5.2168   3.70029
 5.2115   3.77907
 5.2063   3.58696
 5.2011   3.66259
 5.1959   3.83935
 5.1907   3.93275
 5.1855   3.83180
 5.1803   3.74235
 5.1751   3.76114
 5.1700   3.78441
 5.1648   3.89645
 5.1597   3.93943
 5.1545   3.88448
 5.1494   3.78971
 5.1443   3.98612
 5.1392   4.11721
 5.1341   4.08030
 5.1291   4.10969
 5.1240   4.17912
 5.1189   4.12864
 5.1139   4.10370
 5.1088   4.15529
 5.1038   4.29790
 5.0988   4.29939
 5.0938   4.24577
 5.0888   4.28981
 5.0838   4.13665
 5.0788   4.31750
 5.0738   4.43372
 5.0689   4.30161
 5.0639   4.34769
 5.0590   4.50055
 5.0541   4.46218
 5.0491   4.24953
 5.0442   4.20275
 5.0393   4.26214
 5.0344   4.33503
 5.0296   4.47530
 5.0247   4.60336
 5.0198   4.70681
 5.0150   4.64434
 5.0101   4.60186
 5.0053   4.50385
 5.0004   4.37916
 4.9956   4.26660
 4.9908   4.40448
 4.9860   4.55968
 4.9812   4.56818
 4.9765   4.57452
 4.9717   4.69417
 4.9669   4.72395
 4.9622   4.74786
 4.9574   4.73998
 4.9527   4.52269
 4.9480   4.59627
 4.9432   4.80252
 4.9385   4.68919
 4.9338   4.81367
 4.9291   4.91092
 4.9245   4.79529
 4.9198   4.81152
 4.9151   4.82263
 4.9105   4.79686
 4.9058   4.99929
 4.9012   5.27923
 4.8966   5.23793
 4.8919   5.01817
 4.8873   5.12700
 4.8827   5.23296
 4.8781   5.19165
 4.8736   5.48857
 4.8690   5.69188
 4.8644   5.40663
 4.8599   5.34865
 4.8553   5.33995
 4.8508   5.46210
 4.8462   5.72765
 4.8417   5.80854
 4.8372   5.80670
 4.8327   6.03273
 4.8282   6.09994
 4.8237   5.90472
 4.8192   5.70557
 4.8147   5.73063
 4.8103   5.74663
 4.8058   5.62975
 4.8014   5.67126
 4.7969   5.98718
 4.7925   5.96390
 4.7881   5.75332
 4.7836   5.83186
 4.7792   5.95166
 4.7748   6.01426
 4.7704   6.30765
 4.7660   6.27911
 4.7617   6.12266
 4.7573   6.14392
 4.7530   6.10756
 4.7486   6.00453
 4.7443   6.00850
 4.7399   6.05193
 4.7356   6.22368
 4.7313   6.34002
 4.7270   6.18733
 4.7226   6.11098
 4.7184   6.19533
 4.7141   6.24098
 4.7098   6.42377
 4.7055   6.41413
 4.7012   6.33540
 4.6970   6.46411
 4.6927   6.23343
 4.6885   6.02365
 4.6842   6.24707
 4.6800   6.58808
 4.6758   6.52690
 4.6716   6.30054
 4.6674   6.35527
 4.6632   6.40671
 4.6590   6.54479
 4.6548   6.50297
 4.6506   6.56700
 4.6465   6.62907
 4.6423   6.63604
 4.6382   6.56691
 4.6340   6.50597
 4.6299   6.65591
 4.6258   6.85729
 4.6216   6.98593
 4.6175   6.94608
 4.6134   6.99160
 4.6093   7.20541
 4.6052   7.12035
 4.6011   7.12712
 4.5971   7.45926
 4.5930   7.43435
 4.5889   7.46218
 4.5849   7.47553
 4.5808   7.50168
 4.5768   7.20668
 4.5727   7.12716
 4.5687   7.44291
 4.5647   7.55018
 4.5607   7.47625
 4.5567   7.70901
 4.5526   7.68215
 4.5487   7.71316
 4.5447   7.77155
 4.5407   7.74011
 4.5367   7.86846
 4.5328   7.93320
 4.5288   7.58187
 4.5248   7.42800
 4.5209   7.64544
 4.5170   7.89188
 4.5130   7.76457
 4.5091   7.79052
 4.5052   7.59810
 4.5013   7.49940
 4.4974   7.66973
 4.4935   7.66361
 4.4896   7.44768
 4.4857   7.32734
 4.4818   7.49716
 4.4779   7.56931
 4.4741   7.67660
 4.4702   7.89516
 4.4664   7.96135
 4.4625   7.85188
 4.4587   7.85203
 4.4549   8.01322
 4.4510   8.12289
 4.4472   7.97211
 4.4434   8.01413
 4.4396   8.44204
 4.4358   8.30976
 4.4320   7.99110
 4.4282   8.04830
 4.4245   8.20792
 4.4207   8.39692
 4.4169   8.56083
 4.4132   8.66819
 4.4094   8.76914
 4.4057   8.88509
 4.4019   9.04430
 4.3982   9.09986
 4.3945   9.14200
 4.3907   9.31861
 4.3870   9.27476
 4.3833   9.16574
 4.3796   9.12456
 4.3759   9.02980
 4.3722   9.17598
 4.3685   9.36664
 4.3649   9.61200
 4.3612   9.83185
 4.3575   9.97753
 4.3539   9.92629
 4.3502  10.01950
 4.3466  10.22200
 4.3429  10.44390
 4.3393  10.39320
 4.3357  10.30230
 4.3320  10.62650
 4.3284  10.85330
 4.3248  10.72820
 4.3212  10.69820
 4.3176  10.74260
 4.3140  10.96180
 4.3105  11.07390
 4.3069  10.91830
 4.3033  10.73310
 4.2997  10.72530
 4.2962  10.95710
 4.2926  11.37790
 4.2890  11.45100
 4.2855  11.29210
 4.2820  11.43110
 4.2784  11.58320
 4.2749  11.61280
 4.2714  11.44090
 4.2679  11.37610
 4.2644  11.25560
 4.2609  11.48740
 4.2574  11.68090
 4.2539  11.93560
 4.2504  12.09560
 4.2469  12.01730
 4.2434  12.22700
 4.2400  12.46840
 4.2365  12.35400
 4.2330  12.38060
 4.2296  12.33580
 4.2261  12.14530
 4.2227  12.20050
 4.2193  12.28370
 4.2158  12.35910
 4.2124  12.60190
 4.2090  12.39520
 4.2056  11.95230
 4.2022  12.06720
 4.1988  12.54330
 4.1954  12.65880
 4.1920  12.42940
 4.1886  12.54200
 4.1852  12.78230
 4.1818  12.70150
 4.1785  12.57260
 4.1751  12.93320
 4.1717  13.06300
 4.1684  13.11660
 4.1650  12.99450
 4.1617  12.98910
 4.1584  13.20400
 4.1550  13.15020
 4.1517  12.95100
 4.1484  12.96630
 4.1451  12.99510
 4.1418  13.27400
 4.1384  13.64320
 4.1351  13.80390
 4.1319  13.97000
 4.1286  13.94970
 4.1253  13.99870
 4.1220  14.03670
 4.1187  13.87050
 4.1155  13.95080
 4.1122  14.15300
 4.1089  14.07120
 4.1057  13.95940
 4.1024  14.09080
 4.0992  13.97560
 4.0959  13.96850
 4.0927  14.15160
 4.0895  14.29210
 4.0863  14.48250
 4.0830  14.69540
 4.0798  14.99780
 4.0766  14.83830
 4.0734  14.65990
 4.0702  14.91380
 4.0670  15.03680
 4.0639  14.89770
 4.0607  14.77700
 4.0575  14.74210
 4.0543  14.61040
 4.0511  14.57940
 4.0480  14.54190
 4.0448  14.84360
 4.0417  15.05510
 4.0385  14.91480
 4.0354  15.01660
 4.0323  15.05490
 4.0291  14.72580
 4.0260  14.59950
 4.0229  14.90370
 4.0197  15.17010
 4.0166  15.16660
 4.0135  15.14840
 4.0104  15.05250
 4.0073  15.03530
 4.0042  15.19610
 4.0011  15.38270
 3.9981  15.54300
 3.9950  15.27250
 3.9919  15.22560
 3.9888  15.23610
 3.9857  15.07920
 3.9827  15.11640
 3.9796  15.14130
 3.9766  15.16570
 3.9735  15.34090
 3.9705  15.30500
 3.9675  15.18760
 3.9644  15.32260
 3.9614  15.30840
 3.9584  15.39330
 3.9554  15.55240
 3.9523  15.45050
 3.9493  15.59060
 3.9463  15.75160
 3.9433  15.62100
 3.9403  15.61300
 3.9373  16.05100
 3.9343  16.18670
 3.9314  15.73470
 3.9284  15.81650
 3.9254  16.26410
 3.9224  16.16690
 3.9195  16.10900
 3.9165  16.42150
 3.9136  16.39170
 3.9106  16.11660
 3.9077  15.98090
 3.9047  15.91620
 3.9018  15.96060
 3.8988  16.25820
 3.8959  16.26370
 3.8930  15.99170
 3.8901  15.87290
 3.8872  15.76240
 3.8842  15.67110
 3.8813  15.87290
 3.8784  16.15070
 3.8755  16.01290
 3.8726  15.89580
 3.8697  15.93770
 3.8669  16.02420
 3.8640  16.05210
 3.8611  16.11700
 3.8582  16.32030
 3.8554  16.41690
 3.8525  16.26560
 3.8496  16.24700
 3.8468  16.33670
 3.8439  16.10890
 3.8411  16.17090
 3.8382  16.30660
 3.8354  16.41200
 3.8326  16.34120
 3.8297  16.62560
 3.8269  16.85240
 3.8241  16.69450
 3.8213  16.37860
 3.8185  16.36750
 3.8157  16.37390
 3.8128  16.40450
 3.8100  16.70710
 3.8072  16.44900
 3.8045  16.32000
 3.8017  16.57290
 3.7989  16.52260
 3.7961  16.55670
 3.7933  16.97040
 3.7906  16.98200
 3.7878  16.96100
 3.7850  16.64790
 3.7822  16.33320
 3.7795  16.21200
 3.7767  16.42310
 3.7740  16.43860
 3.7713  16.38060
 3.7685  16.64390
 3.7658  16.75870
 3.7630  16.56130
 3.7603  16.63240
 3.7576  16.60700
 3.7549  16.63550
 3.7521  17.02910
 3.7494  16.84910
 3.7467  16.52660
 3.7440  16.40540
 3.7413  16.50510
 3.7386  16.45120
 3.7359  16.23000
 3.7332  16.30900
 3.7306  16.35730
 3.7279  16.30540
 3.7252  16.52770
 3.7225  16.80360
 3.7199  16.65300
 3.7172  16.43220
 3.7145  16.59350
 3.7119  16.63940
 3.7092  16.63560
 3.7066  16.73330
 3.7039  16.57630
 3.7013  16.55260
 3.6986  16.67060
 3.6960  16.66380
 3.6934  16.75370
 3.6907  16.40650
 3.6881  16.47160
 3.6855  17.18580
 3.6829  17.42190
 3.6803  17.06900
 3.6776  16.75550
 3.6750  16.81670
 3.6724  17.12000
 3.6698  17.11830
 3.6672  17.02120
 3.6646  17.29190
 3.6620  17.31870
 3.6595  16.87270
 3.6569  16.61320
 3.6543  16.66080
 3.6517  16.85390
 3.6492  17.03760
 3.6466  17.14460
 3.6440  17.16700
 3.6415  17.12440
 3.6389  17.05410
 3.6364  16.86540
 3.6338  16.87140
 3.6313  17.04510
 3.6287  17.09160
 3.6262  17.03140
 3.6237  16.74870
 3.6211  16.69590
 3.6186  16.89850
 3.6161  16.98310
 3.6136  17.14240
 3.6111  16.99410
 3.6085  16.74290
 3.6060  16.51860
 3.6035  16.37880
 3.6010  16.40860
 3.5985  16.67870
 3.5960  17.01810
 3.5935  17.05290
 3.5910  16.75910
 3.5886  16.16210
 3.5861  15.91480
 3.5836  16.16580
 3.5811  16.45370
 3.5787  16.67140
 3.5762  16.76780
 3.5737  16.31850
 3.5713  16.05740
 3.5688  16.21390
 3.5663  16.27620
 3.5639  16.50160
 3.5614  16.62570
 3.5590  16.19260
 3.5566  16.14170
 3.5541  16.28230
 3.5517  16.07050
 3.5493  16.34130
 3.5468  16.42120
 3.5444  15.84370
 3.5420  15.53260
 3.5396  15.78460
 3.5372  16.43380
 3.5347  16.59140
 3.5323  15.93450
 3.5299  15.21320
 3.5275  15.33060
 3.5251  15.85640
 3.5227  15.88040
 3.5203  16.04890
 3.5180  15.83590
 3.5156  15.67280
 3.5132  15.41340
 3.5108  14.82570
 3.5084  15.02770
 3.5061  15.26630
 3.5037  14.86290
 3.5013  14.70200
 3.4990  14.92630
 3.4966  15.07450
 3.4943  14.98090
 3.4919  14.39640
 3.4895  14.49230
 3.4872  14.38740
 3.4849  14.09920
 3.4825  14.30660
 3.4802  14.75440
 3.4778  14.64500
 3.4755  14.67660
 3.4732  14.57450
 3.4709  14.25350
 3.4685  14.54920
 3.4662  14.79340
 3.4639  14.68780
 3.4616  14.72950
 3.4593  14.54910
 3.4570  14.30870
 3.4547  13.87290
 3.4524  13.63420
 3.4501  13.66830
 3.4478  13.83510
 3.4455  14.35970
 3.4432  14.70380
 3.4409  14.57310
 3.4386  14.61230
 3.4364  14.59450
 3.4341  14.04730
 3.4318  13.72650
 3.4295  13.66570
 3.4273  13.77010
 3.4250  13.47670
 3.4228  13.19440
 3.4205  13.34370
 3.4182  13.55760
 3.4160  13.60620
 3.4137  13.39400
 3.4115  13.28400
 3.4093  13.02460
 3.4070  12.82170
 3.4048  13.12610
 3.4025  12.88520
 3.4003  12.62560
 3.3981  12.77040
 3.3958  12.75090
 3.3936  12.97100
 3.3914  13.18340
 3.3892  12.81160
 3.3870  12.66730
 3.3848  12.53980
 3.3826  12.52110
 3.3804  12.47850
 3.3782  12.45470
 3.3760  12.56900
 3.3738  12.71990
 3.3716  12.69740
 3.3694  12.51710
 3.3672  12.21190
 3.3650  11.99140
 3.3628  12.59490
 3.3606  12.80190
 3.3585  12.40460
 3.3563  12.40300
 3.3541  12.48880
 3.3520  12.19260
 3.3498  12.13500
 3.3476  12.46030
 3.3455  12.60740
 3.3433  12.48900
 3.3411  12.21680
 3.3390  12.14930
 3.3369  12.24760
 3.3347  11.86650
 3.3326  11.81740
 3.3304  12.33090
 3.3283  12.28680
 3.3262  11.81690
 3.3240  11.83930
 3.3219  11.82080
 3.3198  11.87720
 3.3176  12.33340
 3.3155  12.08930
 3.3134  11.51910
 3.3113  11.57610
 3.3092  11.77820
 3.3071  11.71200
 3.3049  11.73840
 3.3028  11.79020
 3.3007  11.56270
 3.2986  10.96620
 3.2965  11.00330
 3.2944  10.92800
 3.2924  10.93790
 3.2903  11.25030
 3.2882  11.55530
 3.2861  12.13390
 3.2840  12.26080
 3.2819  11.58320
 3.2799  10.79140
 3.2778  10.77590
 3.2757  10.90950
 3.2736  10.71590
 3.2716  10.69790
 3.2695  11.04000
 3.2675  11.07670
 3.2654  10.67400
 3.2634  10.37440
 3.2613  10.67670
 3.2593  10.75980
 3.2572   9.89824
 3.2552   9.99169
 3.2531  10.48520
 3.2511  10.09670
 3.2490  10.53980
 3.2470  10.65680
 3.2450  10.56700
 3.2429  10.41450
 3.2409  10.03050
 3.2389   9.73351
 3.2369  10.23680
 3.2348  10.60830
 3.2328  10.55290
 3.2308   9.82957
 3.2288   8.76506
 3.2268   9.35552
 3.2248   9.92187
 3.2228  10.09600
 3.2208  10.06850
 3.2188   9.98722
 3.2168  10.53500
 3.2148  10.73930
 3.2128  10.07170
 3.2108   9.98278
 3.2088  10.05280
 3.2068   9.97921
 3.2049   9.96336
 3.2029   9.80191
 3.2009   9.01579
 3.1989   8.87271
 3.1970   9.31411
 3.1950   9.55509
 3.1930   9.63685
 3.1911   9.79664
 3.1891   9.19731
 3.1871   8.86515
 3.1852   9.21813
 3.1832   9.28240
 3.1813   9.65741
 3.1793   9.75538
 3.1774   9.45623
 3.1754   9.19263
 3.1735   9.36156
 3.1715   9.32767
 3.1696   8.51877
 3.1677   8.68000
 3.1657   8.80221
 3.1638   9.40069
 3.1619   9.30582
 3.1599   9.20792
 3.1580   9.42545
 3.1561   9.27681
 3.1542   9.09095
 3.1523   8.49778
 3.1503   8.90845
 3.1484   8.94390
 3.1465   7.81606
 3.1446   7.42181
 3.1427   8.07124
 3.1408   9.03895
 3.1389   9.20677
 3.1370   8.85282
 3.1351   8.64320
 3.1332   9.06323
 3.1313   8.35905
 3.1294   7.81106
 3.1275   8.15079
 3.1257   7.89736
 3.1238   8.20258
 3.1219   8.51643
 3.1200   8.75698
 3.1181   8.43446
 3.1163   7.85349
 3.1144   8.21821
 3.1125   8.35197
 3.1107   8.18531
 3.1088   7.96471
 3.1069   8.15904
 3.1051   8.69553
 3.1032   9.04152
 3.1014   8.80863
 3.0995   8.26075
 3.0976   8.24490
 3.0958   8.81518
 3.0940   8.26271
 3.0921   7.47234
 3.0903   7.98599
 3.0884   8.42222
 3.0866   8.21000
 3.0848   7.97071
 3.0829   7.40910
 3.0811   7.32333
 3.0793   7.50319
 3.0774   7.32221
 3.0756   7.30258
 3.0738   7.47917
 3.0720   8.21149
 3.0701   8.51417
 3.0683   8.05757
 3.0665   7.91326
 3.0647   8.48857
 3.0629   8.46027
 3.0611   7.53952
 3.0593   7.57597
 3.0575   8.23109
 3.0557   8.32121
 3.0539   8.59161
 3.0521   8.74189
 3.0503   8.16162
 3.0485   7.91180
 3.0467   7.65356
 3.0449   7.20129
 3.0431   6.93236
 3.0413   6.85067
 3.0396   6.19999
 3.0378   5.94532
 3.0360   7.64655
 3.0342   8.24655
 3.0324   7.46089
 3.0307   7.34953
 3.0289   7.69038
 3.0271   7.87333
 3.0254   7.77743
 3.0236   8.04484
 3.0218   8.22284
 3.0201   8.11353
 3.0183   7.89697
 3.0166   7.50459
 3.0148   6.94170
 3.0130   7.42529
 3.0113   8.02549
 3.0096   8.16055
 3.0078   7.31180
 3.0061   6.50201
 3.0043   7.19678
 3.0026   7.29054
 3.0008   7.05546
 2.9991   7.99992
 2.9974   7.66012
 2.9956   7.15403
 2.9939   7.71482
 2.9922   8.52198
 2.9905   8.20555
 2.9887   7.29068
 2.9870   7.32222
 2.9853   7.58960
 2.9836   7.82949
 2.9819   7.99218
 2.9802   7.27307
 2.9784   7.36631
 2.9767   7.39618
 2.9750   7.44849
 2.9733   6.69663
 2.9716   6.49480
 2.9699   6.95869
 2.9682   8.12566
 2.9665   8.13031
 2.9648   8.09978
 2.9631   8.74790
 2.9614   8.30135
 2.9597   7.66826
 2.9581   7.80928
 2.9564   8.15496
 2.9547   7.89907
 2.9530   7.53466
 2.9513   6.48173
 2.9496   5.76004
 2.9480   7.18913
 2.9463   8.36475
 2.9446   8.05692
 2.9429   6.96985
 2.9413   6.95431
 2.9396   8.19811
 2.9379   8.18370
 2.9363   7.50463
 2.9346   7.57875
 2.9330   7.65876
 2.9313   8.00144
 2.9296   8.17291
 2.9280   7.34515
 2.9263   6.54858
 2.9247   7.11466
 2.9230   7.77614
 2.9214   7.55863
 2.9197   7.42093
 2.9181   7.48554
 2.9165   8.12301
 2.9148   8.44423
 2.9132   7.99372
 2.9116   7.53332
 2.9099   5.95697
 2.9083   6.50189
 2.9067   8.05338
 2.9050   8.04019
 2.9034   7.32680
 2.9018   6.93135
 2.9002   7.06735
 2.8985   6.96082
 2.8969   7.60044
 2.8953   8.62255
 2.8937   7.83397
 2.8921   7.69318
 2.8905   7.86511
 2.8888   7.55145
 2.8872   7.21744
 2.8856   6.86853
 2.8840   8.00301
 2.8824   8.07885
 2.8808   7.18056
 2.8792   6.68661
 2.8776   7.10779
 2.8760   7.44394
 2.8744   6.84921
 2.8728   7.30450
 2.8712   7.96902
 2.8697   8.89775
 2.8681   8.59787
 2.8665   7.44951
 2.8649   7.62473
 2.8633   7.95116
 2.8617   8.70448
 2.8602   8.69908
 2.8586   8.07842
 2.8570   7.83446
 2.8554   8.23765
 2.8539   8.70701
 2.8523   8.52035
 2.8507   7.53918
 2.8492   7.27650
 2.8476   7.78101
 2.8460   8.16151
 2.8445   8.46215
 2.8429   8.56141
 2.8413   8.34085
 2.8398   8.60589
 2.8382   9.03420
 2.8367   8.05126
 2.8351   7.67335
 2.8336   7.74657
 2.8320   7.79063
 2.8305   7.04031
 2.8289   6.55608
 2.8274   7.43732
 2.8259   8.12392
 2.8243   8.90950
 2.8228   8.70206
 2.8213   8.33255
 2.8197   8.80463
 2.8182   8.74674
 2.8167   8.22280
 2.8151   8.03431
 2.8136   8.01073
 2.8121   7.13344
 2.8106   7.25428
 2.8090   8.57072
 2.8075   8.80269
 2.8060   8.60694
 2.8045   8.27864
 2.8030   8.38804
 2.8014   7.65584
 2.7999   6.70272
 2.7984   7.90138
 2.7969   8.74430
 2.7954   9.00489
 2.7939   9.37866
 2.7924   8.30351
 2.7909   7.47285
 2.7894   8.14118
 2.7879   8.23450
 2.7864   7.81911
 2.7849   8.07433
 2.7834   9.07447
 2.7819   9.31088
 2.7804   8.65580
 2.7789   8.37929
 2.7774   8.74592
 2.7759   7.79382
 2.7745   6.79773
 2.7730   7.59326
 2.7715   8.68553
 2.7700   8.36039
 2.7685   7.69755
 2.7671   7.98906
 2.7656   8.68215
 2.7641   9.00290
 2.7626   8.33357
 2.7612   7.52953
 2.7597   7.47619
 2.7582   8.03685
 2.7568   8.30587
 2.7553   8.46916
 2.7538   8.41751
 2.7524   8.64540
 2.7509   8.96272
 2.7494   8.32533
 2.7480   8.08466
 2.7465   8.41110
 2.7451   8.75136
 2.7436   8.96103
 2.7422   9.10485
 2.7407   9.07733
 2.7393   8.05520
 2.7378   7.70608
 2.7364   8.06730
 2.7350   8.76835
 2.7335   9.12115
 2.7321   8.59239
 2.7306   8.14836
 2.7292   7.96465
 2.7278   8.18897
 2.7263   8.01141
 2.7249   8.77445
 2.7235   9.54920
 2.7220   9.93098
 2.7206  10.18650
 2.7192   9.70545
 2.7178   8.95531
 2.7163   9.40794
 2.7149  10.40630
 2.7135  10.86470
 2.7121  10.66520
 2.7106   9.89305
 2.7092   9.97309
 2.7078  10.49250
 2.7064  11.06280
 2.7050  11.51750
 2.7036  12.02670
 2.7022  11.86170
 2.7008  11.50120
 2.6994  11.53970
 2.6980  12.90440
 2.6965  14.33940
 2.6951  14.64920
 2.6938  14.86790
 2.6923  15.18780
 2.6910  14.97440
 2.6896  15.28050
 2.6882  16.43680
 2.6868  17.21130
 2.6854  17.82070
 2.6840  18.58050
 2.6826  19.07840
 2.6812  18.87360
 2.6798  19.44400
 2.6784  19.84270
 2.6771  19.80050
 2.6757  20.23050
 2.6743  20.84200
 2.6729  20.68130
 2.6715  20.76400
 2.6702  21.92260
 2.6688  22.02680
 2.6674  22.00230
 2.6660  21.83020
 2.6647  22.23180
 2.6633  22.74180
 2.6619  22.14710
 2.6606  21.97980
 2.6592  22.46960
 2.6578  23.77320
 2.6565  23.82650
 2.6551  23.29220
 2.6538  23.02190
 2.6524  22.68510
 2.6511  23.76540
 2.6497  24.32230
 2.6484  23.66900
 2.6470  23.84710
 2.6456  24.44800
 2.6443  24.22390
 2.6429  24.40730
 2.6416  24.58930
 2.6403  24.51500
 2.6389  24.96550
 2.6376  24.69690
 2.6362  23.90440
 2.6349  23.72240
 2.6336  23.90820
 2.6322  25.03050
 2.6309  25.54820
 2.6296  24.80720
 2.6282  23.95100
 2.6269  23.85710
 2.6256  24.48790
 2.6242  24.61610
 2.6229  24.65830
 2.6216  24.33110
 2.6203  24.27180
 2.6189  25.01580
 2.6176  26.30400
 2.6163  26.72600
 2.6150  25.51140
 2.6136  24.94290
 2.6123  24.67280
 2.6110  25.15420
 2.6097  25.77630
 2.6084  25.09980
 2.6071  24.56340
 2.6058  24.77420
 2.6044  24.60580
 2.6031  24.87150
 2.6018  25.50140
 2.6005  26.37080
 2.5992  26.44120
 2.5979  25.95550
 2.5966  26.51640
 2.5953  27.54820
 2.5940  26.67800
 2.5927  25.38250
 2.5914  25.28700
 2.5901  25.55280
 2.5888  25.14610
 2.5876  24.94170
 2.5863  25.11060
 2.5850  26.13800
 2.5837  26.68810
 2.5824  26.67170
 2.5811  26.63280
 2.5798  26.57850
 2.5785  26.40640
 2.5773  25.73530
 2.5760  25.43390
 2.5747  25.60510
 2.5734  26.01580
 2.5722  26.87220
 2.5709  26.38860
 2.5696  26.17390
 2.5683  25.92400
 2.5671  26.01870
 2.5658  26.67880
 2.5645  26.48310
 2.5633  25.46810
 2.5620  26.66140
 2.5607  27.29100
 2.5595  26.39480
 2.5582  26.58390
 2.5569  26.32930
 2.5557  25.89990
 2.5544  26.61740
 2.5532  26.94250
 2.5519  26.77460
 2.5507  25.92650
 2.5494  25.93700
 2.5481  27.18320
 2.5469  27.06210
 2.5456  26.56470
 2.5444  26.95290
 2.5431  27.16480
 2.5419  27.01380
 2.5406  27.25220
 2.5394  26.67530
 2.5382  25.77670
 2.5369  25.54050
 2.5357  26.18890
 2.5344  27.28370
 2.5332  27.53400
 2.5320  26.56500
 2.5307  25.93790
 2.5295  26.04630
 2.5283  26.23720
 2.5270  26.77600
 2.5258  27.49490
 2.5246  26.63120
 2.5233  26.39450
 2.5221  27.42600
 2.5209  27.56790
 2.5197  26.67610
 2.5184  26.72600
 2.5172  26.86190
 2.5160  26.69890
 2.5148  26.96830
 2.5136  26.72100
 2.5123  27.21290
 2.5111  27.47740
 2.5099  27.61650
 2.5087  27.59370
 2.5075  26.71470
 2.5063  27.25170
 2.5051  27.57140
 2.5038  27.46020
 2.5026  27.26490
 2.5014  27.22980
 2.5002  27.22280
 2.4990  26.89300
 2.4978  26.68370
 2.4966  27.14400
 2.4954  28.28810
 2.4942  27.82420
 2.4930  26.72030
 2.4918  27.13480
 2.4906  27.46620
 2.4894  27.37620
 2.4882  26.56920
 2.4870  26.90910
 2.4858  27.32340
 2.4846  27.16530
 2.4835  27.09530
 2.4823  27.81270
 2.4811  27.97670
 2.4799  27.32300
 2.4787  26.04940
 2.4775  25.94880
 2.4764  26.90760
 2.4752  27.73810
 2.4740  27.74190
 2.4728  27.34790
 2.4716  26.92720
 2.4705  26.82610
 2.4693  27.50620
 2.4681  27.71230
 2.4669  27.33080
 2.4657  27.02760
 2.4646  26.96660
 2.4634  26.96520
 2.4622  27.43260
 2.4611  27.89830
 2.4599  28.29410
 2.4587  28.78120
 2.4576  28.62330
 2.4564  27.35730
 2.4552  27.20310
 2.4541  27.49130
 2.4529  27.73300
 2.4518  27.72330
 2.4506  28.31420
 2.4494  28.61630
 2.4483  29.01470
 2.4471  28.88170
 2.4460  27.23730
 2.4448  26.94730
 2.4437  27.63810
 2.4425  28.51440
 2.4414  28.69780
 2.4402  28.57610
 2.4391  28.63690
 2.4379  29.14820
 2.4368  28.94100
 2.4356  27.54740
 2.4345  27.46200
 2.4333  28.24870
 2.4322  28.46460
 2.4311  28.06290
 2.4299  28.23610
 2.4288  28.59020
 2.4276  28.58960
 2.4265  28.19380
 2.4254  28.64070
 2.4242  28.77760
 2.4231  28.68440
 2.4220  28.20750
 2.4209  28.52100
 2.4197  29.32300
 2.4186  29.42330
 2.4175  28.69340
 2.4163  29.00100
 2.4152  29.63680
 2.4141  29.51650
 2.4130  29.00120
 2.4118  29.64570
 2.4107  30.29940
 2.4096  29.18060
 2.4085  28.50100
 2.4074  28.64100
 2.4063  28.47870
 2.4051  29.45850
 2.4040  30.96740
 2.4029  30.61550
 2.4018  29.15450
 2.4007  29.33510
 2.3996  30.30160
 2.3985  29.68840
 2.3973  29.53090
 2.3962  30.00380
 2.3951  29.41680
 2.3940  28.11790
 2.3929  29.26020
 2.3918  30.18730
 2.3907  30.79570
 2.3896  31.40730
 2.3885  31.23850
 2.3874  31.46470
 2.3863  30.89420
 2.3852  29.16850
 2.3841  28.72980
 2.3830  29.35650
 2.3819  30.18170
 2.3808  31.15830
 2.3798  30.66310
 2.3786  29.32100
 2.3776  29.82510
 2.3765  31.23440
 2.3754  30.42460
 2.3743  29.95960
 2.3732  29.27550
 2.3721  29.91560
 2.3710  30.80250
 2.3700  31.82290
 2.3689  32.00720
 2.3678  31.16390
 2.3667  30.96790
 2.3656  31.24350
 2.3645  31.95590
 2.3635  31.34500
 2.3624  30.54560
 2.3613  30.15470
 2.3603  30.70610
 2.3592  31.12950
 2.3581  31.30350
 2.3570  31.93960
 2.3560  32.50370
 2.3549  30.96120
 2.3538  29.84110
 2.3527  29.41750
 2.3517  29.77240
 2.3506  30.63550
 2.3495  31.52080
 2.3485  31.91810
 2.3474  31.71610
 2.3464  31.35680
 2.3453  30.65710
 2.3442  31.36660
 2.3432  30.98420
 2.3421  30.34800
 2.3411  30.30090
 2.3400  30.55210
 2.3390  30.68950
 2.3379  30.74270
 2.3369  30.87070
 2.3358  30.87570
 2.3347  31.02630
 2.3337  30.99010
 2.3326  30.09300
 2.3316  30.65180
 2.3306  31.91510
 2.3295  31.81600
 2.3285  31.95340
 2.3274  33.05340
 2.3264  33.22550
 2.3253  32.14490
 2.3243  31.53090
 2.3232  31.30520
 2.3222  31.57090
 2.3212  32.21610
 2.3201  31.67480
 2.3191  31.41500
 2.3180  32.98060
 2.3170  34.34190
 2.3160  33.21180
 2.3149  32.64650
 2.3139  32.58610
 2.3129  32.20940
 2.3118  32.47930
 2.3108  31.86170
 2.3098  32.02750
 2.3088  32.85890
 2.3077  33.80300
 2.3067  34.16730
 2.3057  32.89480
 2.3047  31.97800
 2.3036  32.00900
 2.3026  32.77670
 2.3016  32.44420
 2.3006  32.28660
 2.2995  33.67420
 2.2985  34.28030
 2.2975  34.71990
 2.2965  35.03940
 2.2955  34.89240
 2.2944  33.74370
 2.2934  32.81770
 2.2924  33.58830
 2.2914  34.04400
 2.2904  33.43660
 2.2894  33.56100
 2.2884  34.25930
 2.2874  34.01850
 2.2864  34.20760
 2.2854  34.07480
 2.2843  33.89030
 2.2833  33.64220
 2.2823  34.12290
 2.2813  34.80180
 2.2803  34.72090
 2.2793  33.26490
 2.2783  33.32320
 2.2773  34.38910
 2.2763  35.79760
 2.2753  35.69370
 2.2743  33.99490
 2.2733  33.36700
 2.2723  33.97700
 2.2713  34.47270
 2.2703  34.22960
 2.2694  33.68000
 2.2684  33.42770
 2.2674  33.38970
 2.2664  34.56410
 2.2654  33.85460
 2.2644  32.86880
 2.2634  34.66470
 2.2624  34.88990
 2.2614  33.51050
 2.2605  34.78180
 2.2595  35.36570
 2.2585  35.33000
 2.2575  34.20620
 2.2565  33.43280
 2.2555  35.92080
 2.2546  36.67630
 2.2536  35.94790
 2.2526  34.48200
 2.2516  33.03510
 2.2506  34.46180
 2.2497  35.33760
 2.2487  34.16370
 2.2477  34.29900
 2.2467  36.04030
 2.2458  35.92100
 2.2448  33.98010
 2.2438  33.02960
 2.2428  33.63620
 2.2419  33.12080
 2.2409  33.55380
 2.2399  34.93690
 2.2390  34.63680
 2.2380  32.17540
 2.2370  32.62380
 2.2361  34.44740
 2.2351  36.32170
 2.2342  36.12400
 2.2332  33.49110
 2.2322  33.20210
 2.2313  33.26600
 2.2303  33.56820
 2.2294  34.13150
 2.2284  35.51670
 2.2274  33.35630
 2.2265  32.72140
 2.2255  33.56830
 2.2246  33.53370
 2.2236  33.01950
 2.2227  33.83310
 2.2217  34.23830
 2.2208  34.13880
 2.2198  33.89460
 2.2189  33.85010
 2.2179  33.36620
 2.2170  32.93520
 2.2160  33.04250
 2.2151  31.21590
 2.2141  29.49400
 2.2132  29.68120
 2.2122  28.82530
 2.2113  29.85360
 2.2103  32.34410
 2.2094  31.67220
 2.2085  29.81880
 2.2075  28.99090
 2.2066  29.01620
 2.2056  29.81190
 2.2047  29.69220
 2.2038  30.28990
 2.2028  31.76370
 2.2019  31.72020
 2.2010  30.68880
 2.2000  29.39700
 2.1991  29.70740
 2.1982  30.99220
 2.1972  31.19670
 2.1963  31.64960
 2.1954  30.28550
 2.1944  29.97790
 2.1935  30.68130
 2.1926  30.63500
 2.1917  31.22270
 2.1907  30.87900
 2.1898  32.19410
 2.1889  34.09260
 2.1880  35.77990
 2.1870  34.94080
 2.1861  32.45210
 2.1852  31.17990
 2.1843  31.71470
 2.1833  32.12840
 2.1824  31.76050
 2.1815  31.51640
 2.1806  32.14660
 2.1797  34.61940
 2.1788  35.41940
 2.1778  34.06450
 2.1769  33.79730
 2.1760  33.64330
 2.1751  34.70880
 2.1742  35.15750
 2.1733  34.53790
 2.1724  33.28180
 2.1715  32.43870
 2.1706  32.96340
 2.1696  33.89610
 2.1687  34.23700
 2.1678  35.66000
 2.1669  36.14000
 2.1660  34.76310
 2.1651  32.53200
 2.1642  31.93320
 2.1633  33.59200
 2.1624  34.35420
 2.1615  34.27810
 2.1606  33.93220
 2.1597  34.18920
 2.1588  36.09830
 2.1579  37.12690
 2.1570  36.27900
 2.1561  35.40800
 2.1552  35.03270
 2.1543  34.55890
 2.1534  33.75660
 2.1525  35.28080
 2.1517  36.04600
 2.1507  35.86430
 2.1499  33.73840
 2.1490  33.61260
 2.1481  33.72390
 2.1472  35.02700
 2.1463  37.02050
 2.1454  36.59400
 2.1445  35.11800
 2.1436  33.97920
 2.1428  33.49370
 2.1419  34.78250
 2.1410  36.18400
 2.1401  36.65870
 2.1392  36.08850
 2.1383  35.27560
 2.1375  35.85110
 2.1366  36.32630
 2.1357  36.30610
 2.1348  36.87130
 2.1339  37.69610
 2.1331  36.07540
 2.1322  35.18470
 2.1313  35.36430
 2.1304  35.68820
 2.1296  36.47790
 2.1287  35.29630
 2.1278  34.33180
 2.1269  36.68570
 2.1261  38.07950
 2.1252  37.21710
 2.1243  36.84550
 2.1235  36.06620
 2.1226  35.51100
 2.1217  35.71370
 2.1208  35.48100
 2.1200  36.37230
 2.1191  36.67810
 2.1183  36.61620
 2.1174  36.27160
 2.1165  34.60320
 2.1157  34.20680
 2.1148  35.09130
 2.1139  36.84240
 2.1131  36.63550
 2.1122  37.19220
 2.1113  37.49970
 2.1105  37.41340
 2.1096  37.11700
 2.1088  37.15720
 2.1079  35.94710
 2.1071  34.92030
 2.1062  36.62610
 2.1054  38.30660
 2.1045  37.84650
 2.1036  38.20600
 2.1028  38.18350
 2.1019  37.80450
 2.1011  35.04000
 2.1002  34.56040
 2.0994  36.86710
 2.0985  39.53580
 2.0977  37.49440
 2.0968  33.14330
 2.0960  33.41480
 2.0951  34.70230
 2.0943  35.79530
 2.0934  38.26620
 2.0926  37.36770
 2.0918  34.53280
 2.0909  34.70280
 2.0901  36.00680
 2.0892  37.28530
 2.0884  37.74270
 2.0875  37.15820
 2.0867  35.98450
 2.0859  35.54720
 2.0850  35.79590
 2.0842  36.20550
 2.0833  38.30490
 2.0825  38.08390
 2.0817  35.81420
 2.0808  35.88510
 2.0800  37.49730
 2.0792  36.41990
 2.0783  35.77970
 2.0775  34.91870
 2.0767  33.95050
 2.0759  34.79160
 2.0750  37.26700
 2.0742  36.23810
 2.0734  33.93510
 2.0725  34.26440
 2.0717  36.67780
 2.0709  38.75750
 2.0701  38.75740
 2.0692  37.67070
 2.0684  36.13740
 2.0676  36.73270
 2.0667  35.82610
 2.0659  38.28610
 2.0651  39.02530
 2.0643  39.14840
 2.0635  37.55270
 2.0626  34.37210
 2.0618  35.02370
 2.0610  36.29590
 2.0602  37.10860
 2.0594  36.80840
 2.0585  33.43350
 2.0577  31.56490
 2.0569  33.73640
 2.0561  34.33510
 2.0553  34.60160
 2.0545  34.13180
 2.0537  35.48710
 2.0528  36.57660
 2.0520  36.03550
 2.0512  36.39600
 2.0504  35.00550
 2.0496  35.99640
 2.0488  35.89800
 2.0480  35.22440
 2.0472  36.31480
 2.0464  36.36550
 2.0456  37.11570
 2.0447  37.04050
 2.0439  36.24950
 2.0431  36.96220
 2.0423  35.19270
 2.0415  33.95970
 2.0407  36.12230
 2.0399  37.96470
 2.0391  37.76720
 2.0383  36.36080
 2.0375  34.64650
 2.0367  35.00560
 2.0359  34.52410
 2.0351  33.54930
 2.0343  34.45260
 2.0335  34.96120
 2.0327  35.23700
 2.0319  36.82110
 2.0311  38.92440
 2.0303  38.50240
 2.0295  37.24220
 2.0287  35.02730
 2.0280  36.38820
 2.0272  39.60300
 2.0264  38.75080
 2.0256  36.44610
 2.0248  34.93370
 2.0240  34.15330
 2.0232  32.98160
 2.0224  33.46280
 2.0216  34.54380
 2.0208  33.60180
 2.0200  34.70970
 2.0193  36.23750
 2.0185  37.39760
 2.0177  37.54090
 2.0169  37.72200
 2.0161  37.12640
 2.0153  36.17530
 2.0146  35.60490
 2.0138  35.86480
 2.0130  36.11930
 2.0122  33.40430
 2.0114  33.93090
 2.0107  35.18370
 2.0099  34.81980
 2.0091  35.02170
 2.0083  34.12900
 2.0075  33.89150
 2.0068  33.50150
 2.0060  33.88190
 2.0052  36.49430
 2.0044  37.57570
 2.0037  36.60140
 2.0029  35.12080
 2.0021  36.14740
 2.0013  34.73230
 2.0006  32.48730
 1.9998  35.49880
