Name: Talc Mg_3Si_4O_10(OH)_2
Type: Mineral
Class: Silicates
Subclass: Phyllosilicates
Particle Size: 45-125um
Sample No.: PS-14A
Owner: JPL
Wavelength range: IR
Origin: USA, Georgia, Cherokee County, Holly Springs
Collected by Burminco
Description: 





Measurement: Hemispherical reflectance
First Column: X
Second Column: Y
X Units:  Wavelength (micrometers)
Y Units:  Reflectance (percent)
First X Value: 15.3853
Last X Value: 2.00032
Number of X Values: 2256
Additional information: ps14aa.txt
 
15.3853	8.42812
15.3397	8.49325
15.2945	8.63504
15.2495	9.0881
15.2048	9.26523
15.1603	9.51321
15.1161	10.004
15.0722	10.6151
15.0285	11.9048
14.9851	13.8836
14.9419	16.4574
14.8989	19.08
14.8563	21.1084
14.8138	22.1513
14.7716	22.1107
14.7296	21.4482
14.6879	20.5844
14.6464	19.2903
14.6052	17.311
14.5641	14.8117
14.5233	12.2462
14.4828	9.51999
14.4424	7.1269
14.4023	5.2939
14.3624	3.73831
14.3227	2.4209
14.2833	1.6378
14.244	1.17909
14.205	0.77045
14.1662	0.647025
14.1276	0.585948
14.0892	0.735227
14.051	0.742371
14.0131	0.915074
13.9753	1.34338
13.9377	1.67075
13.9004	2.033
13.8632	2.49045
13.8262	3.03522
13.7895	3.658
13.7529	4.15875
13.7165	4.51078
13.6803	4.9005
13.6443	5.44873
13.6085	5.85974
13.5729	6.18779
13.5374	6.78788
13.5022	7.25683
13.4671	7.67842
13.4322	8.14226
13.3975	8.51627
13.363	8.88257
13.3286	9.13984
13.2944	9.27801
13.2604	9.41672
13.2266	9.56773
13.193	9.78639
13.1595	10.1324
13.1262	10.357
13.093	10.5378
13.06	10.7445
13.0272	10.9369
12.9946	10.9891
12.9621	10.9559
12.9298	10.9247
12.8976	10.5565
12.8656	9.92954
12.8337	9.35278
12.8021	9.19774
12.7705	9.79547
12.7391	10.3775
12.7079	10.4947
12.6769	10.7682
12.6459	11.3323
12.6152	12.0152
12.5845	12.4696
12.5541	12.789
12.5238	13.2046
12.4936	13.4282
12.4635	13.6174
12.4337	13.8163
12.4039	14.0459
12.3743	14.3278
12.3448	14.6238
12.3155	14.956
12.2863	15.0848
12.2573	15.2049
12.2284	15.5111
12.1996	15.7547
12.171	16.0581
12.1425	16.3346
12.1141	16.4652
12.0859	16.5715
12.0578	16.7861
12.0298	16.9088
12.0019	17.0924
11.9742	17.2192
11.9466	17.3364
11.9192	17.4598
11.8918	17.5429
11.8646	17.6106
11.8375	17.4895
11.8106	17.3098
11.7837	17.2185
11.757	17.2069
11.7304	17.349
11.7039	17.3804
11.6776	17.2349
11.6513	17.1651
11.6252	17.1937
11.5992	17.153
11.5733	16.9394
11.5475	16.9129
11.5219	16.9368
11.4963	16.9147
11.4709	16.8685
11.4455	16.8417
11.4203	16.8402
11.3952	16.8671
11.3702	16.8786
11.3454	16.7964
11.3206	16.7554
11.2959	16.6864
11.2714	16.6009
11.2469	16.6823
11.2226	16.7692
11.1983	16.7264
11.1742	16.6475
11.1502	16.5804
11.1263	16.5266
11.1024	16.4476
11.0787	16.3794
11.0551	16.4325
11.0316	16.5197
11.0081	16.5067
10.9848	16.5503
10.9616	16.6735
10.9385	16.687
10.9154	16.7247
10.8925	16.8099
10.8697	16.8988
10.8469	17.0182
10.8243	17.0343
10.8017	17.0318
10.7793	17.1195
10.7569	17.2159
10.7346	17.1126
10.7125	16.9461
10.6904	16.8538
10.6684	16.7638
10.6465	16.5939
10.6247	16.5556
10.6029	16.5297
10.5813	16.5267
10.5597	16.449
10.5383	16.4045
10.5169	16.4996
10.4956	16.5222
10.4744	16.4827
10.4533	16.5269
10.4323	16.5853
10.4113	16.5985
10.3904	16.5527
10.3697	16.5147
10.349	16.5455
10.3284	16.5
10.3078	16.5995
10.2874	16.6965
10.267	16.7075
10.2467	16.696
10.2265	16.6723
10.2064	16.7391
10.1863	16.8907
10.1663	16.9524
10.1464	17.1093
10.1266	17.2953
10.1069	17.4385
10.0872	17.5662
10.0676	17.7799
10.0481	18.0599
10.0287	18.435
10.0093	19.0048
9.99005	19.7994
9.97084	20.5972
9.95169	21.5204
9.93263	22.7828
9.91364	24.475
9.89472	26.5698
9.87587	29.0695
9.8571	31.8104
9.83839	34.5655
9.81976	36.8831
9.80119	38.4238
9.78271	39.3608
9.76428	40.1323
9.74592	40.6464
9.72764	40.971
9.70943	41.2217
9.69128	41.3962
9.6732	41.5181
9.65518	41.5777
9.63724	41.4738
9.61935	41.3453
9.60155	41.1881
9.5838	40.7419
9.56611	40.0886
9.5485	39.1534
9.53094	37.6155
9.51345	35.63
9.49604	34.0514
9.47867	33.5723
9.46137	34.3602
9.44414	35.6058
9.42697	36.9157
9.40986	38.1022
9.39281	39.0861
9.37583	40.032
9.35891	40.8147
9.34204	41.4102
9.32524	41.9471
9.3085	42.4332
9.29182	42.7873
9.27519	43.0588
9.25863	43.2983
9.24213	43.5251
9.22568	43.6501
9.2093	43.6738
9.19297	43.6203
9.17669	43.5506
9.16048	43.426
9.14433	43.4196
9.12823	43.5104
9.11218	43.5216
9.0962	43.473
9.08027	43.4498
9.06439	43.3576
9.04858	43.1402
9.03281	42.8054
9.0171	42.5368
9.00145	42.1722
8.98585	41.8115
8.9703	41.2391
8.9548	40.5496
8.93937	40.0332
8.92398	39.5322
8.90865	38.9692
8.89337	38.4569
8.87814	38.0067
8.86296	37.5383
8.84784	37.0026
8.83277	36.569
8.81774	36.1379
8.80277	35.5415
8.78786	35.0321
8.77298	34.6429
8.75816	34.2209
8.7434	33.6859
8.72868	32.9499
8.714	32.0527
8.69938	31.0775
8.68481	29.9335
8.67029	28.7214
8.65581	27.5273
8.64139	26.2962
8.62701	25.1255
8.61268	24.0003
8.5984	22.8873
8.58416	21.7353
8.56997	20.7414
8.55583	19.7713
8.54174	18.8392
8.52769	17.9709
8.51368	16.9104
8.49973	15.8048
8.48582	14.8794
8.47195	13.9706
8.45813	13.084
8.44436	12.4576
8.43062	11.7915
8.41693	10.9117
8.4033	10.0989
8.3897	9.42193
8.37614	8.72773
8.36264	7.9978
8.34917	7.24439
8.33574	6.48438
8.32236	6.00961
8.30903	5.6929
8.29573	5.2011
8.28248	4.71328
8.26927	4.27605
8.2561	3.84385
8.24298	3.51226
8.2299	3.29928
8.21685	3.02956
8.20385	2.64083
8.19089	2.32823
8.17797	2.07871
8.16509	1.88239
8.15225	1.80741
8.13946	1.55479
8.1267	1.35023
8.11398	1.2571
8.10131	1.18707
8.08867	1.0425
8.07606	0.922428
8.0635	0.941444
8.05099	0.798172
8.0385	0.53482
8.02606	0.48941
8.01366	0.494152
8.00129	0.415724
7.98896	0.44086
7.97667	0.542306
7.96442	0.541301
7.9522	0.492865
7.94002	0.439531
7.92788	0.528968
7.91578	0.614466
7.90371	0.650748
7.89168	0.745458
7.87969	0.845579
7.86773	0.953436
7.85581	1.04992
7.84392	1.09699
7.83207	1.15456
7.82026	1.19787
7.80849	1.27715
7.79674	1.40977
7.78503	1.52166
7.77337	1.57578
7.76173	1.59647
7.75012	1.64606
7.73856	1.79248
7.72703	1.93673
7.71553	2.08657
7.70406	2.22772
7.69263	2.26093
7.68123	2.42917
7.66987	2.59871
7.65855	2.6053
7.64725	2.64832
7.63598	2.79935
7.62475	2.9804
7.61356	3.13665
7.60239	3.23245
7.59126	3.29619
7.58017	3.43489
7.5691	3.69939
7.55806	3.94602
7.54707	4.16186
7.5361	4.40531
7.52516	4.60968
7.51425	4.80427
7.50338	4.96819
7.49253	5.18144
7.48172	5.42386
7.47094	5.57208
7.46019	5.72882
7.44947	5.81513
7.43879	5.85003
7.42813	5.976
7.4175	6.00575
7.4069	6.12003
7.39634	6.25244
7.3858	6.38657
7.37529	6.48176
7.36482	6.67964
7.35437	6.88827
7.34396	7.1173
7.33357	7.26281
7.32321	7.36768
7.31288	7.5796
7.30258	7.85494
7.29231	8.01367
7.28207	8.12763
7.27185	8.26769
7.26167	8.3334
7.25152	8.42935
7.24139	8.55606
7.23129	8.54818
7.22122	8.48356
7.21117	8.48061
7.20116	8.54879
7.19117	8.50067
7.18121	8.58893
7.17128	8.83968
7.16137	9.01964
7.1515	9.14385
7.14164	9.32002
7.13182	9.47132
7.12203	9.62333
7.11225	9.84383
7.10251	10.0796
7.0928	10.1656
7.08311	10.2328
7.07344	10.3201
7.06381	10.4798
7.0542	10.8212
7.04461	11.1194
7.03506	11.3205
7.02552	11.5556
7.01601	11.7758
7.00653	11.9342
6.99708	12.2153
6.98765	12.4739
6.97824	12.5946
6.96886	12.8303
6.95951	13.1372
6.95018	13.3617
6.94087	13.7888
6.9316	14.2433
6.92234	14.5328
6.91311	14.8732
6.90391	15.2125
6.89473	15.4771
6.88557	15.6191
6.87644	15.775
6.86733	16.0878
6.85824	16.1883
6.84918	16.1671
6.84015	16.445
6.83114	16.8646
6.82215	17.2577
6.81319	17.6707
6.80424	18.1512
6.79532	18.8505
6.78643	19.4044
6.77756	19.6659
6.76871	19.9257
6.75989	20.203
6.75109	20.6393
6.74231	21.2017
6.73355	21.7533
6.72482	22.2459
6.71611	22.6618
6.70742	22.9752
6.69875	23.1437
6.69011	23.3844
6.68149	23.625
6.67289	23.6748
6.66431	23.7367
6.65576	23.7527
6.64722	23.8944
6.63871	23.9889
6.63022	23.6705
6.62175	23.2748
6.61331	23.1176
6.60488	22.9905
6.59648	22.8944
6.5881	22.7422
6.57974	22.6278
6.5714	22.5639
6.56308	22.4805
6.55478	22.5576
6.54651	22.6041
6.53825	22.6695
6.53001	22.9369
6.5218	23.2909
6.51361	23.4566
6.50544	23.7786
6.49729	24.5395
6.48915	25.0324
6.48104	25.2329
6.47295	25.5411
6.46488	25.7228
6.45683	25.752
6.4488	25.8104
6.44079	25.9539
6.4328	26.1133
6.42482	26.3082
6.41687	26.7289
6.40894	26.7452
6.40103	26.522
6.39314	26.6456
6.38526	26.8215
6.37741	27.0299
6.36957	27.1496
6.36176	27.0632
6.35396	27.1486
6.34618	27.3656
6.33843	27.1653
6.33069	26.9382
6.32297	26.9563
6.31527	27.0194
6.30758	27.1511
6.29992	27.3588
6.29227	27.573
6.28465	27.714
6.27704	27.9504
6.26945	28.0975
6.26188	28.0518
6.25432	27.923
6.24679	27.7557
6.23927	27.4637
6.23177	27.0687
6.22429	26.6354
6.21683	26.223
6.20938	25.8472
6.20195	25.5228
6.19454	25.3066
6.18715	25.1311
6.17978	24.5898
6.17242	24.0542
6.16508	23.7019
6.15776	23.26
6.15045	22.6413
6.14317	21.8928
6.1359	20.9824
6.12864	19.9158
6.12141	18.8246
6.11419	17.7037
6.10699	16.4017
6.0998	15.2993
6.09263	14.5729
6.08549	14.1165
6.07835	13.977
6.07123	13.9549
6.06413	13.8181
6.05705	13.9347
6.04998	14.221
6.04293	14.0595
6.0359	13.6676
6.02888	13.3796
6.02187	13.1033
6.01489	12.8153
6.00792	12.4057
6.00096	12.0327
5.99403	11.807
5.98711	11.6868
5.9802	11.6201
5.97331	11.8255
5.96644	12.2511
5.95958	12.8368
5.95274	13.7714
5.94591	14.9635
5.9391	16.3681
5.9323	17.4381
5.92552	18.1564
5.91876	18.7169
5.91201	19.0158
5.90528	19.099
5.89856	19.013
5.89186	18.4351
5.88517	17.691
5.8785	16.8365
5.87184	15.9237
5.8652	15.3536
5.85857	14.9659
5.85196	14.796
5.84536	14.9913
5.83878	15.5035
5.83221	16.274
5.82566	17.1925
5.81912	18.0014
5.81259	18.615
5.80608	19.2894
5.79959	19.789
5.79311	20.066
5.78665	20.3033
5.78019	20.4833
5.77376	20.7288
5.76734	21.0256
5.76093	20.9139
5.75453	20.787
5.74815	20.7601
5.74179	20.566
5.73543	20.3024
5.7291	20.0245
5.72277	19.8151
5.71646	19.5848
5.71017	19.2599
5.70389	18.8405
5.69762	18.4995
5.69136	18.1517
5.68513	17.7825
5.6789	17.6629
5.67268	17.7325
5.66648	17.7043
5.6603	17.7864
5.65413	18.0959
5.64797	18.5237
5.64182	18.8983
5.63569	18.996
5.62957	19.0164
5.62347	18.9564
5.61737	18.9165
5.61129	18.8109
5.60522	18.5172
5.59917	18.14
5.59313	17.7709
5.5871	17.3808
5.58109	16.9629
5.57509	16.531
5.5691	16.1032
5.56312	15.7498
5.55716	15.5068
5.55121	15.4123
5.54528	15.313
5.53935	15.1156
5.53344	14.9768
5.52754	15.011
5.52166	14.9993
5.51578	14.8536
5.50992	14.7276
5.50407	14.6113
5.49823	14.5287
5.49241	14.4796
5.4866	14.5256
5.4808	14.7368
5.47501	15.005
5.46923	15.3142
5.46347	15.7744
5.45772	16.4239
5.45198	17.1679
5.44625	17.887
5.44054	18.6699
5.43484	19.3722
5.42914	19.8586
5.42347	20.3113
5.4178	20.4439
5.41214	20.3933
5.4065	20.2633
5.40087	20.0237
5.39525	19.713
5.38964	19.4648
5.38404	19.3401
5.37846	19.2217
5.37288	19.0853
5.36732	19.0416
5.36177	19.1048
5.35623	19.2692
5.35071	19.4217
5.34519	19.5487
5.33968	19.7057
5.33419	19.9321
5.32871	20.3588
5.32324	20.914
5.31778	21.4321
5.31233	21.897
5.30689	22.1907
5.30147	22.3916
5.29605	22.5319
5.29065	22.5099
5.28525	22.4452
5.27987	22.4059
5.2745	22.2871
5.26914	22.0952
5.26379	21.8383
5.25845	21.5574
5.25312	21.1855
5.24781	20.8209
5.2425	20.4741
5.23721	20.0849
5.23192	19.691
5.22665	19.2749
5.22138	18.8968
5.21613	18.7414
5.21089	18.7258
5.20566	18.9064
5.20044	19.2791
5.19522	19.8293
5.19002	20.315
5.18483	20.8214
5.17965	21.3628
5.17448	21.763
5.16933	22.2325
5.16418	22.7003
5.15904	22.8948
5.15391	22.9851
5.14879	23.0727
5.14368	23.0818
5.13859	23.1985
5.1335	23.3619
5.12842	23.5831
5.12335	24.0111
5.1183	24.6776
5.11325	25.5178
5.10821	26.5455
5.10318	27.9278
5.09817	29.5707
5.09316	31.2762
5.08816	32.9662
5.08317	34.6923
5.07819	36.2264
5.07322	37.5007
5.06826	38.6189
5.06331	39.7118
5.05837	40.7301
5.05344	41.5678
5.04852	42.2537
5.04361	42.7701
5.03871	43.2038
5.03382	43.5177
5.02894	43.7008
5.02406	43.8563
5.0192	43.9659
5.01435	43.9867
5.0095	44.0217
5.00467	44.0026
4.99984	43.9944
4.99502	44.0961
4.99021	44.1421
4.98542	44.1218
4.98063	44.1073
4.97585	44.155
4.97108	44.0155
4.96632	43.7326
4.96156	43.3648
4.95682	42.8375
4.95209	42.2584
4.94736	41.7584
4.94264	41.4818
4.93794	41.563
4.93324	42.0644
4.92855	42.8389
4.92387	43.5895
4.9192	44.3787
4.91453	45.1549
4.90988	45.8503
4.90524	46.4953
4.9006	47.1118
4.89597	47.7515
4.89135	48.3975
4.88674	49.0238
4.88214	49.6128
4.87755	50.0846
4.87296	50.495
4.86839	50.8131
4.86382	51.0625
4.85926	51.2333
4.85471	51.2972
4.85017	51.2879
4.84564	51.2653
4.84111	51.2993
4.8366	51.3586
4.83209	51.4791
4.82759	51.6465
4.8231	51.7641
4.81862	51.8849
4.81415	52.035
4.80968	52.2258
4.80522	52.4081
4.80077	52.5937
4.79633	52.7925
4.7919	52.9812
4.78747	53.2032
4.78306	53.4736
4.77865	53.8272
4.77425	54.3609
4.76986	55.0356
4.76547	55.7574
4.7611	56.3889
4.75673	56.8747
4.75237	57.3032
4.74802	57.5572
4.74367	57.5688
4.73934	57.3553
4.73501	57.0224
4.73069	56.6431
4.72638	56.1721
4.72207	55.6947
4.71777	55.2974
4.71348	54.9649
4.7092	54.7758
4.70493	54.6973
4.70066	54.7186
4.69641	54.9661
4.69216	55.3349
4.68791	55.6766
4.68368	55.933
4.67945	56.1873
4.67523	56.2885
4.67102	56.2951
4.66682	56.2748
4.66262	56.1943
4.65843	56.0747
4.65425	56.0511
4.65007	56.1353
4.64591	56.4294
4.64175	56.9426
4.6376	57.6434
4.63345	58.5857
4.62932	59.7312
4.62519	60.8789
4.62106	62.0013
4.61695	63.1492
4.61284	64.2605
4.60874	65.1431
4.60465	65.9703
4.60056	66.7447
4.59648	67.3328
4.59241	67.8301
4.58835	68.2849
4.58429	68.6519
4.58024	68.9531
4.5762	69.2045
4.57216	69.3918
4.56814	69.5434
4.56411	69.7331
4.5601	69.9699
4.55609	70.1547
4.55209	70.2868
4.5481	70.4786
4.54411	70.6283
4.54013	70.7433
4.53616	70.7833
4.5322	70.7556
4.52824	70.7453
4.52429	70.8174
4.52034	70.7739
4.51641	70.7063
4.51247	70.6411
4.50855	70.5468
4.50463	70.4706
4.50072	70.4596
4.49682	70.4728
4.49292	70.4881
4.48903	70.5158
4.48515	70.5878
4.48127	70.5845
4.4774	70.5447
4.47354	70.5216
4.46968	70.5092
4.46584	70.4641
4.46199	70.4326
4.45815	70.4387
4.45432	70.621
4.4505	70.932
4.44668	71.2413
4.44287	71.6793
4.43907	72.2967
4.43527	72.9535
4.43148	73.5336
4.4277	74.0201
4.42392	74.4999
4.42015	74.9005
4.41638	75.1769
4.41262	75.368
4.40887	75.5978
4.40513	75.8559
4.40139	76.1678
4.39765	76.5001
4.39393	76.9004
4.39021	77.2783
4.38649	77.5642
4.38278	77.8322
4.37908	77.9976
4.37539	78.0742
4.3717	78.1798
4.36801	78.2739
4.36434	78.3115
4.36067	78.3661
4.357	78.4779
4.35335	78.5591
4.34969	78.5728
4.34605	78.54
4.34241	78.536
4.33877	78.5827
4.33514	78.6988
4.33152	78.8098
4.32791	78.781
4.3243	78.7026
4.32069	78.7218
4.3171	78.8119
4.31351	78.9014
4.30992	78.9039
4.30634	78.8727
4.30277	78.8844
4.2992	78.9206
4.29564	78.9781
4.29208	79.1111
4.28853	79.2366
4.28499	79.2668
4.28145	79.2682
4.27792	79.3381
4.27439	79.3967
4.27087	79.4637
4.26735	79.607
4.26384	79.7492
4.26034	79.7882
4.25684	79.8371
4.25335	79.9035
4.24986	79.9089
4.24638	79.9388
4.24291	79.9803
4.23944	79.9385
4.23598	79.9205
4.23252	79.9494
4.22906	79.9887
4.22562	79.9518
4.22218	79.8499
4.21874	79.8062
4.21531	79.8136
4.21189	79.781
4.20847	79.829
4.20506	79.8961
4.20165	79.8983
4.19825	79.8341
4.19485	79.8276
4.19146	79.7988
4.18807	79.7437
4.18469	79.7372
4.18132	79.7071
4.17795	79.654
4.17458	79.6619
4.17123	79.6627
4.16787	79.7015
4.16453	79.7618
4.16118	79.7538
4.15785	79.7414
4.15451	79.7571
4.15119	79.7765
4.14787	79.808
4.14455	79.824
4.14124	79.8478
4.13794	79.8894
4.13464	79.9023
4.13134	79.8443
4.12805	79.8183
4.12477	79.8301
4.12149	79.8258
4.11822	79.8389
4.11495	79.8254
4.11168	79.8302
4.10843	79.8553
4.10517	79.7557
4.10192	79.6522
4.09868	79.5722
4.09545	79.5877
4.09221	79.5461
4.08899	79.3958
4.08576	79.3357
4.08255	79.3443
4.07933	79.2965
4.07613	79.263
4.07292	79.2585
4.06973	79.285
4.06654	79.2834
4.06335	79.2796
4.06017	79.2669
4.05699	79.2306
4.05382	79.2625
4.05065	79.3525
4.04749	79.4126
4.04433	79.4476
4.04118	79.4116
4.03803	79.4415
4.03489	79.5525
4.03175	79.6281
4.02862	79.7741
4.02549	79.9305
4.02237	80.0079
4.01925	80.1901
4.01614	80.4189
4.01303	80.5726
4.00993	80.6428
4.00683	80.7681
4.00373	80.9029
4.00064	80.9888
3.99756	80.9917
3.99448	81.0425
3.9914	81.1252
3.98833	81.1696
3.98527	81.1523
3.98221	81.1183
3.97915	81.1472
3.9761	81.2081
3.97305	81.1902
3.97001	81.209
3.96697	81.2038
3.96394	81.1692
3.96091	81.1255
3.95789	81.0943
3.95487	81.1075
3.95186	81.1057
3.94885	81.0799
3.94584	81.0823
3.94284	81.0396
3.93984	81.0093
3.93685	80.9934
3.93386	80.9044
3.93088	80.8467
3.9279	80.8186
3.92493	80.7661
3.92196	80.7953
3.919	80.815
3.91604	80.7769
3.91308	80.7706
3.91013	80.7927
3.90718	80.7884
3.90424	80.78
3.9013	80.8273
3.89837	80.9165
3.89544	80.9618
3.89252	80.9895
3.8896	81.031
3.88668	81.1539
3.88377	81.2393
3.88086	81.2542
3.87796	81.3331
3.87506	81.4124
3.87217	81.4588
3.86928	81.5759
3.86639	81.6265
3.86351	81.6774
3.86064	81.8052
3.85776	81.9327
3.8549	81.9792
3.85203	82.0129
3.84917	82.0735
3.84631	82.065
3.84346	82.0956
3.84062	82.1778
3.83777	82.1997
3.83494	82.2456
3.8321	82.2542
3.82927	82.2947
3.82644	82.3541
3.82362	82.4069
3.82081	82.4888
3.81799	82.5836
3.81518	82.625
3.81238	82.6853
3.80958	82.7789
3.80678	82.9225
3.80399	83.0318
3.8012	83.1385
3.79841	83.1881
3.79563	83.2737
3.79286	83.3752
3.79008	83.4618
3.78731	83.6359
3.78455	83.8066
3.78179	83.8689
3.77903	83.9432
3.77628	83.9884
3.77353	84.0409
3.77079	84.1139
3.76805	84.2175
3.76531	84.2607
3.76258	84.2963
3.75985	84.3534
3.75713	84.413
3.7544	84.4144
3.75169	84.4717
3.74898	84.4961
3.74627	84.5114
3.74356	84.505
3.74086	84.5287
3.73816	84.5117
3.73547	84.5967
3.73278	84.5767
3.7301	84.5283
3.72741	84.5577
3.72474	84.5827
3.72206	84.537
3.71939	84.5727
3.71673	84.5802
3.71406	84.628
3.71141	84.6197
3.70875	84.6475
3.7061	84.4759
3.70345	84.1412
3.70081	84.1713
3.69817	84.4281
3.69553	84.3218
3.6929	83.5595
3.69027	80.6548
3.68765	80.5899
3.68503	83.3834
3.68241	84.1219
3.6798	84.1819
3.67719	84.1341
3.67458	84.1484
3.67198	84.0383
3.66938	83.9698
3.66678	83.8801
3.66419	83.8592
3.66161	83.8378
3.65902	83.7385
3.65644	83.6976
3.65387	83.7648
3.65129	83.7063
3.64872	83.648
3.64616	83.5331
3.64359	83.4978
3.64103	83.5644
3.63848	83.5622
3.63593	83.4842
3.63338	83.5173
3.63084	83.512
3.6283	83.5859
3.62576	83.6104
3.62322	83.685
3.62069	83.7567
3.61817	83.8014
3.61564	83.8063
3.61312	83.7751
3.61061	83.8007
3.6081	83.8541
3.60559	83.9093
3.60308	84.023
3.60058	84.0659
3.59808	84.0169
3.59558	83.9957
3.59309	84.0267
3.59061	84.0748
3.58812	84.1503
3.58564	84.1537
3.58316	84.111
3.58069	84.0577
3.57822	84.119
3.57575	84.1532
3.57328	84.1323
3.57082	84.0691
3.56836	84.042
3.56591	83.9549
3.56346	83.9378
3.56101	83.8913
3.55857	83.8301
3.55613	83.8078
3.55369	83.7264
3.55126	83.674
3.54883	83.6692
3.5464	83.669
3.54397	83.5935
3.54155	83.3958
3.53914	83.2544
3.53672	83.2076
3.53431	83.1463
3.5319	82.9815
3.5295	82.7285
3.5271	82.4624
3.5247	82.1971
3.52231	81.8225
3.51991	81.4344
3.51753	81.0273
3.51514	80.4418
3.51276	79.7694
3.51038	79.1188
3.50801	78.3996
3.50563	77.8013
3.50327	77.4716
3.5009	77.2953
3.49854	77.2489
3.49618	77.2724
3.49382	77.4312
3.49147	77.5737
3.48912	77.553
3.48677	77.5445
3.48443	77.594
3.48209	77.6961
3.47975	77.9142
3.47742	78.1677
3.47509	78.4837
3.47276	78.8512
3.47044	79.0874
3.46812	79.2801
3.4658	79.3987
3.46348	79.3715
3.46117	79.3195
3.45886	79.1824
3.45656	79.0124
3.45425	78.8263
3.45195	78.5663
3.44966	78.3036
3.44736	78.022
3.44507	77.7198
3.44279	77.3536
3.4405	76.9623
3.43822	76.5821
3.43594	76.1912
3.43367	75.7932
3.43139	75.2812
3.42912	74.6058
3.42686	73.827
3.42459	73.099
3.42233	72.6913
3.42007	72.3139
3.41782	71.9936
3.41557	71.8943
3.41332	71.8725
3.41108	71.9673
3.40883	72.2228
3.40659	72.4696
3.40435	72.6238
3.40212	72.8221
3.39989	72.9336
3.39766	72.9785
3.39544	72.9562
3.39322	72.7439
3.391	72.2909
3.38878	71.7706
3.38657	71.2664
3.38436	70.643
3.38215	70.0457
3.37994	69.5068
3.37774	69.0008
3.37554	68.4612
3.37335	67.868
3.37115	67.2108
3.36896	66.6123
3.36678	65.935
3.36459	64.8653
3.36241	63.3998
3.36023	61.7805
3.35805	60.4627
3.35588	59.889
3.35371	60.3115
3.35154	61.5345
3.34938	63.3197
3.34721	65.4488
3.34505	67.5932
3.3429	69.4028
3.34074	70.736
3.33859	71.3822
3.33644	71.3172
3.3343	70.7639
3.33215	69.7621
3.33001	68.2962
3.32788	66.6181
3.32574	64.8634
3.32361	63.2104
3.32148	61.6363
3.31936	60.2244
3.31723	58.9838
3.31511	57.9911
3.31299	57.5116
3.31088	57.4056
3.30876	57.7592
3.30665	58.8095
3.30455	60.3524
3.30244	62.3876
3.30034	64.8293
3.29824	67.3588
3.29614	69.5595
3.29405	71.2481
3.29196	72.422
3.28987	73.0358
3.28778	73.2795
3.2857	73.4129
3.28362	73.3985
3.28154	73.3929
3.27946	73.7066
3.27739	74.3296
3.27532	75.3192
3.27325	76.4213
3.27119	77.3077
3.26913	77.9208
3.26707	78.3607
3.26501	78.7047
3.26295	79.0086
3.2609	79.1317
3.25885	79.1943
3.2568	79.1827
3.25476	79.2129
3.25272	79.3174
3.25068	79.3363
3.24864	79.2498
3.24661	79.0337
3.24458	78.9021
3.24255	78.8466
3.24052	78.7801
3.2385	78.6975
3.23648	78.5465
3.23446	78.2984
3.23244	78.1831
3.23043	78.05
3.22841	77.8321
3.2264	77.6216
3.2244	77.3389
3.22239	77.124
3.22039	77.0569
3.21839	77.0564
3.2164	76.961
3.2144	76.8495
3.21241	76.7845
3.21042	76.7222
3.20844	76.6038
3.20645	76.4205
3.20447	76.1203
3.20249	75.8215
3.20051	75.5431
3.19854	75.2369
3.19657	74.9167
3.1946	74.5523
3.19263	74.1297
3.19067	73.7119
3.1887	73.1483
3.18674	72.5886
3.18479	72.349
3.18283	72.2551
3.18088	72.0832
3.17893	71.8492
3.17698	71.6204
3.17504	71.2986
3.17309	70.8751
3.17115	70.5393
3.16921	70.2618
3.16728	70.0967
3.16534	70.1112
3.16341	70.1342
3.16148	69.9074
3.15956	69.4385
3.15763	68.8002
3.15571	68.6282
3.15379	69.223
3.15187	70.0667
3.14996	70.432
3.14805	70.4244
3.14614	70.5522
3.14423	70.9978
3.14232	71.7997
3.14042	72.6358
3.13852	73.267
3.13662	73.7465
3.13472	74.2125
3.13283	74.5348
3.13094	74.6187
3.12905	74.6412
3.12716	74.6947
3.12528	74.7126
3.12339	74.6444
3.12151	74.5861
3.11964	74.387
3.11776	74.1469
3.11589	74.1198
3.11401	74.0535
3.11214	73.8926
3.11028	73.6892
3.10841	73.403
3.10655	73.2321
3.10469	73.0513
3.10283	72.7832
3.10098	72.4362
3.09912	71.882
3.09727	71.4105
3.09542	71.33
3.09358	71.483
3.09173	71.7978
3.08989	72.1422
3.08805	72.1942
3.08621	71.9301
3.08437	71.6423
3.08254	71.3664
3.08071	71.2092
3.07888	71.1909
3.07705	71.0222
3.07523	70.8643
3.0734	70.9931
3.07158	71.3596
3.06977	71.5785
3.06795	71.4549
3.06613	71.1049
3.06432	70.8067
3.06251	70.719
3.0607	70.7182
3.0589	70.7357
3.0571	70.7976
3.05529	70.6094
3.05349	70.3506
3.0517	70.2151
3.0499	70.1429
3.04811	70.1478
3.04632	70.2557
3.04453	70.3362
3.04274	70.1761
3.04096	69.7946
3.03918	69.4671
3.0374	69.257
3.03562	69.1239
3.03384	68.9967
3.03207	68.8588
3.03029	68.9289
3.02852	69.3671
3.02676	69.9279
3.02499	70.3406
3.02323	70.575
3.02146	70.7745
3.0197	70.8398
3.01795	70.8449
3.01619	70.8295
3.01444	70.866
3.01269	70.8804
3.01094	70.6431
3.00919	70.3332
3.00744	70.1986
3.0057	70.0746
3.00396	69.8327
3.00222	69.533
3.00048	69.2754
2.99875	69.2137
2.99701	69.1838
2.99528	69.0783
2.99355	68.9743
2.99183	68.8492
2.9901	68.6259
2.98838	68.5358
2.98666	68.5126
2.98494	68.3689
2.98322	68.38
2.9815	68.658
2.97979	69.0062
2.97808	69.2275
2.97637	69.1329
2.97466	69.0304
2.97295	68.9536
2.97125	68.8359
2.96955	68.6673
2.96785	68.5401
2.96615	68.4262
2.96446	68.3156
2.96276	68.1985
2.96107	68.0803
2.95938	68.0165
2.95769	67.9768
2.95601	68.0239
2.95432	68.1478
2.95264	68.1226
2.95096	67.9781
2.94928	67.8512
2.9476	67.7598
2.94593	67.6619
2.94425	67.6704
2.94258	67.6549
2.94092	67.7378
2.93925	67.8332
2.93758	67.941
2.93592	67.9584
2.93426	67.849
2.9326	67.8004
2.93094	67.8427
2.92928	67.8434
2.92763	67.761
2.92598	67.7704
2.92433	68.0275
2.92268	68.2226
2.92103	68.1734
2.91939	67.9758
2.91775	67.8461
2.9161	67.8257
2.91447	67.6319
2.91283	67.1632
2.91119	66.9444
2.90956	66.8702
2.90793	66.8337
2.9063	66.9535
2.90467	67.0762
2.90304	67.1075
2.90142	67.0486
2.89979	66.9955
2.89817	66.85
2.89656	66.6962
2.89494	66.4624
2.89332	66.4121
2.89171	66.4851
2.8901	66.5875
2.88849	66.7706
2.88688	66.8826
2.88527	66.548
2.88367	66.0801
2.88206	65.8508
2.88046	66.007
2.87886	66.3953
2.87727	66.6237
2.87567	66.6194
2.87408	66.6579
2.87248	66.7322
2.87089	66.981
2.8693	67.165
2.86772	67.1943
2.86613	67.2538
2.86455	67.377
2.86297	67.4903
2.86139	67.5465
2.85981	67.3785
2.85823	67.2397
2.85666	67.2223
2.85508	67.1839
2.85351	67.1848
2.85194	67.0195
2.85038	66.8617
2.84881	66.9516
2.84724	67.4057
2.84568	67.7745
2.84412	67.9905
2.84256	68.1562
2.841	68.1959
2.83945	68.1534
2.83789	68.063
2.83634	68.0826
2.83479	67.9686
2.83324	67.8473
2.83169	67.7881
2.83015	67.7619
2.82861	67.6509
2.82706	67.5562
2.82552	67.5954
2.82398	67.6586
2.82245	67.4555
2.82091	67.3059
2.81938	67.2998
2.81784	66.9516
2.81631	66.4686
2.81479	66.194
2.81326	65.7393
2.81173	65.0062
2.81021	64.2978
2.80869	63.7149
2.80716	63.3593
2.80565	63.1883
2.80413	63.2428
2.80261	63.3585
2.8011	63.2769
2.79959	62.9579
2.79808	62.3461
2.79657	61.4247
2.79506	60.5609
2.79355	60.0446
2.79205	59.8593
2.79055	59.9312
2.78904	60.3306
2.78754	60.7389
2.78605	61.1732
2.78455	61.7229
2.78306	62.0176
2.78156	61.8946
2.78007	62.0309
2.77858	63.0522
2.77709	63.9491
2.77561	64.3646
2.77412	64.8186
2.77264	64.9703
2.77116	65.1037
2.76968	65.455
2.7682	65.6547
2.76672	65.7279
2.76524	65.7264
2.76377	65.8752
2.7623	65.7534
2.76083	65.2698
2.75936	65.2207
2.75789	65.4731
2.75642	65.8549
2.75496	65.5726
2.7535	64.2152
2.75203	63.3073
2.75057	62.8551
2.74912	62.6214
2.74766	61.3087
2.7462	55.5098
2.74475	49.1653
2.7433	52.5471
2.74185	57.0625
2.7404	56.8514
2.73895	54.6133
2.7375	51.7809
2.73606	48.2961
2.73462	41.7677
2.73318	31.2397
2.73174	23.8925
2.7303	28.0801
2.72886	35.8416
2.72742	38.8739
2.72599	37.0842
2.72456	32.9528
2.72313	27.0844
2.7217	20.0429
2.72027	13.2492
2.71884	13.9548
2.71742	23.1186
2.71599	32.4664
2.71457	39.4572
2.71315	45.0482
2.71173	49.9012
2.71032	54.3652
2.7089	57.9988
2.70748	60.6436
2.70607	62.8865
2.70466	65.0661
2.70325	66.9886
2.70184	68.5071
2.70043	69.5708
2.69903	70.4746
2.69762	71.4274
2.69622	72.2227
2.69482	73.2352
2.69342	74.0321
2.69202	74.0082
2.69062	74.481
2.68923	75.7662
2.68783	76.8833
2.68644	77.5254
2.68505	77.9679
2.68366	78.6019
2.68227	79.0967
2.68089	79.4647
2.6795	79.8351
2.67812	80.1578
2.67673	81.1495
2.67535	82.169
2.67397	82.72
2.6726	83.3003
2.67122	84.2904
2.66984	84.5791
2.66847	84.3174
2.6671	84.9089
2.66572	85.2446
2.66435	84.923
2.66299	84.3747
2.66162	84.2947
2.66025	84.2339
2.65889	83.964
2.65753	83.4936
2.65616	83.1902
2.65481	82.9452
2.65345	82.9541
2.65209	82.8864
2.65073	82.4535
2.64938	81.9171
2.64803	81.5959
2.64667	81.576
2.64532	81.487
2.64397	81.2067
2.64263	81.2129
2.64128	81.3148
2.63994	81.4373
2.63859	81.5316
2.63725	81.4938
2.63591	81.4594
2.63457	81.6852
2.63323	81.6677
2.6319	81.7232
2.63056	81.9911
2.62923	81.6472
2.62789	81.3755
2.62656	81.4063
2.62523	80.9612
2.6239	80.5602
2.62258	80.3055
2.62125	80.4229
2.61993	80.4318
2.6186	80.0322
2.61728	80.2318
2.61596	80.3802
2.61464	80.2969
2.61332	80.4606
2.61201	80.5649
2.61069	80.5535
2.60938	80.3253
2.60807	79.9541
2.60675	79.6367
2.60544	78.8178
2.60414	77.7602
2.60283	77.445
2.60152	77.5474
2.60022	77.5468
2.59891	77.019
2.59761	76.6285
2.59631	77.1571
2.59501	78.3112
2.59371	78.0597
2.59242	77.1398
2.59112	76.5849
2.58983	76.2273
2.58853	75.9812
2.58724	75.821
2.58595	75.2419
2.58466	74.8878
2.58338	74.5155
2.58209	74.0919
2.5808	73.8903
2.57952	73.2473
2.57824	72.4261
2.57695	71.8543
2.57567	72.0704
2.5744	73.3576
2.57312	74.3923
2.57184	74.0339
2.57057	73.4635
2.56929	73.0392
2.56802	72.8361
2.56675	72.914
2.56548	73.338
2.56421	74.0444
2.56294	74.5222
2.56168	74.5643
2.56041	74.205
2.55915	73.7199
2.55789	73.3223
2.55662	73.0507
2.55536	72.8452
2.5541	72.981
2.55285	73.4232
2.55159	74.04
2.55034	74.6714
2.54908	75.1544
2.54783	75.615
2.54658	75.9304
2.54533	75.8906
2.54408	75.4974
2.54283	74.9093
2.54159	74.2588
2.54034	73.5498
2.5391	73.0711
2.53785	73.0575
2.53661	73.1517
2.53537	73.0801
2.53413	72.9634
2.53289	72.7107
2.53166	72.309
2.53042	71.667
2.52919	71.1408
2.52795	71.2349
2.52672	71.8749
2.52549	72.4904
2.52426	72.7416
2.52303	72.5903
2.52181	72.3318
2.52058	72.0645
2.51936	71.6289
2.51813	71.228
2.51691	70.892
2.51569	70.7453
2.51447	70.8287
2.51325	71.2054
2.51203	71.9709
2.51082	72.8639
2.5096	73.5401
2.50839	73.8482
2.50717	74.0888
2.50596	74.2825
2.50475	74.1432
2.50354	73.3605
2.50233	72.1676
2.50113	71.0917
2.49992	70.6357
2.49872	70.7749
2.49751	70.9459
2.49631	70.8669
2.49511	70.8845
2.49391	71.513
2.49271	72.3698
2.49151	73.2332
2.49031	73.7844
2.48912	74.1169
2.48792	74.5185
2.48673	74.6871
2.48554	74.5408
2.48435	74.4393
2.48316	74.5926
2.48197	75.0849
2.48078	75.4564
2.4796	75.1451
2.47841	74.2472
2.47723	72.9618
2.47604	71.6814
2.47486	70.5873
2.47368	69.5269
2.4725	68.3908
2.47132	67.2846
2.47014	66.0885
2.46897	64.6686
2.46779	63.7253
2.46662	63.5492
2.46545	63.6809
2.46427	63.803
2.4631	63.7412
2.46193	64.0227
2.46077	65.135
2.4596	66.7416
2.45843	67.77
2.45727	67.8501
2.4561	67.5954
2.45494	67.6844
2.45378	68.1957
2.45262	68.9212
2.45146	69.4298
2.4503	69.6405
2.44914	69.765
2.44799	69.8398
2.44683	69.8944
2.44568	70.2161
2.44452	70.7372
2.44337	71.1503
2.44222	70.9333
2.44107	70.2316
2.43992	69.6959
2.43877	69.7143
2.43763	69.9968
2.43648	69.799
2.43534	69.3432
2.43419	69.3978
2.43305	70.386
2.43191	71.6815
2.43077	72.0679
2.42963	71.3336
2.42849	69.8484
2.42736	68.3719
2.42622	67.7861
2.42509	68.5285
2.42395	70.2444
2.42282	72.0139
2.42169	73.119
2.42056	73.8302
2.41943	74.4398
2.4183	74.9785
2.41717	75.2636
2.41605	75.5097
2.41492	75.6497
2.4138	75.5079
2.41267	75.5193
2.41155	75.9055
2.41043	76.0384
2.40931	75.8181
2.40819	75.4471
2.40707	74.8717
2.40595	74.0046
2.40484	72.9938
2.40372	71.7671
2.40261	70.3406
2.4015	68.6358
2.40039	66.4011
2.39928	63.7709
2.39817	61.2688
2.39706	59.3739
2.39595	58.6004
2.39484	58.3066
2.39374	57.331
2.39263	55.7303
2.39153	54.7988
2.39043	55.4757
2.38932	56.9026
2.38822	57.7725
2.38712	57.8821
2.38603	57.7439
2.38493	57.789
2.38383	58.1725
2.38274	58.6563
2.38164	59.1502
2.38055	59.8205
2.37946	60.6893
2.37836	61.5287
2.37727	62.0878
2.37618	62.3129
2.3751	62.8049
2.37401	63.9566
2.37292	65.6458
2.37184	67.1275
2.37075	68.2563
2.36967	69.1885
2.36859	70.0743
2.3675	71.0619
2.36642	72.0212
2.36534	72.8211
2.36427	73.5463
2.36319	74.1263
2.36211	74.5537
2.36104	74.6228
2.35996	74.4278
2.35889	74.1232
2.35781	73.9172
2.35674	73.8354
2.35567	73.8747
2.3546	74.1074
2.35353	74.5023
2.35247	75.1565
2.3514	75.9033
2.35033	76.7641
2.34927	77.437
2.3482	77.9509
2.34714	78.4757
2.34608	78.9462
2.34502	79.2306
2.34396	79.456
2.3429	79.7074
2.34184	79.7058
2.34078	79.49
2.33973	79.1517
2.33867	78.607
2.33762	77.9142
2.33656	77.0193
2.33551	75.8427
2.33446	74.6111
2.33341	73.4368
2.33236	72.1695
2.33131	70.6597
2.33026	68.8523
2.32922	66.5601
2.32817	63.5492
2.32712	60.2557
2.32608	57.3251
2.32504	55.0767
2.324	53.7861
2.32295	53.217
2.32191	52.8926
2.32087	52.4718
2.31984	51.5395
2.3188	49.6819
2.31776	46.6779
2.31673	43.0956
2.31569	39.6753
2.31466	37.2166
2.31362	35.9509
2.31259	35.6665
2.31156	36.0934
2.31053	37.2084
2.3095	38.7115
2.30847	40.4633
2.30745	42.3846
2.30642	44.2404
2.3054	46.3634
2.30437	48.4617
2.30335	50.2117
2.30232	52.0119
2.3013	53.7691
2.30028	55.206
2.29926	56.5066
2.29824	57.6917
2.29722	58.5814
2.29621	58.4589
2.29519	57.0721
2.29417	54.4293
2.29316	51.3313
2.29215	48.524
2.29113	46.4731
2.29012	45.7204
2.28911	46.4106
2.2881	47.9607
2.28709	49.8573
2.28608	52.3946
2.28507	55.2106
2.28407	57.7969
2.28306	59.9215
2.28206	61.7081
2.28105	63.42
2.28005	65.1067
2.27905	66.4203
2.27805	67.4608
2.27705	68.7311
2.27605	69.9513
2.27505	70.987
2.27405	72.104
2.27305	73.0448
2.27206	73.9169
2.27106	74.6452
2.27007	75.3994
2.26907	76.2318
2.26808	77.0451
2.26709	77.6335
2.2661	78.2331
2.26511	78.9739
2.26412	79.5779
2.26313	80.0826
2.26214	80.609
2.26116	81.1722
2.26017	81.6875
2.25919	82.1111
2.2582	82.5662
2.25722	83.1136
2.25624	83.5224
2.25526	83.938
2.25428	84.4414
2.2533	84.7826
2.25232	85.2039
2.25134	85.6247
2.25036	86.0256
2.24939	86.3633
2.24841	86.5478
2.24744	86.689
2.24646	86.8321
2.24549	87.0138
2.24452	87.1297
2.24355	87.119
2.24257	87.0318
2.24161	86.9207
2.24064	86.8844
2.23967	86.6204
2.2387	86.119
2.23774	85.6442
2.23677	85.1632
2.23581	84.5078
2.23484	83.6801
2.23388	82.9533
2.23292	82.2942
2.23196	82.0175
2.231	81.9716
2.23004	82.3145
2.22908	82.8099
2.22812	83.0173
2.22716	83.2248
2.22621	83.7426
2.22525	84.8152
2.2243	86.057
2.22334	87.0779
2.22239	87.8498
2.22144	88.299
2.22049	88.4749
2.21953	88.4053
2.21859	88.4959
2.21764	88.704
2.21669	88.7896
2.21574	88.7535
2.21479	88.7578
2.21385	88.8504
2.2129	88.9021
2.21196	88.8838
2.21102	88.7484
2.21007	88.7202
2.20913	88.7224
2.20819	88.8277
2.20725	88.8562
2.20631	88.7799
2.20537	88.7372
2.20444	88.6459
2.2035	88.6032
2.20256	88.5922
2.20163	88.6048
2.20069	88.734
2.19976	88.7407
2.19883	88.7351
2.19789	88.7168
2.19696	88.7271
2.19603	88.8111
2.1951	88.726
2.19417	88.5931
2.19325	88.5965
2.19232	88.5661
2.19139	88.4104
2.19047	88.2925
2.18954	88.2594
2.18862	88.2383
2.18769	88.179
2.18677	88.1318
2.18585	88.11
2.18493	87.9281
2.18401	87.6365
2.18309	87.3884
2.18217	87.0514
2.18125	86.7604
2.18033	86.5821
2.17942	86.4258
2.1785	86.2834
2.17759	86.1892
2.17667	86.2867
2.17576	86.187
2.17485	85.8932
2.17393	85.687
2.17302	85.7346
2.17211	85.7681
2.1712	85.7842
2.17029	85.8376
2.16939	86.1139
2.16848	86.4584
2.16757	86.6584
2.16667	86.796
2.16576	86.8121
2.16486	86.848
2.16395	86.9677
2.16305	87.121
2.16215	87.1526
2.16125	87.1266
2.16035	87.2229
2.15945	87.3444
2.15855	87.3339
2.15765	87.2508
2.15675	87.1377
2.15586	87.1252
2.15496	87.3081
2.15406	87.5037
2.15317	87.4138
2.15228	87.4033
2.15138	87.3812
2.15049	87.1842
2.1496	87.031
2.14871	87.0513
2.14782	86.8338
2.14693	86.3644
2.14604	86.1863
2.14515	86.1927
2.14427	85.9322
2.14338	85.7558
2.14249	85.7675
2.14161	85.9134
2.14072	85.8403
2.13984	85.6323
2.13896	85.4733
2.13808	85.4879
2.13719	85.6809
2.13631	85.4942
2.13543	85.4168
2.13455	85.5021
2.13368	85.3955
2.1328	85.269
2.13192	85.292
2.13105	85.2815
2.13017	85.1396
2.1293	85.0967
2.12842	85.0647
2.12755	84.8614
2.12668	84.9656
2.1258	85.4829
2.12493	85.7864
2.12406	86.0766
2.12319	86.545
2.12232	86.9089
2.12145	87.1088
2.12059	87.3786
2.11972	87.2669
2.11885	86.978
2.11799	86.7667
2.11712	86.3001
2.11626	85.8004
2.1154	85.6663
2.11453	86.0008
2.11367	86.7189
2.11281	87.3095
2.11195	87.5417
2.11109	87.6648
2.11023	87.6428
2.10937	87.7293
2.10851	87.8164
2.10766	87.952
2.1068	87.8306
2.10594	87.5595
2.10509	87.4755
2.10423	87.7247
2.10338	87.8583
2.10253	87.8177
2.10168	87.6968
2.10082	87.6721
2.09997	87.5883
2.09912	87.4979
2.09827	87.4622
2.09742	87.5131
2.09658	87.5638
2.09573	87.3804
2.09488	87.228
2.09404	87.2628
2.09319	87.1398
2.09235	86.8539
2.0915	86.6315
2.09066	86.7745
2.08982	86.7816
2.08897	86.6053
2.08813	86.7318
2.08729	86.763
2.08645	86.542
2.08561	86.5336
2.08477	86.5893
2.08394	86.588
2.0831	86.4419
2.08226	86.015
2.08143	85.5494
2.08059	85.2455
2.07976	84.9983
2.07892	84.677
2.07809	84.3664
2.07726	84.086
2.07643	84.4919
2.07559	85.2256
2.07476	85.881
2.07393	86.4435
2.0731	86.7465
2.07228	87.0695
2.07145	87.4686
2.07062	87.9691
2.06979	88.4507
2.06897	88.8681
2.06814	89.215
2.06732	89.1155
2.06649	89.1806
2.06567	89.2731
2.06485	89.1592
2.06403	89.0939
2.0632	89.2314
2.06238	89.525
2.06156	89.697
2.06074	89.6237
2.05993	89.6862
2.05911	89.819
2.05829	89.8604
2.05747	89.9857
2.05666	89.9928
2.05584	89.8036
2.05503	89.8938
2.05421	90.1733
2.0534	90.2334
2.05259	90.1142
2.05177	90.0824
2.05096	90.0293
2.05015	90.1087
2.04934	90.2949
2.04853	90.2673
2.04772	90.3572
2.04691	90.5334
2.04611	90.5526
2.0453	90.4536
2.04449	90.4641
2.04369	90.5123
2.04288	90.4745
2.04208	90.7155
2.04127	90.9994
2.04047	90.8501
2.03967	90.686
2.03886	90.7334
2.03806	90.8875
2.03726	90.9279
2.03646	90.9074
2.03566	91.0214
2.03486	91.0986
2.03407	90.9412
2.03327	91.0627
2.03247	91.4707
2.03167	91.4567
2.03088	91.147
2.03008	90.9755
2.02929	90.9962
2.0285	91.0994
2.0277	91.1895
2.02691	91.0128
2.02612	90.9406
2.02533	90.9162
2.02453	90.9183
2.02374	90.8665
2.02295	90.7623
2.02217	90.6543
2.02138	90.4492
2.02059	90.2316
2.0198	90.1955
2.01902	90.2288
2.01823	90.202
2.01744	90.01
2.01666	89.8867
2.01588	89.8794
2.01509	89.9546
2.01431	89.9038
2.01353	89.856
2.01275	89.8034
2.01196	89.8283
2.01118	90.024
2.0104	90.1252
2.00963	90.0613
2.00885	90.3007
2.00807	90.5396
2.00729	90.5375
2.00651	90.66
2.00574	90.7244
2.00496	90.7063
2.00419	90.7973
2.00341	91.0215
2.00264	90.9893
2.00187	90.8292
2.00109	90.7439
2.00032	90.7085
