Name: Labradorite (Feldspar) (NaSi,CaAl)AlSi_2O_8
Type: Mineral
Class: Silicates
Subclass: Tectosilicates
Particle Size: 45-125um
Sample No.: TS-2A
Owner: JPL
Wavelength range: IR
Origin: Mexico, Sonora, Pinacate
Collected by Burminco
Description:   





Measurement: Hemispherical reflectance
First Column: X
Second Column: Y
X Units:  Wavelength (micrometers)
Y Units:  Reflectance (percent)
First X Value: 15.3853
Last X Value: 2.00032
Number of X Values: 2256
Additional information: ts02aa.txt
 
15.3853	3.39283
15.3397	2.79275
15.2945	2.54143
15.2495	2.16698
15.2048	1.75072
15.1603	2.0365
15.1161	2.3007
15.0722	2.15396
15.0285	2.08238
14.9851	2.24652
14.9419	2.42837
14.8989	2.54862
14.8563	2.7517
14.8138	2.65373
14.7716	2.38046
14.7296	2.36428
14.6879	2.43795
14.6464	2.50805
14.6052	2.62661
14.5641	2.5577
14.5233	2.45989
14.4828	2.40625
14.4424	2.39081
14.4023	2.43253
14.3624	2.57129
14.3227	2.74092
14.2833	2.811
14.244	2.73408
14.205	2.903
14.1662	2.69415
14.1276	2.45819
14.0892	2.71357
14.051	2.86101
14.0131	2.88657
13.9753	2.8738
13.9377	2.84575
13.9004	2.89368
13.8632	2.87235
13.8262	2.87176
13.7895	3.04014
13.7529	3.18672
13.7165	3.09166
13.6803	2.99273
13.6443	3.05646
13.6085	3.16731
13.5729	3.36843
13.5374	3.32392
13.5022	3.21459
13.4671	3.1156
13.4322	2.94327
13.3975	2.98837
13.363	3.14141
13.3286	3.08889
13.2944	2.90559
13.2604	2.84345
13.2266	2.97846
13.193	3.1017
13.1595	3.09161
13.1262	3.19476
13.093	3.18042
13.06	3.24562
13.0272	3.2282
12.9946	3.1507
12.9621	2.96454
12.9298	2.96483
12.8976	2.87823
12.8656	3.00489
12.8337	3.19201
12.8021	2.9592
12.7705	2.76314
12.7391	2.78243
12.7079	2.83081
12.6769	2.82301
12.6459	2.8084
12.6152	2.76983
12.5845	2.96077
12.5541	3.16587
12.5238	3.10075
12.4936	3.164
12.4635	3.22537
12.4337	3.35612
12.4039	3.51911
12.3743	3.56786
12.3448	3.65018
12.3155	4.02636
12.2863	4.29319
12.2573	4.3715
12.2284	4.4693
12.1996	4.46385
12.171	4.43109
12.1425	4.63821
12.1141	4.91532
12.0859	4.79491
12.0578	4.67659
12.0298	4.75486
12.0019	4.82923
11.9742	4.96065
11.9466	5.11211
11.9192	5.14459
11.8918	5.09383
11.8646	5.14675
11.8375	5.29199
11.8106	5.29548
11.7837	5.36817
11.757	5.38914
11.7304	5.31149
11.7039	5.48543
11.6776	5.6075
11.6513	5.53003
11.6252	5.39562
11.5992	5.4641
11.5733	5.72172
11.5475	5.70023
11.5219	5.60277
11.4963	5.74431
11.4709	6.0481
11.4455	6.25691
11.4203	6.32654
11.3952	6.41855
11.3702	6.56037
11.3454	6.74743
11.3206	6.95987
11.2959	7.18548
11.2714	7.39158
11.2469	7.5807
11.2226	7.81669
11.1983	8.05622
11.1742	8.10781
11.1502	8.26784
11.1263	8.57587
11.1024	8.90297
11.0787	9.06828
11.0551	9.18888
11.0316	9.38883
11.0081	9.52207
10.9848	9.69525
10.9616	9.91676
10.9385	10.2371
10.9154	10.4506
10.8925	10.5709
10.8697	10.6888
10.8469	10.7635
10.8243	10.9066
10.8017	10.9574
10.7793	10.966
10.7569	11.1549
10.7346	11.4695
10.7125	11.4948
10.6904	11.4408
10.6684	11.5301
10.6465	11.6083
10.6247	11.6709
10.6029	11.7175
10.5813	11.7954
10.5597	11.7865
10.5383	11.8234
10.5169	11.848
10.4956	11.8145
10.4744	11.7703
10.4533	11.8009
10.4323	11.7128
10.4113	11.5852
10.3904	11.5406
10.3697	11.4506
10.349	11.3184
10.3284	11.3084
10.3078	11.3119
10.2874	11.2807
10.267	11.2702
10.2467	11.246
10.2265	11.2162
10.2064	11.1859
10.1863	11.3354
10.1663	11.41
10.1464	11.4054
10.1266	11.4032
10.1069	11.3148
10.0872	11.2562
10.0676	11.2608
10.0481	11.3038
10.0287	11.3655
10.0093	11.2691
9.99005	11.2164
9.97084	11.147
9.95169	11.0559
9.93263	10.858
9.91364	10.7331
9.89472	10.6604
9.87587	10.6084
9.8571	10.4897
9.83839	10.2839
9.81976	10.2258
9.80119	10.0435
9.78271	9.90757
9.76428	9.84199
9.74592	9.61437
9.72764	9.38596
9.70943	9.31834
9.69128	9.15723
9.6732	8.85271
9.65518	8.71575
9.63724	8.77956
9.61935	8.68831
9.60155	8.49982
9.5838	8.2995
9.56611	8.15866
9.5485	8.08506
9.53094	7.94342
9.51345	7.84162
9.49604	7.7646
9.47867	7.64776
9.46137	7.52173
9.44414	7.33964
9.42697	7.27154
9.40986	7.27514
9.39281	7.13044
9.37583	6.96786
9.35891	6.84429
9.34204	6.83544
9.32524	6.88562
9.3085	6.87258
9.29182	6.83431
9.27519	6.74517
9.25863	6.64402
9.24213	6.67551
9.22568	6.75826
9.2093	6.74112
9.19297	6.65318
9.17669	6.85814
9.16048	7.08383
9.14433	7.17316
9.12823	7.35755
9.11218	7.32963
9.0962	7.2661
9.08027	7.38557
9.06439	7.59375
9.04858	7.79501
9.03281	7.88333
9.0171	7.96304
9.00145	8.10019
8.98585	8.2099
8.9703	8.25879
8.9548	8.45734
8.93937	8.5792
8.92398	8.63982
8.90865	8.70528
8.89337	8.61863
8.87814	8.65091
8.86296	8.63728
8.84784	8.5728
8.83277	8.62572
8.81774	8.57632
8.80277	8.54927
8.78786	8.63599
8.77298	8.60257
8.75816	8.56284
8.7434	8.40307
8.72868	8.20331
8.714	8.08452
8.69938	8.13401
8.68481	8.18618
8.67029	8.10753
8.65581	8.03208
8.64139	7.95908
8.62701	7.90422
8.61268	7.8279
8.5984	7.73433
8.58416	7.51586
8.56997	7.40813
8.55583	7.49701
8.54174	7.47393
8.52769	7.41006
8.51368	7.44701
8.49973	7.31934
8.48582	7.11616
8.47195	7.03285
8.45813	7.05253
8.44436	6.89139
8.43062	6.73806
8.41693	6.50049
8.4033	6.24526
8.3897	6.10906
8.37614	6.05359
8.36264	5.75329
8.34917	5.30226
8.33574	4.98786
8.32236	4.65187
8.30903	4.15765
8.29573	3.69406
8.28248	3.2625
8.26927	2.86795
8.2561	2.43596
8.24298	2.00606
8.2299	1.80259
8.21685	1.66203
8.20385	1.43745
8.19089	1.15333
8.17797	0.909628
8.16509	0.604115
8.15225	0.40935
8.13946	0.379817
8.1267	0.326938
8.11398	0.291819
8.10131	0.173395
8.08867	0.177719
8.07606	0.191093
8.0635	0.10541
8.05099	0.0764351
8.0385	0.136213
8.02606	0.178513
8.01366	0.140837
8.00129	0.0780024
7.98896	0.05485
7.97667	0.114559
7.96442	0.152221
7.9522	0.191032
7.94002	0.125917
7.92788	0.0425697
7.91578	0.10298
7.90371	0.210466
7.89168	0.278489
7.87969	0.259573
7.86773	0.257765
7.85581	0.310274
7.84392	0.298844
7.83207	0.285819
7.82026	0.309725
7.80849	0.401405
7.79674	0.3677
7.78503	0.316366
7.77337	0.368854
7.76173	0.387661
7.75012	0.40211
7.73856	0.478153
7.72703	0.50851
7.71553	0.577374
7.70406	0.631643
7.69263	0.604878
7.68123	0.549418
7.66987	0.581339
7.65855	0.631914
7.64725	0.702818
7.63598	0.770521
7.62475	0.848114
7.61356	0.914323
7.60239	0.878917
7.59126	0.820679
7.58017	0.938847
7.5691	1.0708
7.55806	1.06282
7.54707	1.08084
7.5361	1.1036
7.52516	1.13652
7.51425	1.20576
7.50338	1.21868
7.49253	1.21237
7.48172	1.3221
7.47094	1.41938
7.46019	1.46871
7.44947	1.54092
7.43879	1.54411
7.42813	1.54552
7.4175	1.58905
7.4069	1.60985
7.39634	1.6499
7.3858	1.81626
7.37529	1.92761
7.36482	1.96276
7.35437	1.9211
7.34396	1.93568
7.33357	2.02573
7.32321	2.09503
7.31288	2.11535
7.30258	2.14196
7.29231	2.20366
7.28207	2.25104
7.27185	2.29357
7.26167	2.40267
7.25152	2.50418
7.24139	2.54348
7.23129	2.50755
7.22122	2.51883
7.21117	2.64914
7.20116	2.77449
7.19117	2.81628
7.18121	2.83367
7.17128	2.85706
7.16137	2.89619
7.1515	2.93911
7.14164	2.91951
7.13182	3.01322
7.12203	3.03627
7.11225	3.0197
7.10251	3.08873
7.0928	3.22754
7.08311	3.41046
7.07344	3.38303
7.06381	3.29699
7.0542	3.34594
7.04461	3.46819
7.03506	3.46972
7.02552	3.44444
7.01601	3.50384
7.00653	3.5623
6.99708	3.62472
6.98765	3.65739
6.97824	3.68959
6.96886	3.74926
6.95951	3.86991
6.95018	3.88613
6.94087	3.85938
6.9316	3.85912
6.92234	3.9367
6.91311	4.00501
6.90391	3.99395
6.89473	4.0131
6.88557	4.0671
6.87644	4.16839
6.86733	4.28457
6.85824	4.28036
6.84918	4.18968
6.84015	4.15287
6.83114	4.16028
6.82215	4.19944
6.81319	4.26289
6.80424	4.33398
6.79532	4.35614
6.78643	4.41118
6.77756	4.46383
6.76871	4.48874
6.75989	4.43474
6.75109	4.44865
6.74231	4.45018
6.73355	4.42573
6.72482	4.41841
6.71611	4.43943
6.70742	4.46295
6.69875	4.50117
6.69011	4.54909
6.68149	4.6289
6.67289	4.58249
6.66431	4.51574
6.65576	4.51142
6.64722	4.66824
6.63871	4.91877
6.63022	4.86894
6.62175	4.71325
6.61331	4.65443
6.60488	4.63994
6.59648	4.70594
6.5881	4.73169
6.57974	4.85994
6.5714	5.03625
6.56308	4.91714
6.55478	4.79676
6.54651	4.77543
6.53825	4.77875
6.53001	4.84651
6.5218	4.92594
6.51361	4.9017
6.50544	4.96402
6.49729	5.0971
6.48915	4.98901
6.48104	4.92773
6.47295	4.93623
6.46488	4.97093
6.45683	4.97906
6.4488	4.9684
6.44079	5.01487
6.4328	5.08611
6.42482	5.11801
6.41687	5.1997
6.40894	5.18245
6.40103	5.10178
6.39314	5.06022
6.38526	5.04077
6.37741	4.95224
6.36957	4.90695
6.36176	4.8403
6.35396	4.91093
6.34618	5.11537
6.33843	5.14305
6.33069	5.00121
6.32297	4.8841
6.31527	4.87983
6.30758	4.99787
6.29992	5.08498
6.29227	5.08821
6.28465	5.08554
6.27704	5.03182
6.26945	4.98955
6.26188	5.04156
6.25432	5.08816
6.24679	5.00274
6.23927	4.99818
6.23177	5.08736
6.22429	5.02579
6.21683	5.03873
6.20938	5.11442
6.20195	5.11133
6.19454	5.17482
6.18715	5.32096
6.17978	5.24634
6.17242	5.19272
6.16508	5.25976
6.15776	5.26163
6.15045	5.19424
6.14317	5.21824
6.1359	5.24345
6.12864	5.21298
6.12141	5.28116
6.11419	5.40747
6.10699	5.4363
6.0998	5.42666
6.09263	5.33465
6.08549	5.34629
6.07835	5.53432
6.07123	5.57971
6.06413	5.53141
6.05705	5.62042
6.04998	5.79633
6.04293	5.70193
6.0359	5.57999
6.02888	5.52827
6.02187	5.54551
6.01489	5.63178
6.00792	5.66256
6.00096	5.64517
5.99403	5.748
5.98711	5.70683
5.9802	5.63344
5.97331	5.75019
5.96644	5.77045
5.95958	5.74888
5.95274	5.82746
5.94591	5.89759
5.9391	6.14227
5.9323	6.18098
5.92552	6.01498
5.91876	6.05294
5.91201	6.07222
5.90528	6.13635
5.89856	6.36274
5.89186	6.42479
5.88517	6.50834
5.8785	6.5464
5.87184	6.41338
5.8652	6.40036
5.85857	6.49149
5.85196	6.63609
5.84536	6.72268
5.83878	6.84152
5.83221	6.94038
5.82566	7.05881
5.81912	7.1266
5.81259	7.09698
5.80608	7.09559
5.79959	7.1068
5.79311	7.11858
5.78665	7.17264
5.78019	7.3124
5.77376	7.52199
5.76734	7.68059
5.76093	7.53867
5.75453	7.52342
5.74815	7.70064
5.74179	7.69828
5.73543	7.68611
5.7291	7.77053
5.72277	7.82817
5.71646	7.92297
5.71017	8.0589
5.70389	8.054
5.69762	8.0002
5.69136	8.06523
5.68513	8.14208
5.6789	8.21208
5.67268	8.29745
5.66648	8.3335
5.6603	8.34543
5.65413	8.45104
5.64797	8.56602
5.64182	8.59899
5.63569	8.6473
5.62957	8.6277
5.62347	8.636
5.61737	8.72635
5.61129	8.76737
5.60522	8.84917
5.59917	8.93888
5.59313	8.98608
5.5871	9.04739
5.58109	9.21049
5.57509	9.27524
5.5691	9.25868
5.56312	9.30087
5.55716	9.36067
5.55121	9.42342
5.54528	9.51776
5.53935	9.59451
5.53344	9.62164
5.52754	9.69981
5.52166	9.8094
5.51578	9.87839
5.50992	9.87508
5.50407	9.94935
5.49823	9.99281
5.49241	10.06
5.4866	10.1612
5.4808	10.2334
5.47501	10.286
5.46923	10.4477
5.46347	10.5379
5.45772	10.5561
5.45198	10.6167
5.44625	10.6729
5.44054	10.7202
5.43484	10.7803
5.42914	10.9436
5.42347	11.1244
5.4178	11.173
5.41214	11.2021
5.4065	11.315
5.40087	11.4203
5.39525	11.5355
5.38964	11.6237
5.38404	11.6715
5.37846	11.7532
5.37288	11.8495
5.36732	11.9425
5.36177	12.095
5.35623	12.2771
5.35071	12.485
5.34519	12.5142
5.33968	12.542
5.33419	12.6725
5.32871	12.814
5.32324	12.9204
5.31778	13.0263
5.31233	13.1145
5.30689	13.1711
5.30147	13.3084
5.29605	13.4844
5.29065	13.6475
5.28525	13.7627
5.27987	13.8795
5.2745	13.9941
5.26914	14.0248
5.26379	14.1861
5.25845	14.4326
5.25312	14.5571
5.24781	14.6558
5.2425	14.7918
5.23721	14.9174
5.23192	15.0218
5.22665	15.1385
5.22138	15.2656
5.21613	15.5359
5.21089	15.7525
5.20566	15.9443
5.20044	16.1074
5.19522	16.2651
5.19002	16.4665
5.18483	16.5904
5.17965	16.6747
5.17448	16.9001
5.16933	17.0722
5.16418	17.1945
5.15904	17.4326
5.15391	17.6601
5.14879	17.8288
5.14368	18.0596
5.13859	18.3321
5.1335	18.4828
5.12842	18.5968
5.12335	18.8031
5.1183	18.9858
5.11325	19.2357
5.10821	19.4518
5.10318	19.6946
5.09817	19.9391
5.09316	20.0132
5.08816	20.1143
5.08317	20.4657
5.07819	20.7427
5.07322	20.8688
5.06826	21.0503
5.06331	21.2563
5.05837	21.454
5.05344	21.6321
5.04852	21.7588
5.04361	21.9463
5.03871	22.1291
5.03382	22.3914
5.02894	22.6493
5.02406	22.7933
5.0192	22.9431
5.01435	23.1157
5.0095	23.2624
5.00467	23.4756
4.99984	23.6236
4.99502	23.7303
4.99021	23.8809
4.98542	24.0558
4.98063	24.1783
4.97585	24.2651
4.97108	24.3836
4.96632	24.5081
4.96156	24.6409
4.95682	24.8319
4.95209	24.9257
4.94736	25.0301
4.94264	25.2027
4.93794	25.3591
4.93324	25.4548
4.92855	25.5327
4.92387	25.6084
4.9192	25.7203
4.91453	25.8328
4.90988	26.0083
4.90524	26.1227
4.9006	26.2607
4.89597	26.3721
4.89135	26.4328
4.88674	26.5333
4.88214	26.6228
4.87755	26.7242
4.87296	26.8133
4.86839	26.8934
4.86382	27.0421
4.85926	27.1781
4.85471	27.2883
4.85017	27.3751
4.84564	27.4891
4.84111	27.6165
4.8366	27.6984
4.83209	27.8138
4.82759	27.9691
4.8231	28.068
4.81862	28.1466
4.81415	28.2625
4.80968	28.3998
4.80522	28.5531
4.80077	28.6793
4.79633	28.75
4.7919	28.8193
4.78747	28.9883
4.78306	29.1267
4.77865	29.2199
4.77425	29.3444
4.76986	29.495
4.76547	29.6878
4.7611	29.8951
4.75673	30.0391
4.75237	30.0731
4.74802	30.2255
4.74367	30.4222
4.73934	30.5157
4.73501	30.7278
4.73069	30.9098
4.72638	31.0301
4.72207	31.1742
4.71777	31.339
4.71348	31.5431
4.7092	31.7575
4.70493	31.9017
4.70066	32.0741
4.69641	32.298
4.69216	32.5425
4.68791	32.7803
4.68368	32.9928
4.67945	33.199
4.67523	33.4313
4.67102	33.6358
4.66682	33.8103
4.66262	34.026
4.65843	34.2833
4.65425	34.4825
4.65007	34.701
4.64591	35.0165
4.64175	35.2979
4.6376	35.5604
4.63345	35.8512
4.62932	36.0874
4.62519	36.3299
4.62106	36.6394
4.61695	36.9392
4.61284	37.2414
4.60874	37.477
4.60465	37.7387
4.60056	37.9929
4.59648	38.2924
4.59241	38.6311
4.58835	38.9101
4.58429	39.1439
4.58024	39.4723
4.5762	39.7603
4.57216	40.0357
4.56814	40.3492
4.56411	40.5756
4.5601	40.7963
4.55609	41.1501
4.55209	41.4916
4.5481	41.7459
4.54411	41.9601
4.54013	42.2624
4.53616	42.5579
4.5322	42.8442
4.52824	43.0725
4.52429	43.3709
4.52034	43.7258
4.51641	44.0497
4.51247	44.2804
4.50855	44.4707
4.50463	44.6859
4.50072	45.0295
4.49682	45.3628
4.49292	45.5992
4.48903	45.8421
4.48515	46.1115
4.48127	46.3497
4.4774	46.6066
4.47354	46.8628
4.46968	47.0335
4.46584	47.2714
4.46199	47.6216
4.45815	47.8912
4.45432	48.0995
4.4505	48.3804
4.44668	48.6106
4.44287	48.7357
4.43907	49.0766
4.43527	49.3679
4.43148	49.4886
4.4277	49.66
4.42392	49.8899
4.42015	50.1705
4.41638	50.4266
4.41262	50.6317
4.40887	50.9075
4.40513	51.1905
4.40139	51.3438
4.39765	51.4996
4.39393	51.7416
4.39021	51.9881
4.38649	52.1721
4.38278	52.3874
4.37908	52.6145
4.37539	52.8554
4.3717	53.1425
4.36801	53.356
4.36434	53.5456
4.36067	53.7601
4.357	53.9937
4.35335	54.2352
4.34969	54.473
4.34605	54.7322
4.34241	54.9772
4.33877	55.1841
4.33514	55.3644
4.33152	55.5481
4.32791	55.7529
4.3243	55.9194
4.32069	56.1221
4.3171	56.3415
4.31351	56.5553
4.30992	56.785
4.30634	56.947
4.30277	57.1069
4.2992	57.3176
4.29564	57.5309
4.29208	57.7049
4.28853	57.8669
4.28499	58.0749
4.28145	58.3141
4.27792	58.5926
4.27439	58.8899
4.27087	59.1663
4.26735	59.5352
4.26384	59.9728
4.26034	60.3542
4.25684	60.6791
4.25335	60.8025
4.24986	60.7578
4.24638	60.7907
4.24291	60.8881
4.23944	61.0071
4.23598	61.1841
4.23252	61.4084
4.22906	61.689
4.22562	61.9806
4.22218	62.3097
4.21874	62.7246
4.21531	63.0649
4.21189	63.3398
4.20847	63.6746
4.20506	63.9456
4.20165	64.1748
4.19825	64.4936
4.19485	64.7698
4.19146	64.9223
4.18807	65.0282
4.18469	65.141
4.18132	65.271
4.17795	65.4279
4.17458	65.6281
4.17123	65.8068
4.16787	65.9867
4.16453	66.1078
4.16118	66.2193
4.15785	66.3095
4.15451	66.4743
4.15119	66.6386
4.14787	66.7471
4.14455	66.7409
4.14124	66.7996
4.13794	66.9266
4.13464	66.9866
4.13134	67.0154
4.12805	67.1455
4.12477	67.2927
4.12149	67.4136
4.11822	67.5215
4.11495	67.6216
4.11168	67.7427
4.10843	67.81
4.10517	67.8701
4.10192	67.9471
4.09868	68.0394
4.09545	68.1542
4.09221	68.2194
4.08899	68.279
4.08576	68.3345
4.08255	68.4368
4.07933	68.5849
4.07613	68.6994
4.07292	68.7809
4.06973	68.8522
4.06654	68.991
4.06335	69.1274
4.06017	69.2386
4.05699	69.3074
4.05382	69.326
4.05065	69.4622
4.04749	69.6254
4.04433	69.6819
4.04118	69.7301
4.03803	69.8726
4.03489	69.9676
4.03175	69.9696
4.02862	70.019
4.02549	70.2219
4.02237	70.3778
4.01925	70.4612
4.01614	70.5263
4.01303	70.6583
4.00993	70.7671
4.00683	70.8419
4.00373	70.8907
4.00064	70.9582
3.99756	70.9866
3.99448	71.0033
3.9914	71.0516
3.98833	71.1845
3.98527	71.3031
3.98221	71.3888
3.97915	71.4857
3.9761	71.5411
3.97305	71.5501
3.97001	71.5836
3.96697	71.6946
3.96394	71.7892
3.96091	71.8634
3.95789	71.9247
3.95487	71.9311
3.95186	71.9743
3.94885	72.0069
3.94584	72.0662
3.94284	72.1152
3.93984	72.179
3.93685	72.3253
3.93386	72.4246
3.93088	72.428
3.9279	72.4381
3.92493	72.4468
3.92196	72.5439
3.919	72.6262
3.91604	72.6499
3.91308	72.7132
3.91013	72.7632
3.90718	72.8085
3.90424	72.8992
3.9013	72.9169
3.89837	72.9344
3.89544	72.9991
3.89252	73.0339
3.8896	73.0105
3.88668	73.0247
3.88377	73.1097
3.88086	73.1931
3.87796	73.2241
3.87506	73.2981
3.87217	73.3473
3.86928	73.3956
3.86639	73.4347
3.86351	73.4596
3.86064	73.4769
3.85776	73.5186
3.8549	73.5404
3.85203	73.5385
3.84917	73.5233
3.84631	73.6007
3.84346	73.6512
3.84062	73.7113
3.83777	73.7731
3.83494	73.7971
3.8321	73.8035
3.82927	73.7782
3.82644	73.8196
3.82362	73.883
3.82081	73.8654
3.81799	73.8121
3.81518	73.8518
3.81238	73.9528
3.80958	73.9406
3.80678	73.912
3.80399	73.9365
3.8012	73.9395
3.79841	73.9239
3.79563	73.8529
3.79286	73.8448
3.79008	73.9781
3.78731	74.0074
3.78455	73.9455
3.78179	73.9607
3.77903	73.9245
3.77628	73.921
3.77353	74.0013
3.77079	74.0602
3.76805	74.0726
3.76531	73.9961
3.76258	73.9256
3.75985	73.9311
3.75713	73.9696
3.7544	73.9496
3.75169	73.9277
3.74898	73.8323
3.74627	73.8064
3.74356	73.8103
3.74086	73.7925
3.73816	73.7933
3.73547	73.8551
3.73278	73.8257
3.7301	73.7334
3.72741	73.6594
3.72474	73.6874
3.72206	73.6849
3.71939	73.6193
3.71673	73.5618
3.71406	73.5145
3.71141	73.4919
3.70875	73.4958
3.7061	73.504
3.70345	73.3998
3.70081	73.2908
3.69817	73.2562
3.69553	73.2154
3.6929	73.2275
3.69027	73.2156
3.68765	73.2102
3.68503	73.1537
3.68241	73.0785
3.6798	73.0191
3.67719	72.949
3.67458	72.9009
3.67198	72.8055
3.66938	72.729
3.66678	72.7086
3.66419	72.672
3.66161	72.6991
3.65902	72.6314
3.65644	72.5845
3.65387	72.5515
3.65129	72.4836
3.64872	72.4238
3.64616	72.325
3.64359	72.2426
3.64103	72.2364
3.63848	72.2373
3.63593	72.2829
3.63338	72.2704
3.63084	72.1859
3.6283	72.0727
3.62576	71.9658
3.62322	71.9368
3.62069	71.8947
3.61817	71.8378
3.61564	71.7982
3.61312	71.7075
3.61061	71.6257
3.6081	71.6368
3.60559	71.6072
3.60308	71.5033
3.60058	71.4209
3.59808	71.3736
3.59558	71.3388
3.59309	71.2381
3.59061	71.1637
3.58812	71.1177
3.58564	70.9316
3.58316	70.8601
3.58069	70.8446
3.57822	70.7023
3.57575	70.6959
3.57328	70.6598
3.57082	70.5759
3.56836	70.5183
3.56591	70.3874
3.56346	70.2848
3.56101	70.1963
3.55857	70.1156
3.55613	70.0803
3.55369	70.0596
3.55126	69.9863
3.54883	69.8977
3.5464	69.8469
3.54397	69.7099
3.54155	69.6119
3.53914	69.4853
3.53672	69.3307
3.53431	69.2327
3.5319	69.1908
3.5295	69.0591
3.5271	68.9992
3.5247	68.9452
3.52231	68.8136
3.51991	68.695
3.51753	68.5868
3.51514	68.4478
3.51276	68.3005
3.51038	68.1174
3.50801	67.9455
3.50563	67.7176
3.50327	67.4616
3.5009	67.3242
3.49854	67.3009
3.49618	67.2813
3.49382	67.2035
3.49147	67.0976
3.48912	67.0151
3.48677	66.9522
3.48443	66.9536
3.48209	67.0046
3.47975	66.9477
3.47742	66.7986
3.47509	66.698
3.47276	66.6126
3.47044	66.5525
3.46812	66.4191
3.4658	66.4066
3.46348	66.4991
3.46117	66.4474
3.45886	66.3199
3.45656	66.2146
3.45425	66.1452
3.45195	66.0553
3.44966	65.8573
3.44736	65.7242
3.44507	65.6973
3.44279	65.576
3.4405	65.4482
3.43822	65.344
3.43594	65.1447
3.43367	64.9527
3.43139	64.8222
3.42912	64.7275
3.42686	64.6112
3.42459	64.4305
3.42233	64.173
3.42007	64.0161
3.41782	63.85
3.41557	63.6572
3.41332	63.5781
3.41108	63.5739
3.40883	63.5711
3.40659	63.5705
3.40435	63.5844
3.40212	63.5429
3.39989	63.5133
3.39766	63.546
3.39544	63.5545
3.39322	63.5666
3.391	63.6268
3.38878	63.5449
3.38657	63.3662
3.38436	63.2764
3.38215	63.1632
3.37994	62.9595
3.37774	62.704
3.37554	62.6154
3.37335	62.5794
3.37115	62.4885
3.36896	62.522
3.36678	62.6131
3.36459	62.6953
3.36241	62.7241
3.36023	62.747
3.35805	62.763
3.35588	62.7418
3.35371	62.6557
3.35154	62.6566
3.34938	62.6116
3.34721	62.5651
3.34505	62.5363
3.3429	62.4485
3.34074	62.4101
3.33859	62.4196
3.33644	62.453
3.3343	62.3371
3.33215	62.1784
3.33001	62.119
3.32788	62.1194
3.32574	62.0583
3.32361	61.9141
3.32148	61.8144
3.31936	61.7775
3.31723	61.7461
3.31511	61.678
3.31299	61.6218
3.31088	61.598
3.30876	61.5321
3.30665	61.47
3.30455	61.4025
3.30244	61.2634
3.30034	61.1783
3.29824	61.1487
3.29614	60.9904
3.29405	60.8588
3.29196	60.8707
3.28987	60.8588
3.28778	60.7339
3.2857	60.6546
3.28362	60.6286
3.28154	60.648
3.27946	60.585
3.27739	60.4885
3.27532	60.3184
3.27325	60.1979
3.27119	60.1952
3.26913	60.1794
3.26707	60.1418
3.26501	60.105
3.26295	60.0775
3.2609	59.9774
3.25885	59.7555
3.2568	59.6995
3.25476	59.6587
3.25272	59.6827
3.25068	59.6913
3.24864	59.5247
3.24661	59.4628
3.24458	59.4258
3.24255	59.3836
3.24052	59.3379
3.2385	59.1221
3.23648	59.0302
3.23446	58.9358
3.23244	58.8841
3.23043	58.9914
3.22841	58.9925
3.2264	58.8458
3.2244	58.7801
3.22239	58.7233
3.22039	58.6291
3.21839	58.5431
3.2164	58.5363
3.2144	58.4636
3.21241	58.4222
3.21042	58.4445
3.20844	58.4235
3.20645	58.316
3.20447	58.2651
3.20249	58.1715
3.20051	58.0992
3.19854	58.1266
3.19657	58.1166
3.1946	58.0218
3.19263	57.9025
3.19067	57.8558
3.1887	57.86
3.18674	57.753
3.18479	57.6479
3.18283	57.606
3.18088	57.6048
3.17893	57.5994
3.17698	57.5374
3.17504	57.5073
3.17309	57.4841
3.17115	57.4599
3.16921	57.3731
3.16728	57.2962
3.16534	57.3612
3.16341	57.4076
3.16148	57.4038
3.15956	57.3442
3.15763	57.2986
3.15571	57.2538
3.15379	57.1466
3.15187	57.1253
3.14996	57.1408
3.14805	57.103
3.14614	57.0255
3.14423	57.0171
3.14232	57.0715
3.14042	57.0449
3.13852	56.9337
3.13662	56.8495
3.13472	56.8546
3.13283	56.8462
3.13094	56.9363
3.12905	56.9632
3.12716	56.9405
3.12528	56.8991
3.12339	56.9191
3.12151	56.8776
3.11964	56.8871
3.11776	56.8867
3.11589	56.914
3.11401	56.8753
3.11214	56.8571
3.11028	56.8795
3.10841	56.829
3.10655	56.7498
3.10469	56.7727
3.10283	56.758
3.10098	56.764
3.09912	56.7797
3.09727	56.8158
3.09542	56.9315
3.09358	56.8726
3.09173	56.7795
3.08989	56.8662
3.08805	56.9533
3.08621	56.9534
3.08437	56.8467
3.08254	56.8627
3.08071	56.9467
3.07888	56.9657
3.07705	56.9606
3.07523	56.8538
3.0734	56.8033
3.07158	56.878
3.06977	56.9814
3.06795	57.0685
3.06613	57.115
3.06432	57.1075
3.06251	57.1147
3.0607	57.0811
3.0589	57.0485
3.0571	57.0118
3.05529	57.0681
3.05349	57.1724
3.0517	57.1946
3.0499	57.1559
3.04811	57.2412
3.04632	57.3303
3.04453	57.3378
3.04274	57.3409
3.04096	57.3183
3.03918	57.3041
3.0374	57.3152
3.03562	57.2795
3.03384	57.3118
3.03207	57.3393
3.03029	57.3332
3.02852	57.3868
3.02676	57.424
3.02499	57.4892
3.02323	57.5703
3.02146	57.5154
3.0197	57.4448
3.01795	57.5017
3.01619	57.5619
3.01444	57.6078
3.01269	57.6528
3.01094	57.6833
3.00919	57.6869
3.00744	57.8209
3.0057	57.8585
3.00396	57.7561
3.00222	57.7275
3.00048	57.8126
2.99875	57.821
2.99701	57.7622
2.99528	57.7584
2.99355	57.847
2.99183	57.9546
2.9901	58.0697
2.98838	58.095
2.98666	58.1786
2.98494	58.339
2.98322	58.2712
2.9815	58.1979
2.97979	58.1733
2.97808	58.3109
2.97637	58.4996
2.97466	58.454
2.97295	58.3916
2.97125	58.4726
2.96955	58.5192
2.96785	58.5601
2.96615	58.6234
2.96446	58.6798
2.96276	58.6558
2.96107	58.7246
2.95938	58.786
2.95769	58.7785
2.95601	58.7766
2.95432	58.9389
2.95264	59.1191
2.95096	59.0914
2.94928	59.1931
2.9476	59.2992
2.94593	59.3179
2.94425	59.2924
2.94258	59.3802
2.94092	59.4136
2.93925	59.5059
2.93758	59.6974
2.93592	59.7543
2.93426	59.7028
2.9326	59.8767
2.93094	60.0287
2.92928	59.9285
2.92763	60.0794
2.92598	60.3127
2.92433	60.4842
2.92268	60.5957
2.92103	60.5676
2.91939	60.6598
2.91775	60.7651
2.9161	60.7224
2.91447	60.7352
2.91283	60.8956
2.91119	60.9519
2.90956	61.055
2.90793	61.3985
2.9063	61.4551
2.90467	61.4722
2.90304	61.6043
2.90142	61.7574
2.89979	61.8833
2.89817	61.7894
2.89656	61.743
2.89494	61.9924
2.89332	62.1045
2.89171	62.1821
2.8901	62.4173
2.88849	62.5531
2.88688	62.6413
2.88527	62.6756
2.88367	62.8165
2.88206	62.9122
2.88046	63.0292
2.87886	63.247
2.87727	63.4097
2.87567	63.5748
2.87408	63.6076
2.87248	63.7849
2.87089	63.961
2.8693	63.9936
2.86772	64.1127
2.86613	64.2657
2.86455	64.2893
2.86297	64.3632
2.86139	64.5014
2.85981	64.6248
2.85823	64.7643
2.85666	65.0828
2.85508	65.2716
2.85351	65.2463
2.85194	65.3234
2.85038	65.4003
2.84881	65.5289
2.84724	65.7065
2.84568	65.8408
2.84412	65.9441
2.84256	65.9031
2.841	65.7832
2.83945	66.0121
2.83789	66.3574
2.83634	66.4856
2.83479	66.633
2.83324	66.74
2.83169	66.7963
2.83015	66.7787
2.82861	66.8946
2.82706	67.0033
2.82552	67.1078
2.82398	67.1807
2.82245	67.3587
2.82091	67.6419
2.81938	67.7793
2.81784	67.6945
2.81631	67.7621
2.81479	67.9486
2.81326	68.0512
2.81173	68.0834
2.81021	68.188
2.80869	68.3078
2.80716	68.4593
2.80565	68.651
2.80413	69.0727
2.80261	69.2767
2.8011	69.08
2.79959	68.9574
2.79808	69.145
2.79657	69.3594
2.79506	69.4089
2.79355	69.4418
2.79205	69.6146
2.79055	69.8002
2.78904	70.196
2.78754	70.6616
2.78605	70.7337
2.78455	70.6374
2.78306	70.6406
2.78156	70.7239
2.78007	70.9509
2.77858	71.1743
2.77709	71.3064
2.77561	71.1513
2.77412	71.3416
2.77264	72.0098
2.77116	72.7091
2.76968	72.7307
2.7682	72.7327
2.76672	72.8107
2.76524	72.9442
2.76377	73.2959
2.7623	73.4332
2.76083	73.3616
2.75936	73.5055
2.75789	73.9628
2.75642	75.0683
2.75496	75.5614
2.7535	74.9552
2.75203	74.9742
2.75057	75.0846
2.74912	75.2367
2.74766	75.552
2.7462	75.8192
2.74475	75.9854
2.7433	76.2774
2.74185	77.1939
2.7404	77.9779
2.73895	77.7468
2.7375	77.1955
2.73606	77.453
2.73462	77.8096
2.73318	77.5023
2.73174	77.5186
2.7303	77.6713
2.72886	77.8594
2.72742	78.1244
2.72599	78.817
2.72456	79.5146
2.72313	79.1373
2.7217	79.6435
2.72027	80.3416
2.71884	79.5894
2.71742	79.377
2.71599	79.4252
2.71457	79.5399
2.71315	79.8757
2.71173	80.9433
2.71032	81.2392
2.7089	80.6796
2.70748	80.3062
2.70607	80.2552
2.70466	80.4002
2.70325	80.6348
2.70184	80.9738
2.70043	81.0191
2.69903	80.9445
2.69762	81.1939
2.69622	81.8108
2.69482	82.5395
2.69342	82.6952
2.69202	82.193
2.69062	82.0476
2.68923	82.1979
2.68783	82.4055
2.68644	82.6104
2.68505	82.7845
2.68366	82.869
2.68227	82.7186
2.68089	82.8521
2.6795	83.4868
2.67812	83.6249
2.67673	83.9267
2.67535	83.6433
2.67397	83.138
2.6726	83.3534
2.67122	84.7998
2.66984	84.9764
2.66847	84.1332
2.6671	84.7926
2.66572	84.9391
2.66435	84.3271
2.66299	83.3993
2.66162	83.2723
2.66025	83.3617
2.65889	83.3385
2.65753	83.073
2.65616	83.2622
2.65481	83.302
2.65345	83.4842
2.65209	83.514
2.65073	83.2057
2.64938	83.1114
2.64803	83.1172
2.64667	83.304
2.64532	83.3328
2.64397	83.0451
2.64263	83.1196
2.64128	83.1652
2.63994	83.0499
2.63859	82.9418
2.63725	82.9567
2.63591	83.0573
2.63457	83.4495
2.63323	83.4736
2.6319	83.786
2.63056	84.5661
2.62923	83.9348
2.62789	83.7167
2.62656	84.2258
2.62523	83.6045
2.6239	83.182
2.62258	83.1965
2.62125	84.0379
2.61993	84.2614
2.6186	83.7455
2.61728	84.2441
2.61596	84.0333
2.61464	83.3791
2.61332	83.3419
2.61201	83.3144
2.61069	83.4835
2.60938	83.665
2.60807	83.7262
2.60675	84.0737
2.60544	84.5067
2.60414	84.0399
2.60283	83.7443
2.60152	83.6045
2.60022	83.2795
2.59891	83.1236
2.59761	83.5243
2.59631	84.7911
2.59501	86.1527
2.59371	84.9486
2.59242	83.4555
2.59112	83.2659
2.58983	83.5183
2.58853	83.7613
2.58724	83.8453
2.58595	83.4989
2.58466	83.9457
2.58338	84.2274
2.58209	83.6819
2.5808	83.5082
2.57952	83.2406
2.57824	83.4115
2.57695	83.6813
2.57567	83.5126
2.5744	83.6948
2.57312	83.8544
2.57184	83.3107
2.57057	83.5058
2.56929	83.6626
2.56802	83.3284
2.56675	83.1528
2.56548	83.4071
2.56421	83.8206
2.56294	84.0163
2.56168	83.9812
2.56041	83.5971
2.55915	83.239
2.55789	83.0952
2.55662	82.9411
2.55536	82.9328
2.5541	83.1595
2.55285	83.3177
2.55159	83.1826
2.55034	83.0394
2.54908	83.0641
2.54783	83.1528
2.54658	83.0514
2.54533	83.1126
2.54408	83.2532
2.54283	83.3341
2.54159	83.0957
2.54034	82.9557
2.5391	82.9369
2.53785	82.9812
2.53661	83.0558
2.53537	83.0611
2.53413	83.1102
2.53289	83.1405
2.53166	83.0933
2.53042	83.0544
2.52919	83.028
2.52795	82.9945
2.52672	82.9437
2.52549	82.9577
2.52426	82.9162
2.52303	82.8697
2.52181	82.928
2.52058	82.9865
2.51936	82.9489
2.51813	82.9474
2.51691	82.9563
2.51569	82.9159
2.51447	82.8489
2.51325	82.8236
2.51203	82.8791
2.51082	82.8687
2.5096	82.8369
2.50839	82.8518
2.50717	82.8475
2.50596	82.8506
2.50475	82.8264
2.50354	82.7649
2.50233	82.7897
2.50113	82.9703
2.49992	82.9629
2.49872	82.8403
2.49751	82.8579
2.49631	82.9053
2.49511	82.9379
2.49391	82.9004
2.49271	82.9044
2.49151	82.9048
2.49031	82.8225
2.48912	82.7927
2.48792	82.8353
2.48673	82.9077
2.48554	82.8971
2.48435	82.9402
2.48316	82.9717
2.48197	82.9583
2.48078	82.8668
2.4796	82.839
2.47841	82.9785
2.47723	82.961
2.47604	82.869
2.47486	82.9464
2.47368	82.9814
2.4725	82.8414
2.47132	82.7529
2.47014	82.7986
2.46897	82.9238
2.46779	83.013
2.46662	82.9419
2.46545	82.8428
2.46427	82.9443
2.4631	83.018
2.46193	82.9628
2.46077	83.072
2.4596	83.1403
2.45843	83.0329
2.45727	82.9971
2.4561	82.9527
2.45494	82.9328
2.45378	82.8011
2.45262	82.8391
2.45146	82.9084
2.4503	82.8543
2.44914	82.9711
2.44799	83.0998
2.44683	82.9327
2.44568	82.8817
2.44452	83.0175
2.44337	83.0567
2.44222	83.0486
2.44107	82.9345
2.43992	82.8246
2.43877	82.8043
2.43763	82.8184
2.43648	83.0267
2.43534	83.1093
2.43419	83.0237
2.43305	82.9962
2.43191	82.9164
2.43077	83.0347
2.42963	83.1547
2.42849	82.9792
2.42736	82.7975
2.42622	82.874
2.42509	82.9782
2.42395	82.9518
2.42282	82.9582
2.42169	82.9936
2.42056	82.96
2.41943	82.9718
2.4183	83.0096
2.41717	82.8705
2.41605	82.9047
2.41492	82.9596
2.4138	82.9751
2.41267	83.0712
2.41155	83.0631
2.41043	82.9795
2.40931	83.0204
2.40819	83.029
2.40707	82.9108
2.40595	82.8349
2.40484	82.848
2.40372	82.9121
2.40261	82.9584
2.4015	83.1475
2.40039	83.188
2.39928	82.9393
2.39817	82.8127
2.39706	82.8794
2.39595	83.0247
2.39484	83.0918
2.39374	83.0144
2.39263	82.9468
2.39153	82.9506
2.39043	83.0485
2.38932	83.0137
2.38822	82.8986
2.38712	82.9329
2.38603	82.9941
2.38493	82.9797
2.38383	82.9742
2.38274	82.9504
2.38164	82.8459
2.38055	82.8861
2.37946	82.9013
2.37836	82.9248
2.37727	82.9983
2.37618	83.0617
2.3751	83.0568
2.37401	83.0725
2.37292	83.1156
2.37184	83.0333
2.37075	82.9297
2.36967	82.9703
2.36859	83.0073
2.3675	83.0001
2.36642	83.0355
2.36534	82.8936
2.36427	82.8403
2.36319	82.9468
2.36211	83.0224
2.36104	83.0065
2.35996	83.0073
2.35889	82.952
2.35781	82.9603
2.35674	82.9806
2.35567	82.8894
2.3546	82.9114
2.35353	82.9854
2.35247	82.9939
2.3514	83.0373
2.35033	83.0409
2.34927	82.9577
2.3482	82.8685
2.34714	82.9825
2.34608	83.054
2.34502	83.0207
2.34396	82.9149
2.3429	82.6948
2.34184	82.6978
2.34078	82.8591
2.33973	82.9385
2.33867	83.0379
2.33762	83.1121
2.33656	82.9837
2.33551	82.7427
2.33446	82.7942
2.33341	83.012
2.33236	83.0495
2.33131	82.9884
2.33026	83.0009
2.32922	82.9103
2.32817	82.8722
2.32712	82.9183
2.32608	82.9025
2.32504	82.8894
2.324	82.9352
2.32295	82.9912
2.32191	82.9273
2.32087	82.8764
2.31984	82.8146
2.3188	82.79
2.31776	82.7943
2.31673	82.8336
2.31569	82.9098
2.31466	82.8075
2.31362	82.7706
2.31259	82.7869
2.31156	82.7437
2.31053	82.7851
2.3095	82.9152
2.30847	82.8327
2.30745	82.7978
2.30642	82.7652
2.3054	82.6916
2.30437	82.7162
2.30335	82.8089
2.30232	82.8126
2.3013	82.6605
2.30028	82.7505
2.29926	82.9287
2.29824	82.891
2.29722	82.9273
2.29621	82.8399
2.29519	82.7268
2.29417	82.738
2.29316	82.7943
2.29215	82.9576
2.29113	82.9532
2.29012	82.8779
2.28911	82.8317
2.2881	82.8799
2.28709	82.8931
2.28608	82.8628
2.28507	82.8543
2.28407	82.8343
2.28306	82.8235
2.28206	82.8957
2.28105	82.7497
2.28005	82.6857
2.27905	82.7553
2.27805	82.7622
2.27705	82.848
2.27605	82.9487
2.27505	82.9484
2.27405	82.9061
2.27305	82.8732
2.27206	82.8554
2.27106	82.7733
2.27007	82.8413
2.26907	82.8971
2.26808	82.7869
2.26709	82.8073
2.2661	82.8884
2.26511	82.6905
2.26412	82.7638
2.26313	82.8896
2.26214	82.8816
2.26116	82.8365
2.26017	82.7808
2.25919	82.783
2.2582	82.7281
2.25722	82.7808
2.25624	82.8735
2.25526	82.9078
2.25428	82.8464
2.2533	82.8032
2.25232	82.8031
2.25134	82.8228
2.25036	82.9571
2.24939	82.9411
2.24841	82.8225
2.24744	82.7734
2.24646	82.8734
2.24549	82.9578
2.24452	82.8183
2.24355	82.6673
2.24257	82.6163
2.24161	82.6598
2.24064	82.6872
2.23967	82.7222
2.2387	82.8628
2.23774	82.978
2.23677	82.8199
2.23581	82.7862
2.23484	82.9424
2.23388	82.9726
2.23292	82.952
2.23196	82.8212
2.231	82.7874
2.23004	82.826
2.22908	82.9443
2.22812	82.9653
2.22716	82.8853
2.22621	82.8469
2.22525	82.781
2.2243	82.8596
2.22334	82.7721
2.22239	82.6712
2.22144	82.7748
2.22049	82.826
2.21953	82.8129
2.21859	82.7856
2.21764	82.7641
2.21669	82.8422
2.21574	82.8542
2.21479	82.9345
2.21385	82.8315
2.2129	82.7429
2.21196	82.8121
2.21102	82.8634
2.21007	82.9043
2.20913	82.8837
2.20819	82.8725
2.20725	82.7482
2.20631	82.6926
2.20537	82.7673
2.20444	82.8898
2.2035	83.0687
2.20256	83.0885
2.20163	82.8845
2.20069	82.7707
2.19976	82.6973
2.19883	82.6949
2.19789	82.8236
2.19696	82.8819
2.19603	82.8333
2.1951	82.7592
2.19417	82.9583
2.19325	83.0658
2.19232	82.9825
2.19139	82.8489
2.19047	82.7395
2.18954	82.6241
2.18862	82.6623
2.18769	82.7953
2.18677	82.8486
2.18585	82.786
2.18493	82.9299
2.18401	82.9713
2.18309	82.8712
2.18217	82.8481
2.18125	82.9117
2.18033	82.9793
2.17942	82.9086
2.1785	82.7927
2.17759	82.7168
2.17667	82.918
2.17576	83.0308
2.17485	82.8605
2.17393	82.6954
2.17302	82.6849
2.17211	82.8098
2.1712	82.9504
2.17029	83.0958
2.16939	83.0184
2.16848	82.8499
2.16757	82.8705
2.16667	82.8258
2.16576	82.8647
2.16486	82.9442
2.16395	82.9533
2.16305	82.8969
2.16215	82.7457
2.16125	82.7425
2.16035	82.8651
2.15945	83.0033
2.15855	83.0062
2.15765	82.8304
2.15675	82.7528
2.15586	82.7483
2.15496	82.7383
2.15406	82.8173
2.15317	82.83
2.15228	82.8019
2.15138	82.7669
2.15049	82.8587
2.1496	82.959
2.14871	82.9471
2.14782	82.854
2.14693	82.838
2.14604	82.7822
2.14515	82.7189
2.14427	82.8723
2.14338	83.0336
2.14249	83.0335
2.14161	83.0042
2.14072	82.9423
2.13984	82.8855
2.13896	82.8045
2.13808	82.8892
2.13719	83.0023
2.13631	82.9727
2.13543	82.9362
2.13455	82.9209
2.13368	83.0173
2.1328	83.05
2.13192	82.9171
2.13105	82.8125
2.13017	82.9667
2.1293	83.061
2.12842	83.0214
2.12755	82.9606
2.12668	82.8275
2.1258	82.8276
2.12493	82.8433
2.12406	82.786
2.12319	82.9205
2.12232	82.9488
2.12145	82.8763
2.12059	82.8899
2.11972	83.1111
2.11885	83.1847
2.11799	83.0404
2.11712	82.9813
2.11626	83.0642
2.1154	82.9127
2.11453	82.816
2.11367	82.8596
2.11281	82.858
2.11195	82.7169
2.11109	82.7745
2.11023	82.9505
2.10937	83.1044
2.10851	83.1882
2.10766	83.0013
2.1068	82.8233
2.10594	82.9888
2.10509	83.0927
2.10423	83.1218
2.10338	83.124
2.10253	82.963
2.10168	82.8037
2.10082	82.9274
2.09997	83.0418
2.09912	83.0319
2.09827	82.9689
2.09742	82.8359
2.09658	82.8713
2.09573	83.044
2.09488	83.1917
2.09404	83.0498
2.09319	82.7185
2.09235	82.5703
2.0915	82.6791
2.09066	82.8418
2.08982	82.7913
2.08897	82.6213
2.08813	82.6281
2.08729	82.6468
2.08645	82.8266
2.08561	83.0935
2.08477	83.2499
2.08394	83.51
2.0831	83.5475
2.08226	83.229
2.08143	83.0826
2.08059	83.0337
2.07976	82.8976
2.07892	82.6857
2.07809	82.7385
2.07726	83.0023
2.07643	82.9734
2.07559	82.7631
2.07476	82.5572
2.07393	82.9183
2.0731	83.3319
2.07228	83.277
2.07145	82.9139
2.07062	82.9437
2.06979	82.8699
2.06897	82.9951
2.06814	83.2412
2.06732	82.9065
2.06649	82.8989
2.06567	82.9953
2.06485	83.1034
2.06403	83.1713
2.0632	82.9865
2.06238	82.8638
2.06156	82.8165
2.06074	83.0997
2.05993	83.2344
2.05911	82.9798
2.05829	82.955
2.05747	82.9223
2.05666	83.0191
2.05584	83.0701
2.05503	82.9825
2.05421	82.791
2.0534	82.8412
2.05259	83.0566
2.05177	82.9711
2.05096	82.8583
2.05015	82.9161
2.04934	83.0499
2.04853	83.0181
2.04772	83.0571
2.04691	82.9987
2.04611	82.8309
2.0453	82.9129
2.04449	83.1015
2.04369	83.1787
2.04288	83.2148
2.04208	83.0853
2.04127	82.9827
2.04047	83.0577
2.03967	83.1992
2.03886	83.0653
2.03806	82.9336
2.03726	83.0833
2.03646	83.1151
2.03566	83.1188
2.03486	83.1026
2.03407	83.1757
2.03327	83.1488
2.03247	83.07
2.03167	82.9607
2.03088	82.7248
2.03008	82.7722
2.02929	83.113
2.0285	83.0579
2.0277	83.0152
2.02691	83.071
2.02612	83.2181
2.02533	83.2484
2.02453	83.1593
2.02374	83.1793
2.02295	83.2319
2.02217	82.9755
2.02138	83.0008
2.02059	83.1403
2.0198	83.1142
2.01902	83.0032
2.01823	82.9719
2.01744	83.1256
2.01666	82.948
2.01588	83.0449
2.01509	83.1906
2.01431	83.3497
2.01353	83.4569
2.01275	83.3618
2.01196	83.3362
2.01118	83.1927
2.0104	83.1095
2.00963	83.0056
2.00885	82.8897
2.00807	82.8133
2.00729	82.7985
2.00651	83.1341
2.00574	83.2329
2.00496	83.0913
2.00419	82.9596
2.00341	82.9051
2.00264	83.0184
2.00187	83.1345
2.00109	83.1141
2.00032	83.0741
