Name: Phyllite
Type: Rock
Class: Metamorphic
Subclass:  Phyllite 
Particle Size: Solid surface
Sample No.: Ward85.txt
Owner: JPL
Wavelength range:  IR 
Origin: Ward's Collection of American Rocks.  Sample locality - Woodbridge, Connecticut.  Collected by - JPL.
Collected by:  Ward's Natural Science
Description: A fine-grained, gray, lustrous schistose rock.





Measurement: Hemispherical reflectance
First Column: X
Second Column: Y
X Units: Wavelength (micrometers)
Y Units: Reflectance (percent)
First X Value: 15.3871
Last X Value: 1.9998
Number of X Values: 2257
Additional information: None

15.3871   7.31226
15.3416   7.16910
15.2964   7.06556
15.2514   7.23839
15.2066   7.43855
15.1622   7.47496
15.1180   7.37619
15.0740   7.51008
15.0303   7.81774
14.9869   7.53382
14.9437   7.13203
14.9008   7.04044
14.8581   6.94673
14.8156   6.91380
14.7734   6.99014
14.7314   6.85720
14.6897   6.54390
14.6482   6.41008
14.6069   6.14752
14.5659   5.76575
14.5251   5.40010
14.4845   5.28777
14.4442   5.36283
14.4041   5.28326
14.3642   5.19504
14.3245   5.27183
14.2850   5.37578
14.2458   5.04517
14.2068   4.87312
14.1679   5.12496
14.1293   5.08785
14.0909   4.99545
14.0528   5.29029
14.0148   5.51900
13.9770   5.41902
13.9394   5.33890
13.9021   5.40713
13.8649   5.46628
13.8279   5.83242
13.7911   5.90001
13.7546   5.77892
13.7182   5.95301
13.6820   6.20462
13.6460   6.41623
13.6101   6.66907
13.5745   6.66419
13.5391   6.82453
13.5038   6.86926
13.4687   6.95137
13.4339   7.22045
13.3991   7.28464
13.3646   7.13979
13.3302   7.25356
13.2961   7.37691
13.2621   7.39264
13.2282   7.33013
13.1946   7.16344
13.1611   7.13835
13.1278   7.12102
13.0946   7.06139
13.0616   6.97364
13.0288   6.75780
12.9962   6.54754
12.9637   6.61733
12.9313   6.67140
12.8992   6.40250
12.8672   6.20323
12.8353   6.10444
12.8036   6.21896
12.7721   6.37824
12.7407   6.54302
12.7095   6.45991
12.6784   6.23616
12.6475   5.99738
12.6167   5.97563
12.5861   5.93683
12.5556   5.93401
12.5253   5.98479
12.4951   6.12097
12.4651   5.99486
12.4352   5.84690
12.4054   5.84007
12.3758   5.79619
12.3463   5.65683
12.3170   5.76241
12.2878   5.93525
12.2588   5.87355
12.2299   5.80666
12.2011   5.91771
12.1725   6.04827
12.1439   6.09715
12.1156   5.95683
12.0873   5.97924
12.0592   5.94797
12.0312   5.82570
12.0034   5.79061
11.9757   5.87612
11.9481   6.01173
11.9206   5.93822
11.8933   5.87413
11.8661   6.15350
11.8390   6.46394
11.8120   6.54995
11.7852   6.60271
11.7584   6.75727
11.7318   6.94583
11.7053   7.02844
11.6790   7.08571
11.6527   7.08556
11.6266   7.21079
11.6006   7.33378
11.5747   7.49063
11.5489   7.63155
11.5233   7.70947
11.4977   7.82786
11.4723   8.07421
11.4469   8.39220
11.4217   8.60951
11.3966   8.67317
11.3716   8.75092
11.3468   8.82843
11.3220   9.05698
11.2973   9.30295
11.2728   9.48230
11.2483   9.71596
11.2240   9.81694
11.1997   9.98339
11.1756  10.08590
11.1515  10.16800
11.1276  10.41490
11.1038  10.60670
11.0801  10.71490
11.0564  10.86460
11.0329  10.94370
11.0095  11.07260
10.9862  11.25910
10.9629  11.43700
10.9398  11.40860
10.9168  11.39790
10.8938  11.65270
10.8710  11.89440
10.8483  12.19460
10.8256  12.59200
10.8031  12.79600
10.7806  13.06420
10.7582  13.37710
10.7360  13.73010
10.7138  14.27670
10.6917  14.75530
10.6697  15.14870
10.6478  15.61200
10.6260  16.02810
10.6042  16.44870
10.5826  16.79260
10.5610  17.27660
10.5396  17.80410
10.5182  18.24400
10.4969  18.58150
10.4757  18.99940
10.4546  19.50970
10.4335  20.09420
10.4126  20.61220
10.3917  21.18620
10.3709  21.74770
10.3502  22.29470
10.3296  22.87460
10.3091  23.54610
10.2886  24.15580
10.2683  24.77700
10.2480  25.52220
10.2277  26.22220
10.2076  26.81680
10.1876  27.49450
10.1676  28.23120
10.1477  28.85290
10.1279  29.50990
10.1081  30.26430
10.0885  30.87720
10.0689  31.30740
10.0494  31.73010
10.0299  32.29780
10.0106  32.78620
 9.9913  33.09870
 9.9720  33.30660
 9.9529  33.62250
 9.9338  33.85440
 9.9148  34.04490
 9.8959  34.27020
 9.8771  34.51470
 9.8583  34.63530
 9.8396  34.62940
 9.8210  34.80560
 9.8024  35.14640
 9.7839  35.50130
 9.7655  35.81900
 9.7471  36.04440
 9.7288  36.44460
 9.7106  36.85480
 9.6925  37.28110
 9.6744  37.80180
 9.6564  38.25610
 9.6384  38.34230
 9.6205  38.34930
 9.6027  38.35560
 9.5850  38.26790
 9.5673  37.88220
 9.5497  37.52940
 9.5321  37.02900
 9.5146  36.10620
 9.4972  35.21620
 9.4798  34.37580
 9.4625  33.25970
 9.4453  32.08000
 9.4281  31.04070
 9.4110  29.98130
 9.3940  29.00130
 9.3770  28.12130
 9.3600  27.30030
 9.3432  26.51020
 9.3264  25.90030
 9.3096  25.45630
 9.2930  25.12500
 9.2763  24.90100
 9.2598  24.84640
 9.2432  24.84100
 9.2268  24.77550
 9.2104  24.74240
 9.1941  24.62860
 9.1778  24.56390
 9.1616  24.46610
 9.1454  24.47790
 9.1293  24.34000
 9.1133  23.97940
 9.0973  23.75220
 9.0814  23.46370
 9.0655  23.03820
 9.0497  22.67750
 9.0339  22.18430
 9.0182  21.70910
 9.0025  21.23140
 8.9870  20.78930
 8.9714  20.61740
 8.9559  20.52850
 8.9405  20.34770
 8.9251  20.05970
 8.9097  19.81230
 8.8945  19.65220
 8.8792  19.39560
 8.8641  19.14460
 8.8489  18.94990
 8.8338  18.73010
 8.8188  18.44560
 8.8039  18.24560
 8.7889  18.08760
 8.7741  18.08960
 8.7592  17.95250
 8.7445  17.73010
 8.7297  17.50850
 8.7151  17.17680
 8.7005  16.78900
 8.6859  16.45810
 8.6714  16.12920
 8.6569  15.50350
 8.6425  14.85010
 8.6281  14.61820
 8.6137  14.62420
 8.5994  14.90460
 8.5852  15.09530
 8.5710  15.29870
 8.5569  15.46150
 8.5428  15.43030
 8.5287  15.31680
 8.5147  15.31420
 8.5008  15.38560
 8.4869  15.31510
 8.4730  15.18090
 8.4592  15.31180
 8.4454  15.35080
 8.4316  15.38360
 8.4180  15.56850
 8.4043  15.63780
 8.3907  15.61710
 8.3772  15.39950
 8.3637  15.27660
 8.3502  15.19830
 8.3368  15.09970
 8.3234  14.96610
 8.3100  14.99660
 8.2967  15.11650
 8.2835  15.03710
 8.2703  14.90060
 8.2571  14.81780
 8.2440  14.70750
 8.2309  14.49270
 8.2179  14.24330
 8.2049  14.13410
 8.1919  14.02840
 8.1790  13.86750
 8.1661  13.45600
 8.1532  13.04620
 8.1404  12.66480
 8.1277  12.21770
 8.1150  11.81930
 8.1023  11.24220
 8.0897  10.72720
 8.0770  10.45940
 8.0645  10.09680
 8.0520   9.71285
 8.0395   9.43354
 8.0270   9.15358
 8.0146   8.85684
 8.0023   8.71783
 7.9899   8.67748
 7.9776   8.43759
 7.9654   8.05295
 7.9532   7.73770
 7.9410   7.56438
 7.9288   7.36701
 7.9167   7.12208
 7.9047   6.96939
 7.8926   6.79532
 7.8807   6.65507
 7.8687   6.52237
 7.8568   6.36622
 7.8449   6.30933
 7.8330   6.22828
 7.8212   6.12254
 7.8094   6.07865
 7.7977   6.14238
 7.7860   6.00109
 7.7743   5.87850
 7.7627   5.85795
 7.7511   5.87420
 7.7395   5.83905
 7.7280   5.80006
 7.7165   5.77212
 7.7050   5.76789
 7.6936   5.80832
 7.6822   5.78668
 7.6708   5.69447
 7.6595   5.66931
 7.6482   5.55845
 7.6369   5.40760
 7.6257   5.37361
 7.6145   5.29026
 7.6033   5.17047
 7.5922   5.19480
 7.5811   5.30142
 7.5700   5.29573
 7.5590   5.26802
 7.5480   5.33395
 7.5370   5.24800
 7.5261   5.17176
 7.5152   5.19903
 7.5043   5.17001
 7.4935   5.13490
 7.4826   5.12606
 7.4718   5.10408
 7.4611   5.06421
 7.4504   5.05563
 7.4397   5.05874
 7.4290   5.06545
 7.4184   5.07320
 7.4078   5.05410
 7.3972   5.01133
 7.3867   4.96609
 7.3762   5.09187
 7.3657   5.05767
 7.3553   4.85299
 7.3449   4.78886
 7.3345   4.88034
 7.3241   4.87744
 7.3138   4.90913
 7.3035   4.98453
 7.2932   4.97073
 7.2830   4.97035
 7.2727   4.97543
 7.2626   4.95470
 7.2524   5.06709
 7.2423   5.09913
 7.2322   5.08750
 7.2221   5.15029
 7.2120   5.19054
 7.2020   5.15355
 7.1921   5.19178
 7.1821   5.30759
 7.1722   5.29041
 7.1623   5.30860
 7.1524   5.40221
 7.1425   5.55164
 7.1327   5.53898
 7.1229   5.44390
 7.1131   5.44826
 7.1034   5.48204
 7.0937   5.55672
 7.0840   5.57100
 7.0743   5.66241
 7.0647   5.74779
 7.0551   5.81028
 7.0455   5.85749
 7.0359   5.74891
 7.0264   5.68124
 7.0169   5.78283
 7.0074   5.77890
 6.9979   5.78869
 6.9885   5.79931
 6.9791   5.87774
 6.9697   5.99025
 6.9604   5.99188
 6.9510   5.96557
 6.9417   5.99057
 6.9324   6.04497
 6.9232   6.15253
 6.9140   6.15605
 6.9047   6.22980
 6.8956   6.23497
 6.8864   6.22534
 6.8773   6.35801
 6.8682   6.66179
 6.8591   6.69672
 6.8500   6.53341
 6.8410   6.58172
 6.8320   6.73309
 6.8230   6.63836
 6.8140   6.61307
 6.8051   6.71297
 6.7962   6.75655
 6.7873   6.81923
 6.7784   6.80439
 6.7695   6.72983
 6.7607   6.76169
 6.7519   6.85026
 6.7431   6.80560
 6.7344   6.74908
 6.7256   6.82470
 6.7169   6.88862
 6.7082   6.88294
 6.6996   6.89200
 6.6909   6.98693
 6.6823   7.02016
 6.6737   7.00388
 6.6651   7.00252
 6.6566   7.07344
 6.6480   7.18265
 6.6395   7.27926
 6.6310   7.22369
 6.6226   7.18063
 6.6141   7.18665
 6.6057   7.18661
 6.5973   7.26328
 6.5889   7.26037
 6.5805   7.26701
 6.5722   7.32574
 6.5639   7.31810
 6.5556   7.22232
 6.5473   7.10397
 6.5390   7.12245
 6.5308   7.26355
 6.5226   7.30662
 6.5144   7.25047
 6.5062   7.34651
 6.4981   7.52880
 6.4900   7.53521
 6.4818   7.46633
 6.4737   7.38368
 6.4657   7.17584
 6.4576   7.02769
 6.4496   7.07430
 6.4416   6.98504
 6.4336   6.83862
 6.4256   6.67982
 6.4177   6.55770
 6.4097   6.36895
 6.4018   6.09793
 6.3939   5.97994
 6.3860   5.79663
 6.3782   5.66819
 6.3704   5.61196
 6.3625   5.44625
 6.3547   5.34671
 6.3470   5.29308
 6.3392   5.24471
 6.3315   5.11693
 6.3237   5.00239
 6.3160   4.92533
 6.3083   4.89597
 6.3007   4.82061
 6.2930   4.78444
 6.2854   4.84232
 6.2778   4.83769
 6.2702   4.80205
 6.2626   4.79457
 6.2551   4.69497
 6.2476   4.63879
 6.2400   4.74076
 6.2325   4.71289
 6.2251   4.68785
 6.2176   4.69862
 6.2101   4.66393
 6.2027   4.71306
 6.1953   4.76022
 6.1879   4.78599
 6.1805   4.73098
 6.1732   4.67390
 6.1658   4.63491
 6.1585   4.69094
 6.1512   4.77057
 6.1439   4.82960
 6.1367   4.84365
 6.1294   4.79370
 6.1222   4.78559
 6.1149   4.83256
 6.1077   4.78347
 6.1006   4.81734
 6.0934   4.90252
 6.0862   4.92263
 6.0791   4.92173
 6.0720   4.93059
 6.0649   4.95141
 6.0578   4.99286
 6.0507   5.00164
 6.0437   5.00801
 6.0366   5.01937
 6.0296   4.89225
 6.0226   4.80204
 6.0156   4.81635
 6.0087   4.84657
 6.0017   4.83509
 5.9948   4.82563
 5.9878   4.79451
 5.9809   4.75169
 5.9740   4.72982
 5.9672   4.69671
 5.9603   4.77155
 5.9535   4.82397
 5.9466   4.78611
 5.9398   4.91239
 5.9330   4.92251
 5.9262   4.84300
 5.9195   4.77516
 5.9127   4.82221
 5.9060   4.89254
 5.8993   4.96242
 5.8926   4.88331
 5.8859   4.87995
 5.8792   4.89898
 5.8726   4.91115
 5.8659   4.98495
 5.8593   4.99031
 5.8527   4.93876
 5.8461   4.87454
 5.8395   4.93776
 5.8329   5.02655
 5.8264   5.01133
 5.8198   4.98855
 5.8133   5.00197
 5.8068   4.96877
 5.8003   5.01577
 5.7938   5.10415
 5.7874   5.01934
 5.7809   5.06519
 5.7745   5.23056
 5.7680   5.24061
 5.7616   5.13048
 5.7552   5.09435
 5.7489   5.13845
 5.7425   5.11491
 5.7361   5.09025
 5.7298   5.12492
 5.7235   5.17284
 5.7172   5.17937
 5.7109   5.15516
 5.7046   5.07100
 5.6983   5.02134
 5.6921   5.07649
 5.6858   5.05587
 5.6796   5.06451
 5.6734   5.12730
 5.6672   5.14002
 5.6610   5.13706
 5.6548   5.09493
 5.6487   5.06905
 5.6425   5.11370
 5.6364   5.11100
 5.6303   5.04097
 5.6242   5.06604
 5.6181   5.06079
 5.6120   4.97512
 5.6059   4.95933
 5.5999   5.03782
 5.5938   5.06498
 5.5878   5.02703
 5.5818   5.09297
 5.5758   5.12730
 5.5698   5.11166
 5.5638   5.15773
 5.5578   5.15910
 5.5519   5.09818
 5.5460   5.07083
 5.5400   5.16630
 5.5341   5.22691
 5.5282   5.24816
 5.5223   5.30632
 5.5164   5.35168
 5.5106   5.25687
 5.5047   5.18864
 5.4989   5.30420
 5.4931   5.37796
 5.4873   5.42637
 5.4815   5.53453
 5.4757   5.58077
 5.4699   5.51901
 5.4641   5.55504
 5.4584   5.51299
 5.4527   5.43383
 5.4469   5.42002
 5.4412   5.50344
 5.4355   5.54128
 5.4298   5.50626
 5.4241   5.52475
 5.4185   5.53295
 5.4128   5.47395
 5.4072   5.47177
 5.4015   5.54368
 5.3959   5.47139
 5.3903   5.31627
 5.3847   5.33552
 5.3791   5.40512
 5.3735   5.41173
 5.3680   5.49944
 5.3624   5.58393
 5.3569   5.53796
 5.3514   5.46226
 5.3458   5.46566
 5.3403   5.46204
 5.3348   5.43051
 5.3294   5.40950
 5.3239   5.44939
 5.3184   5.44088
 5.3130   5.37213
 5.3075   5.45290
 5.3021   5.66709
 5.2967   5.76918
 5.2913   5.73143
 5.2859   5.64054
 5.2805   5.63722
 5.2751   5.68821
 5.2698   5.79647
 5.2644   5.79224
 5.2591   5.77541
 5.2538   5.78973
 5.2485   5.73895
 5.2431   5.81000
 5.2378   5.95549
 5.2326   5.93369
 5.2273   5.88756
 5.2220   5.95060
 5.2168   6.07420
 5.2115   6.12721
 5.2063   6.06107
 5.2011   6.04316
 5.1959   6.11168
 5.1907   6.12016
 5.1855   6.17850
 5.1803   6.19124
 5.1751   6.22554
 5.1700   6.25748
 5.1648   6.19110
 5.1597   6.18195
 5.1545   6.25115
 5.1494   6.24350
 5.1443   6.24933
 5.1392   6.27240
 5.1341   6.28860
 5.1291   6.30995
 5.1240   6.36188
 5.1189   6.35435
 5.1139   6.31340
 5.1088   6.34120
 5.1038   6.31071
 5.0988   6.36091
 5.0938   6.32128
 5.0888   6.21628
 5.0838   6.27526
 5.0788   6.38021
 5.0738   6.40181
 5.0689   6.38325
 5.0639   6.33124
 5.0590   6.34424
 5.0541   6.37652
 5.0491   6.30717
 5.0442   6.33856
 5.0393   6.37780
 5.0344   6.34316
 5.0296   6.36734
 5.0247   6.44002
 5.0198   6.48845
 5.0150   6.49726
 5.0101   6.37251
 5.0053   6.28973
 5.0004   6.33386
 4.9956   6.40891
 4.9908   6.43450
 4.9860   6.43737
 4.9812   6.48470
 4.9765   6.50123
 4.9717   6.49439
 4.9669   6.58355
 4.9622   6.69150
 4.9574   6.68490
 4.9527   6.62377
 4.9480   6.65161
 4.9432   6.65822
 4.9385   6.72349
 4.9338   6.87134
 4.9291   6.87673
 4.9245   6.82731
 4.9198   6.79045
 4.9151   6.84891
 4.9105   6.95552
 4.9058   6.92636
 4.9012   7.02075
 4.8966   7.15549
 4.8919   7.13043
 4.8873   7.16081
 4.8827   7.23342
 4.8781   7.30289
 4.8736   7.36081
 4.8690   7.45301
 4.8644   7.57787
 4.8599   7.53412
 4.8553   7.49976
 4.8508   7.63353
 4.8462   7.63781
 4.8417   7.59719
 4.8372   7.71146
 4.8327   7.78496
 4.8282   7.75592
 4.8237   7.76338
 4.8192   7.79818
 4.8147   7.86079
 4.8103   7.92847
 4.8058   7.91527
 4.8014   7.86295
 4.7969   7.91208
 4.7925   7.91887
 4.7881   7.81353
 4.7836   7.82016
 4.7792   7.85233
 4.7748   7.89785
 4.7704   8.00553
 4.7660   8.03360
 4.7617   8.02669
 4.7573   8.15574
 4.7530   8.21423
 4.7486   8.18558
 4.7443   8.21724
 4.7399   8.25766
 4.7356   8.28887
 4.7313   8.30984
 4.7270   8.31342
 4.7226   8.32651
 4.7184   8.29816
 4.7141   8.37596
 4.7098   8.48680
 4.7055   8.42874
 4.7012   8.40637
 4.6970   8.50148
 4.6927   8.45306
 4.6885   8.45053
 4.6842   8.49456
 4.6800   8.43234
 4.6758   8.50238
 4.6716   8.65867
 4.6674   8.66040
 4.6632   8.72295
 4.6590   8.80812
 4.6548   8.78651
 4.6506   8.76959
 4.6465   8.90710
 4.6423   9.01819
 4.6382   8.94421
 4.6340   9.04695
 4.6299   9.25491
 4.6258   9.26372
 4.6216   9.27409
 4.6175   9.40735
 4.6134   9.53698
 4.6093   9.59147
 4.6052   9.57908
 4.6011   9.66696
 4.5971   9.66198
 4.5930   9.65997
 4.5889   9.78515
 4.5849   9.90303
 4.5808   9.93582
 4.5768   9.93253
 4.5727   9.98549
 4.5687  10.11600
 4.5647  10.20340
 4.5607  10.17340
 4.5567  10.15430
 4.5526  10.23010
 4.5487  10.33190
 4.5447  10.31880
 4.5407  10.18190
 4.5367  10.19340
 4.5328  10.16120
 4.5288  10.10520
 4.5248  10.18100
 4.5209  10.16050
 4.5170  10.15590
 4.5130  10.15000
 4.5091  10.08190
 4.5052  10.13810
 4.5013  10.25580
 4.4974  10.28930
 4.4935  10.21140
 4.4896  10.21880
 4.4857  10.18160
 4.4818  10.17090
 4.4779  10.26360
 4.4741  10.32680
 4.4702  10.20020
 4.4664  10.19210
 4.4625  10.37960
 4.4587  10.49860
 4.4549  10.52450
 4.4510  10.59350
 4.4472  10.62920
 4.4434  10.60400
 4.4396  10.65180
 4.4358  10.80690
 4.4320  10.98720
 4.4282  10.95390
 4.4245  10.84350
 4.4207  10.90190
 4.4169  11.12090
 4.4132  11.26190
 4.4094  11.20360
 4.4057  11.21380
 4.4019  11.29850
 4.3982  11.35600
 4.3945  11.47930
 4.3907  11.60220
 4.3870  11.69610
 4.3833  11.74260
 4.3796  11.72670
 4.3759  11.76490
 4.3722  11.83560
 4.3685  11.93460
 4.3649  12.02570
 4.3612  12.06540
 4.3575  12.12570
 4.3539  12.21680
 4.3502  12.17060
 4.3466  12.09320
 4.3429  12.20830
 4.3393  12.27800
 4.3357  12.37020
 4.3320  12.42310
 4.3284  12.47780
 4.3248  12.57660
 4.3212  12.63270
 4.3176  12.67930
 4.3140  12.74880
 4.3105  12.70180
 4.3069  12.59570
 4.3033  12.65090
 4.2997  12.77170
 4.2962  12.72270
 4.2926  12.74390
 4.2890  12.80610
 4.2855  12.84200
 4.2820  12.83140
 4.2784  12.91590
 4.2749  12.95200
 4.2714  12.95710
 4.2679  12.91750
 4.2644  13.00090
 4.2609  13.18760
 4.2574  13.23530
 4.2539  13.25220
 4.2504  13.26150
 4.2469  13.15220
 4.2434  13.09580
 4.2400  13.20520
 4.2365  13.21110
 4.2330  13.16440
 4.2296  13.18850
 4.2261  13.26890
 4.2227  13.32860
 4.2193  13.29680
 4.2158  13.28730
 4.2124  13.41740
 4.2090  13.56070
 4.2056  13.54450
 4.2022  13.49750
 4.1988  13.60770
 4.1954  13.61160
 4.1920  13.41370
 4.1886  13.31610
 4.1852  13.48770
 4.1818  13.53480
 4.1785  13.53290
 4.1751  13.60550
 4.1717  13.64830
 4.1684  13.57910
 4.1650  13.61900
 4.1617  13.72630
 4.1584  13.77400
 4.1550  13.70990
 4.1517  13.72000
 4.1484  13.78080
 4.1451  13.88670
 4.1418  13.85410
 4.1384  13.70430
 4.1351  13.60900
 4.1319  13.62370
 4.1286  13.70850
 4.1253  13.72010
 4.1220  13.62990
 4.1187  13.60240
 4.1155  13.57010
 4.1122  13.56500
 4.1089  13.80930
 4.1057  13.88550
 4.1024  13.69390
 4.0992  13.71290
 4.0959  13.79170
 4.0927  13.68150
 4.0895  13.49580
 4.0863  13.38840
 4.0830  13.40170
 4.0798  13.45430
 4.0766  13.37770
 4.0734  13.27750
 4.0702  13.30740
 4.0670  13.34270
 4.0639  13.22120
 4.0607  13.02860
 4.0575  12.81590
 4.0543  12.75130
 4.0511  12.83820
 4.0480  12.68730
 4.0448  12.42840
 4.0417  12.11220
 4.0385  11.87360
 4.0354  11.83170
 4.0323  11.70730
 4.0291  11.52560
 4.0260  11.43030
 4.0229  11.32160
 4.0197  11.24630
 4.0166  11.31230
 4.0135  11.33010
 4.0104  11.27540
 4.0073  11.08260
 4.0042  10.89860
 4.0011  10.82550
 3.9981  10.80240
 3.9950  10.73930
 3.9919  10.65200
 3.9888  10.57490
 3.9857  10.65320
 3.9827  10.69550
 3.9796  10.65170
 3.9766  10.60720
 3.9735  10.55280
 3.9705  10.54870
 3.9675  10.60390
 3.9644  10.72290
 3.9614  10.72090
 3.9584  10.68880
 3.9554  10.80320
 3.9523  10.88860
 3.9493  11.03370
 3.9463  11.09500
 3.9433  11.18610
 3.9403  11.35650
 3.9373  11.43360
 3.9343  11.49440
 3.9314  11.58310
 3.9284  11.63840
 3.9254  11.66610
 3.9224  11.59460
 3.9195  11.57870
 3.9165  11.69180
 3.9136  11.72120
 3.9106  11.76470
 3.9077  11.76570
 3.9047  11.58780
 3.9018  11.69940
 3.8988  11.89560
 3.8959  11.84180
 3.8930  11.71430
 3.8901  11.66120
 3.8872  11.67750
 3.8842  11.71910
 3.8813  11.75860
 3.8784  11.82410
 3.8755  11.92660
 3.8726  11.82660
 3.8697  11.75530
 3.8669  11.75440
 3.8640  11.79340
 3.8611  11.93070
 3.8582  11.94370
 3.8554  12.02300
 3.8525  12.00000
 3.8496  11.98450
 3.8468  12.07150
 3.8439  12.10480
 3.8411  12.02580
 3.8382  11.95830
 3.8354  12.06080
 3.8326  12.13750
 3.8297  12.13450
 3.8269  12.26890
 3.8241  12.48280
 3.8213  12.61930
 3.8185  12.69320
 3.8157  12.68130
 3.8128  12.85910
 3.8100  13.00540
 3.8072  12.97280
 3.8045  13.13460
 3.8017  13.41250
 3.7989  13.60020
 3.7961  13.74150
 3.7933  13.97340
 3.7906  14.13630
 3.7878  14.26080
 3.7850  14.38470
 3.7822  14.43130
 3.7795  14.54720
 3.7767  14.56580
 3.7740  14.50910
 3.7713  14.48150
 3.7685  14.45090
 3.7658  14.57920
 3.7630  14.57190
 3.7603  14.40320
 3.7576  14.34190
 3.7549  14.39380
 3.7521  14.39360
 3.7494  14.49360
 3.7467  14.50990
 3.7440  14.54300
 3.7413  14.55240
 3.7386  14.59630
 3.7359  14.50760
 3.7332  14.44750
 3.7306  14.42410
 3.7279  14.40110
 3.7252  14.42920
 3.7225  14.48690
 3.7199  14.48950
 3.7172  14.43080
 3.7145  14.40120
 3.7119  14.37020
 3.7092  14.30180
 3.7066  14.39750
 3.7039  14.59410
 3.7013  14.65100
 3.6986  14.61870
 3.6960  14.57670
 3.6934  14.50350
 3.6907  14.45410
 3.6881  14.52200
 3.6855  14.64010
 3.6829  14.62050
 3.6803  14.60770
 3.6776  14.51900
 3.6750  14.55930
 3.6724  14.51460
 3.6698  14.41190
 3.6672  14.38190
 3.6646  14.40720
 3.6620  14.38340
 3.6595  14.44580
 3.6569  14.53640
 3.6543  14.46890
 3.6517  14.54350
 3.6492  14.66020
 3.6466  14.47590
 3.6440  14.33850
 3.6415  14.39310
 3.6389  14.42220
 3.6364  14.44380
 3.6338  14.25490
 3.6313  14.09890
 3.6287  14.12250
 3.6262  14.21750
 3.6237  14.13800
 3.6211  14.07460
 3.6186  13.87040
 3.6161  13.73010
 3.6136  13.74600
 3.6111  13.80640
 3.6085  13.87490
 3.6060  13.79290
 3.6035  13.77890
 3.6010  13.81800
 3.5985  13.73880
 3.5960  13.65000
 3.5935  13.46100
 3.5910  13.33360
 3.5886  13.38410
 3.5861  13.37750
 3.5836  13.12240
 3.5811  13.06940
 3.5787  13.14270
 3.5762  13.10030
 3.5737  12.76820
 3.5713  12.54030
 3.5688  12.46600
 3.5663  12.46170
 3.5639  12.47940
 3.5614  12.46030
 3.5590  12.42830
 3.5566  12.24140
 3.5541  12.08770
 3.5517  12.10160
 3.5493  12.07340
 3.5468  11.94680
 3.5444  11.92550
 3.5420  11.99940
 3.5396  12.09520
 3.5372  12.00790
 3.5347  11.80460
 3.5323  11.73950
 3.5299  11.61100
 3.5275  11.46440
 3.5251  11.26740
 3.5227  11.22750
 3.5203  11.31320
 3.5180  11.24930
 3.5156  11.04120
 3.5132  10.97260
 3.5108  10.79620
 3.5084  10.78510
 3.5061  10.81110
 3.5037  10.86210
 3.5013  10.85800
 3.4990  10.69560
 3.4966  10.73230
 3.4943  10.77530
 3.4919  10.74730
 3.4895  10.78660
 3.4872  10.86600
 3.4849  10.75730
 3.4825  10.51330
 3.4802  10.57400
 3.4778  10.69700
 3.4755  10.71130
 3.4732  10.46200
 3.4709  10.40670
 3.4685  10.66110
 3.4662  10.90390
 3.4639  10.95030
 3.4616  11.02670
 3.4593  11.07890
 3.4570  10.87940
 3.4547  10.80640
 3.4524  10.83120
 3.4501  10.80830
 3.4478  10.82900
 3.4455  10.85150
 3.4432  10.93250
 3.4409  10.90690
 3.4386  10.89750
 3.4364  10.75720
 3.4341  10.83110
 3.4318  11.08460
 3.4295  10.86660
 3.4273  10.52960
 3.4250  10.39060
 3.4228  10.37880
 3.4205  10.56400
 3.4182  10.62650
 3.4160  10.52880
 3.4137  10.63890
 3.4115  10.92310
 3.4093  10.81630
 3.4070  10.59420
 3.4048  10.51990
 3.4025  10.47800
 3.4003  10.48690
 3.3981  10.57590
 3.3958  10.56070
 3.3936  10.46220
 3.3914  10.42160
 3.3892  10.42100
 3.3870  10.25980
 3.3848  10.25400
 3.3826  10.38500
 3.3804  10.45810
 3.3782  10.37870
 3.3760  10.36980
 3.3738  10.41500
 3.3716  10.39610
 3.3694  10.33210
 3.3672  10.31890
 3.3650  10.31750
 3.3628  10.15350
 3.3606  10.00050
 3.3585  10.17660
 3.3563  10.32210
 3.3541  10.12310
 3.3520   9.81135
 3.3498   9.91524
 3.3476  10.04260
 3.3455  10.07860
 3.3433  10.10410
 3.3411  10.01490
 3.3390   9.93673
 3.3369  10.21150
 3.3347  10.31340
 3.3326  10.17870
 3.3304  10.34970
 3.3283  10.42700
 3.3262  10.15950
 3.3240  10.22980
 3.3219  10.41200
 3.3198  10.29950
 3.3176  10.25510
 3.3155  10.11770
 3.3134  10.10680
 3.3113  10.23770
 3.3092  10.28700
 3.3071  10.32060
 3.3049  10.31790
 3.3028  10.20360
 3.3007  10.15280
 3.2986  10.32760
 3.2965  10.34550
 3.2944  10.47610
 3.2924  10.46740
 3.2903  10.27500
 3.2882  10.00350
 3.2861  10.12250
 3.2840  10.29580
 3.2819  10.23940
 3.2799  10.29610
 3.2778  10.42720
 3.2757  10.30540
 3.2736   9.99149
 3.2716   9.79524
 3.2695   9.69279
 3.2675   9.85907
 3.2654  10.19320
 3.2634  10.11000
 3.2613   9.93624
 3.2593  10.05390
 3.2572  10.15990
 3.2552   9.94920
 3.2531   9.64886
 3.2511   9.81516
 3.2490   9.99971
 3.2470   9.97309
 3.2450  10.03570
 3.2429   9.94489
 3.2409   9.83539
 3.2389   9.90286
 3.2369   9.84866
 3.2348   9.83645
 3.2328   9.85340
 3.2308   9.80455
 3.2288   9.73590
 3.2268   9.70698
 3.2248   9.71293
 3.2228   9.68380
 3.2208   9.75630
 3.2188   9.93151
 3.2168   9.86145
 3.2148   9.59763
 3.2128   9.45639
 3.2108   9.44147
 3.2088   9.52283
 3.2068   9.58829
 3.2049   9.53199
 3.2029   9.38711
 3.2009   9.35025
 3.1989   9.29227
 3.1970   9.26128
 3.1950   9.23500
 3.1930   9.17247
 3.1911   8.92079
 3.1891   9.06648
 3.1871   9.56801
 3.1852   9.39693
 3.1832   9.17139
 3.1813   9.29236
 3.1793   9.12562
 3.1774   8.95596
 3.1754   9.03013
 3.1735   8.96927
 3.1715   8.91611
 3.1696   8.78409
 3.1677   8.61440
 3.1657   8.69279
 3.1638   8.86319
 3.1619   8.79550
 3.1599   8.58814
 3.1580   8.70942
 3.1561   8.97974
 3.1542   8.83356
 3.1523   8.42629
 3.1503   8.71669
 3.1484   8.96652
 3.1465   8.71745
 3.1446   8.51965
 3.1427   8.26037
 3.1408   8.08236
 3.1389   8.09315
 3.1370   8.25745
 3.1351   8.62963
 3.1332   8.79161
 3.1313   8.50762
 3.1294   8.24943
 3.1275   8.24833
 3.1257   8.17991
 3.1238   8.13920
 3.1219   8.46927
 3.1200   8.50972
 3.1181   8.24950
 3.1163   8.05361
 3.1144   8.13001
 3.1125   7.98653
 3.1107   7.90430
 3.1088   7.79859
 3.1069   7.81631
 3.1051   7.96098
 3.1032   8.20904
 3.1014   8.25397
 3.0995   8.26985
 3.0976   8.20229
 3.0958   7.65409
 3.0940   7.53939
 3.0921   7.82576
 3.0903   7.77560
 3.0884   7.47156
 3.0866   7.55987
 3.0848   7.56607
 3.0829   6.98325
 3.0811   6.93119
 3.0793   7.70932
 3.0774   8.13854
 3.0756   7.95037
 3.0738   7.89332
 3.0720   7.83248
 3.0701   7.53288
 3.0683   7.15069
 3.0665   7.21771
 3.0647   7.29582
 3.0629   7.07420
 3.0611   7.04087
 3.0593   7.14961
 3.0575   7.18685
 3.0557   7.14016
 3.0539   7.33107
 3.0521   7.17318
 3.0503   7.12149
 3.0485   7.24378
 3.0467   7.22642
 3.0449   7.07735
 3.0431   7.02037
 3.0413   7.29096
 3.0396   7.59886
 3.0378   7.49516
 3.0360   7.08327
 3.0342   7.43863
 3.0324   7.59835
 3.0307   7.51512
 3.0289   7.56154
 3.0271   7.26681
 3.0254   7.18738
 3.0236   7.25872
 3.0218   7.09414
 3.0201   6.55284
 3.0183   6.23815
 3.0166   6.24676
 3.0148   6.43257
 3.0130   6.91315
 3.0113   6.99786
 3.0096   6.81967
 3.0078   6.67965
 3.0061   6.83647
 3.0043   7.02536
 3.0026   7.12124
 3.0008   6.93894
 2.9991   6.64498
 2.9974   6.43631
 2.9956   6.28542
 2.9939   6.13680
 2.9922   6.03460
 2.9905   6.59571
 2.9887   6.77543
 2.9870   6.48771
 2.9853   6.59484
 2.9836   6.87453
 2.9819   6.94190
 2.9802   6.91131
 2.9784   7.01203
 2.9767   6.95839
 2.9750   7.17272
 2.9733   7.17790
 2.9716   6.73501
 2.9699   6.72171
 2.9682   6.64034
 2.9665   6.18708
 2.9648   6.11133
 2.9631   6.37684
 2.9614   6.83034
 2.9597   6.80748
 2.9581   6.64020
 2.9564   6.78908
 2.9547   7.00161
 2.9530   6.98813
 2.9513   6.74679
 2.9496   6.58555
 2.9480   6.62802
 2.9463   6.83132
 2.9446   6.79868
 2.9429   6.77076
 2.9413   6.66399
 2.9396   6.58844
 2.9379   6.32748
 2.9363   6.02998
 2.9346   6.12105
 2.9330   6.48374
 2.9313   6.50204
 2.9296   6.28892
 2.9280   6.09966
 2.9263   6.30596
 2.9247   6.64280
 2.9230   6.91056
 2.9214   6.88580
 2.9197   6.48136
 2.9181   6.57611
 2.9165   6.81738
 2.9148   6.39389
 2.9132   6.28835
 2.9116   6.58154
 2.9099   6.88777
 2.9083   6.89677
 2.9067   7.11554
 2.9050   7.16168
 2.9034   6.41638
 2.9018   6.17877
 2.9002   6.81004
 2.8985   6.97872
 2.8969   6.46563
 2.8953   6.49032
 2.8937   6.59878
 2.8921   6.49511
 2.8905   6.52830
 2.8888   6.69375
 2.8872   6.76047
 2.8856   7.01212
 2.8840   7.44647
 2.8824   7.02020
 2.8808   6.46808
 2.8792   6.70938
 2.8776   6.91025
 2.8760   6.94817
 2.8744   7.09801
 2.8728   7.05780
 2.8712   7.09118
 2.8697   7.48155
 2.8681   7.59577
 2.8665   7.08252
 2.8649   6.78419
 2.8633   7.04532
 2.8617   6.85118
 2.8602   6.59463
 2.8586   6.59944
 2.8570   6.74701
 2.8554   6.79766
 2.8539   6.96199
 2.8523   7.18048
 2.8507   7.12152
 2.8492   7.34110
 2.8476   7.19229
 2.8460   7.01561
 2.8445   7.01832
 2.8429   6.74836
 2.8413   6.65919
 2.8398   6.76790
 2.8382   6.74745
 2.8367   6.68914
 2.8351   6.91766
 2.8336   7.07859
 2.8320   7.08824
 2.8305   6.78575
 2.8289   6.50261
 2.8274   6.66026
 2.8259   7.02771
 2.8243   6.87281
 2.8228   7.12116
 2.8213   7.24315
 2.8197   6.88307
 2.8182   6.47698
 2.8167   6.41907
 2.8151   6.54536
 2.8136   6.44216
 2.8121   6.29340
 2.8106   6.49444
 2.8090   6.99343
 2.8075   7.01391
 2.8060   6.71399
 2.8045   6.82750
 2.8030   7.00915
 2.8014   6.82498
 2.7999   6.80263
 2.7984   6.80983
 2.7969   6.38480
 2.7954   5.95949
 2.7939   5.91912
 2.7924   6.45570
 2.7909   6.91740
 2.7894   7.02993
 2.7879   6.40111
 2.7864   6.18012
 2.7849   6.63649
 2.7834   6.36938
 2.7819   6.07681
 2.7804   6.25575
 2.7789   6.37662
 2.7774   6.49549
 2.7759   6.77357
 2.7745   6.49429
 2.7730   6.19779
 2.7715   6.20859
 2.7700   6.28425
 2.7685   6.38448
 2.7671   6.62580
 2.7656   6.41940
 2.7641   6.24023
 2.7626   6.13968
 2.7612   6.11517
 2.7597   6.05442
 2.7582   5.95293
 2.7568   5.47459
 2.7553   5.69404
 2.7538   6.06226
 2.7524   6.22501
 2.7509   5.78187
 2.7494   5.75757
 2.7480   6.22014
 2.7465   6.55414
 2.7451   6.47101
 2.7436   6.18855
 2.7422   6.28688
 2.7407   6.72628
 2.7393   6.55898
 2.7378   6.10730
 2.7364   6.40792
 2.7350   7.14378
 2.7335   7.09505
 2.7321   6.59470
 2.7306   6.60600
 2.7292   7.11285
 2.7278   7.28393
 2.7263   7.88938
 2.7249   8.72023
 2.7235   8.59292
 2.7220   8.33452
 2.7206   8.74019
 2.7192   9.16067
 2.7178   9.50760
 2.7163  10.24010
 2.7149  10.76650
 2.7135  11.22120
 2.7121  11.70770
 2.7106  12.22120
 2.7092  12.06460
 2.7078  12.36940
 2.7064  13.15320
 2.7050  13.33290
 2.7036  13.67610
 2.7022  14.17090
 2.7008  14.31940
 2.6994  14.66150
 2.6980  15.19140
 2.6965  15.21120
 2.6951  15.01570
 2.6938  15.22690
 2.6923  15.29110
 2.6910  15.35680
 2.6896  15.43320
 2.6882  15.72980
 2.6868  15.83900
 2.6854  16.24120
 2.6840  16.32770
 2.6826  15.93350
 2.6812  15.97710
 2.6798  16.24110
 2.6784  16.50070
 2.6771  16.79360
 2.6757  17.06050
 2.6743  16.92080
 2.6729  16.97820
 2.6715  17.46530
 2.6702  17.42980
 2.6688  17.04270
 2.6674  17.31160
 2.6660  17.46310
 2.6647  17.29120
 2.6633  17.17630
 2.6619  17.58460
 2.6606  18.00900
 2.6592  18.04670
 2.6578  17.92700
 2.6565  17.92110
 2.6551  17.76040
 2.6538  17.74260
 2.6524  17.71900
 2.6511  18.00000
 2.6497  17.75940
 2.6484  17.26060
 2.6470  17.22670
 2.6456  17.85680
 2.6443  18.25590
 2.6429  18.18750
 2.6416  18.03370
 2.6403  18.26460
 2.6389  18.46550
 2.6376  18.45940
 2.6362  18.44280
 2.6349  18.64370
 2.6336  18.56530
 2.6322  17.87320
 2.6309  18.22740
 2.6296  18.92010
 2.6282  18.80730
 2.6269  18.73880
 2.6256  18.44550
 2.6242  18.38470
 2.6229  18.65950
 2.6216  18.59840
 2.6203  18.23130
 2.6189  18.59760
 2.6176  18.92170
 2.6163  18.81100
 2.6150  18.46800
 2.6136  18.23240
 2.6123  18.13580
 2.6110  18.25960
 2.6097  18.18910
 2.6084  18.25760
 2.6071  18.81910
 2.6058  18.81380
 2.6044  18.30410
 2.6031  18.09900
 2.6018  18.44030
 2.6005  18.60390
 2.5992  18.53880
 2.5979  18.48930
 2.5966  18.88020
 2.5953  19.18040
 2.5940  18.67790
 2.5927  18.56850
 2.5914  18.98250
 2.5901  18.65570
 2.5888  18.53730
 2.5876  18.63060
 2.5863  18.91810
 2.5850  19.31660
 2.5837  19.08220
 2.5824  18.61760
 2.5811  18.60660
 2.5798  18.90720
 2.5785  19.07780
 2.5773  19.19020
 2.5760  19.35430
 2.5747  19.07020
 2.5734  19.17740
 2.5722  19.30600
 2.5709  19.24570
 2.5696  19.09830
 2.5683  18.80330
 2.5671  18.93350
 2.5658  18.89500
 2.5645  18.61510
 2.5633  19.02250
 2.5620  19.34320
 2.5607  19.26290
 2.5595  19.13250
 2.5582  19.20800
 2.5569  19.32470
 2.5557  19.32030
 2.5544  19.29070
 2.5532  19.53930
 2.5519  19.38520
 2.5507  19.15680
 2.5494  18.68780
 2.5481  18.40400
 2.5469  18.76190
 2.5456  18.79500
 2.5444  18.59900
 2.5431  18.49810
 2.5419  18.63530
 2.5406  18.83950
 2.5394  19.01900
 2.5382  18.81980
 2.5369  18.78330
 2.5357  18.56030
 2.5344  18.71880
 2.5332  18.75760
 2.5320  18.76070
 2.5307  18.94180
 2.5295  18.88760
 2.5283  18.99730
 2.5270  19.18870
 2.5258  18.78180
 2.5246  18.72050
 2.5233  18.83080
 2.5221  18.80290
 2.5209  18.93980
 2.5197  18.85020
 2.5184  18.65120
 2.5172  18.68950
 2.5160  19.01940
 2.5148  19.46090
 2.5136  19.69010
 2.5123  19.51360
 2.5111  19.36650
 2.5099  19.36490
 2.5087  19.11510
 2.5075  19.01520
 2.5063  19.48910
 2.5051  19.84170
 2.5038  19.18470
 2.5026  18.84010
 2.5014  19.40480
 2.5002  19.78260
 2.4990  19.52340
 2.4978  19.09280
 2.4966  19.20860
 2.4954  19.29650
 2.4942  19.07390
 2.4930  19.12450
 2.4918  19.22150
 2.4906  19.10330
 2.4894  19.03550
 2.4882  19.13070
 2.4870  19.26410
 2.4858  19.74840
 2.4846  19.87080
 2.4835  19.80450
 2.4823  19.56190
 2.4811  19.17180
 2.4799  18.70910
 2.4787  18.93080
 2.4775  19.19810
 2.4764  19.74280
 2.4752  20.45720
 2.4740  20.24560
 2.4728  19.80650
 2.4716  19.86320
 2.4705  19.99950
 2.4693  20.07780
 2.4681  20.00610
 2.4669  19.69940
 2.4657  19.79560
 2.4646  19.75580
 2.4634  19.46780
 2.4622  19.34890
 2.4611  19.32560
 2.4599  19.80280
 2.4587  20.02070
 2.4576  19.98290
 2.4564  19.74360
 2.4552  19.68050
 2.4541  19.90040
 2.4529  20.17450
 2.4518  19.93420
 2.4506  19.67250
 2.4494  19.81430
 2.4483  20.04370
 2.4471  20.35620
 2.4460  20.34890
 2.4448  20.00410
 2.4437  20.01570
 2.4425  20.06900
 2.4414  19.47470
 2.4402  19.34720
 2.4391  19.98170
 2.4379  20.03340
 2.4368  19.73030
 2.4356  19.88810
 2.4345  20.25820
 2.4333  20.28840
 2.4322  20.58310
 2.4311  21.01800
 2.4299  20.69750
 2.4288  20.43080
 2.4276  20.63560
 2.4265  20.26380
 2.4254  20.14740
 2.4242  20.18170
 2.4231  20.49680
 2.4220  21.09400
 2.4209  21.12390
 2.4197  20.86310
 2.4186  20.73480
 2.4175  20.69050
 2.4163  20.49110
 2.4152  20.78950
 2.4141  20.90400
 2.4130  20.87310
 2.4118  21.11190
 2.4107  21.05780
 2.4096  20.70320
 2.4085  20.74890
 2.4074  20.52910
 2.4063  20.54230
 2.4051  20.46740
 2.4040  20.60580
 2.4029  20.78210
 2.4018  20.54650
 2.4007  20.61650
 2.3996  20.75160
 2.3985  20.35070
 2.3973  19.97170
 2.3962  20.73980
 2.3951  21.14720
 2.3940  20.21570
 2.3929  19.54030
 2.3918  19.80480
 2.3907  20.48120
 2.3896  20.57470
 2.3885  19.92260
 2.3874  19.97890
 2.3863  20.45730
 2.3852  20.31900
 2.3841  19.58630
 2.3830  19.05240
 2.3819  19.37830
 2.3808  19.57110
 2.3798  19.58990
 2.3786  19.88100
 2.3776  19.75250
 2.3765  18.93290
 2.3754  19.02030
 2.3743  19.31170
 2.3732  18.90250
 2.3721  18.33660
 2.3710  18.04930
 2.3700  18.22170
 2.3689  17.97410
 2.3678  17.77300
 2.3667  18.00590
 2.3656  18.07220
 2.3645  17.91860
 2.3635  18.19150
 2.3624  18.37920
 2.3613  18.21320
 2.3603  18.03520
 2.3592  18.03030
 2.3581  17.35440
 2.3570  17.37470
 2.3560  17.72450
 2.3549  17.14010
 2.3538  16.61240
 2.3527  16.62390
 2.3517  16.86530
 2.3506  16.70430
 2.3495  16.73500
 2.3485  16.73120
 2.3474  16.71420
 2.3464  16.42120
 2.3453  17.21140
 2.3442  17.78680
 2.3432  17.61970
 2.3421  17.53270
 2.3411  17.22120
 2.3400  17.42730
 2.3390  17.99430
 2.3379  18.31100
 2.3369  18.24700
 2.3358  17.90100
 2.3347  17.28820
 2.3337  17.15080
 2.3326  17.38710
 2.3316  18.07750
 2.3306  18.48030
 2.3295  18.47730
 2.3285  18.50720
 2.3274  18.55080
 2.3264  19.32570
 2.3253  19.44050
 2.3243  19.21800
 2.3232  19.38520
 2.3222  19.59360
 2.3212  19.44080
 2.3201  19.61330
 2.3191  19.73810
 2.3180  19.40170
 2.3170  19.18820
 2.3160  19.27870
 2.3149  19.28440
 2.3139  19.78350
 2.3129  19.95150
 2.3118  20.08270
 2.3108  20.17510
 2.3098  20.74590
 2.3088  20.60490
 2.3077  20.60580
 2.3067  20.81900
 2.3057  20.85320
 2.3047  20.91000
 2.3036  21.52020
 2.3026  21.81230
 2.3016  21.55950
 2.3006  21.03410
 2.2995  21.08810
 2.2985  21.10390
 2.2975  21.37840
 2.2965  21.51390
 2.2955  21.44680
 2.2944  21.77730
 2.2934  22.39250
 2.2924  22.96790
 2.2914  22.87680
 2.2904  22.47490
 2.2894  22.06160
 2.2884  21.53100
 2.2874  21.86640
 2.2864  22.64540
 2.2854  23.01010
 2.2843  23.08070
 2.2833  22.63110
 2.2823  22.62650
 2.2813  22.81200
 2.2803  22.68920
 2.2793  22.43010
 2.2783  22.35800
 2.2773  21.98070
 2.2763  21.96830
 2.2753  21.52510
 2.2743  21.68800
 2.2733  22.36070
 2.2723  22.15460
 2.2713  21.76160
 2.2703  22.17120
 2.2694  21.71870
 2.2684  20.86630
 2.2674  20.97260
 2.2664  21.49140
 2.2654  21.09150
 2.2644  20.38420
 2.2634  20.37320
 2.2624  20.71320
 2.2614  20.33420
 2.2605  19.74230
 2.2595  19.96420
 2.2585  20.67550
 2.2575  20.62550
 2.2565  19.86040
 2.2555  19.67360
 2.2546  19.79770
 2.2536  20.27370
 2.2526  20.30020
 2.2516  19.93290
 2.2506  20.33760
 2.2497  20.54530
 2.2487  20.92530
 2.2477  20.95500
 2.2467  21.34530
 2.2458  21.55040
 2.2448  21.78210
 2.2438  22.09220
 2.2428  22.02590
 2.2419  22.23940
 2.2409  22.60720
 2.2399  22.94370
 2.2390  23.38220
 2.2380  23.33100
 2.2370  23.11800
 2.2361  22.44540
 2.2351  22.23160
 2.2342  22.59360
 2.2332  22.75810
 2.2322  23.07420
 2.2313  23.00560
 2.2303  23.00680
 2.2294  22.91440
 2.2284  22.68630
 2.2274  22.72210
 2.2265  22.58170
 2.2255  22.70030
 2.2246  22.59440
 2.2236  21.89490
 2.2227  22.04800
 2.2217  22.32430
 2.2208  21.68590
 2.2198  21.44490
 2.2189  22.27920
 2.2179  22.57860
 2.2170  22.14310
 2.2160  21.62970
 2.2151  20.85050
 2.2141  20.70180
 2.2132  21.11460
 2.2122  20.91010
 2.2113  21.28550
 2.2103  22.34190
 2.2094  23.02690
 2.2085  23.05790
 2.2075  22.72690
 2.2066  22.99030
 2.2056  23.60610
 2.2047  23.29140
 2.2038  23.20760
 2.2028  23.58060
 2.2019  23.89350
 2.2010  24.82120
 2.2000  24.77310
 2.1991  24.51430
 2.1982  24.93550
 2.1972  24.59980
 2.1963  25.28340
 2.1954  26.64530
 2.1944  26.64000
 2.1935  26.90570
 2.1926  27.68860
 2.1917  27.83790
 2.1907  27.38990
 2.1898  27.06460
 2.1889  27.78470
 2.1880  28.54190
 2.1870  29.30490
 2.1861  29.23150
 2.1852  28.61870
 2.1843  29.38000
 2.1833  30.36310
 2.1824  30.65290
 2.1815  30.22240
 2.1806  29.56120
 2.1797  29.54560
 2.1788  29.66640
 2.1778  30.23250
 2.1769  31.01840
 2.1760  31.06810
 2.1751  31.34400
 2.1742  31.60460
 2.1733  31.12450
 2.1724  30.63240
 2.1715  30.50320
 2.1706  30.83360
 2.1696  31.65980
 2.1687  32.05120
 2.1678  32.26190
 2.1669  32.05390
 2.1660  31.24950
 2.1651  30.80560
 2.1642  31.37010
 2.1633  31.69930
 2.1624  31.21180
 2.1615  31.03870
 2.1606  31.55690
 2.1597  32.17270
 2.1588  31.51490
 2.1579  31.50500
 2.1570  31.34180
 2.1561  31.79210
 2.1552  32.76690
 2.1543  33.04410
 2.1534  32.38980
 2.1525  32.62580
 2.1517  32.15680
 2.1507  31.76570
 2.1499  31.72670
 2.1490  31.95400
 2.1481  31.86750
 2.1472  31.75230
 2.1463  31.74620
 2.1454  32.40280
 2.1445  32.54240
 2.1436  32.17060
 2.1428  32.53170
 2.1419  32.09430
 2.1410  31.43760
 2.1401  30.70650
 2.1392  30.63850
 2.1383  31.24870
 2.1375  31.71910
 2.1366  32.12220
 2.1357  32.14720
 2.1348  32.06720
 2.1339  32.01410
 2.1331  32.05610
 2.1322  31.26340
 2.1313  31.35140
 2.1304  31.90730
 2.1296  32.26790
 2.1287  32.41350
 2.1278  31.54500
 2.1269  31.59350
 2.1261  32.51840
 2.1252  32.51970
 2.1243  32.24880
 2.1235  32.19960
 2.1226  31.65670
 2.1217  31.24930
 2.1208  31.01850
 2.1200  31.00690
 2.1191  31.18490
 2.1183  31.42280
 2.1174  32.06460
 2.1165  32.09940
 2.1157  31.98090
 2.1148  31.99560
 2.1139  32.30800
 2.1131  31.98060
 2.1122  32.08240
 2.1113  32.05190
 2.1105  32.16360
 2.1096  31.90660
 2.1088  32.54710
 2.1079  33.10000
 2.1071  33.48560
 2.1062  34.00170
 2.1054  33.04580
 2.1045  31.81810
 2.1036  32.01880
 2.1028  32.49510
 2.1019  32.41000
 2.1011  31.68560
 2.1002  32.44690
 2.0994  33.52580
 2.0985  34.00110
 2.0977  33.46520
 2.0968  31.86630
 2.0960  32.31450
 2.0951  32.74760
 2.0943  33.02720
 2.0934  33.75490
 2.0926  33.59640
 2.0918  32.97660
 2.0909  32.99470
 2.0901  32.80310
 2.0892  33.04460
 2.0884  34.10810
 2.0875  33.88280
 2.0867  33.59600
 2.0859  33.64280
 2.0850  33.87250
 2.0842  35.01250
 2.0833  34.18710
 2.0825  33.99550
 2.0817  34.02210
 2.0808  33.28940
 2.0800  32.51030
 2.0792  34.54370
 2.0783  35.16840
 2.0775  33.13730
 2.0767  32.61080
 2.0759  33.18340
 2.0750  33.46740
 2.0742  33.08170
 2.0734  32.88320
 2.0725  33.57200
 2.0717  33.68360
 2.0709  33.95440
 2.0701  33.71180
 2.0692  33.48600
 2.0684  33.61890
 2.0676  34.37590
 2.0667  34.89750
 2.0659  34.04230
 2.0651  33.10190
 2.0643  32.82500
 2.0635  33.95320
 2.0626  34.28390
 2.0618  32.43530
 2.0610  31.78900
 2.0602  32.34680
 2.0594  32.44640
 2.0585  33.14140
 2.0577  34.28290
 2.0569  34.55620
 2.0561  33.71870
 2.0553  33.26980
 2.0545  33.14430
 2.0537  30.21490
 2.0528  30.45400
 2.0520  32.48800
 2.0512  33.11220
 2.0504  33.21370
 2.0496  32.52990
 2.0488  31.04070
 2.0480  31.03910
 2.0472  31.10550
 2.0464  30.83820
 2.0456  31.69500
 2.0447  31.52930
 2.0439  31.65040
 2.0431  33.56020
 2.0423  33.14730
 2.0415  32.21820
 2.0407  32.10680
 2.0399  32.12110
 2.0391  32.40810
 2.0383  32.78900
 2.0375  32.61330
 2.0367  32.16770
 2.0359  32.01090
 2.0351  31.15790
 2.0343  31.97370
 2.0335  32.19590
 2.0327  31.94530
 2.0319  31.94880
 2.0311  31.50800
 2.0303  31.03980
 2.0295  30.51550
 2.0287  30.52970
 2.0280  32.28680
 2.0272  33.15940
 2.0264  31.63920
 2.0256  30.45830
 2.0248  29.38340
 2.0240  30.42290
 2.0232  30.90810
 2.0224  29.46660
 2.0216  29.26400
 2.0208  29.51960
 2.0200  30.53990
 2.0193  31.92500
 2.0185  30.54570
 2.0177  29.88380
 2.0169  30.84970
 2.0161  31.82340
 2.0153  31.06440
 2.0146  30.39240
 2.0138  31.26610
 2.0130  32.01010
 2.0122  30.35490
 2.0114  27.30210
 2.0107  28.16780
 2.0099  29.57590
 2.0091  29.53050
 2.0083  29.70770
 2.0075  27.99520
 2.0068  27.77470
 2.0060  29.31420
 2.0052  30.09530
 2.0044  31.40300
 2.0037  30.28390
 2.0029  28.75890
 2.0021  29.77640
 2.0013  28.94990
 2.0006  28.51780
 1.9998  29.74790
