Name: Sulphur S
Type: Mineral
Class: Elements
Subclass: 
Particle Size: 45-125um
Sample No.: E-2A
Owner: JPL
Wavelength range: IR
Origin: 
Collected by JPL
Description: 





Measurement: Hemispherical reflectance
First Column: X
Second Column: Y
X Units:  Wavelength (micrometers)
Y Units:  Reflectance (percent)
First X Value: 15.3853
Last X Value: 2.00032
Number of X Values: 2256
Additional information: e02aa.txt
 
15.3853	39.0665
15.3397	37.1309
15.2945	35.7091
15.2495	34.8245
15.2048	34.5091
15.1603	34.9662
15.1161	36.4265
15.0722	38.4736
15.0285	40.017
14.9851	41.1804
14.9419	43.0411
14.8989	45.3779
14.8563	47.3177
14.8138	48.4751
14.7716	48.3927
14.7296	47.4367
14.6879	46.3475
14.6464	45.7914
14.6052	46.5429
14.5641	49.111
14.5233	52.9799
14.4828	56.8115
14.4424	59.7564
14.4023	61.5734
14.3624	62.1587
14.3227	61.5378
14.2833	59.9873
14.244	58.0636
14.205	56.1186
14.1662	54.3065
14.1276	52.8977
14.0892	52.1909
14.051	51.8789
14.0131	52.2266
13.9753	53.5674
13.9377	55.7241
13.9004	58.5949
13.8632	61.8454
13.8262	65.0991
13.7895	67.6888
13.7529	69.23
13.7165	70.2042
13.6803	71.0707
13.6443	71.7166
13.6085	72.032
13.5729	72.4237
13.5374	72.9148
13.5022	73.3665
13.4671	73.9999
13.4322	74.7218
13.3975	75.2551
13.363	75.7108
13.3286	76.3109
13.2944	76.7693
13.2604	77.1481
13.2266	77.531
13.193	77.8693
13.1595	78.2233
13.1262	78.4033
13.093	78.4693
13.06	78.5615
13.0272	78.5716
12.9946	78.479
12.9621	78.4965
12.9298	78.2653
12.8976	77.8332
12.8656	77.3894
12.8337	76.7799
12.8021	76.0172
12.7705	75.2685
12.7391	74.4175
12.7079	73.3597
12.6769	72.3217
12.6459	71.2637
12.6152	70.1957
12.5845	69.0909
12.5541	67.9661
12.5238	66.9205
12.4936	65.7899
12.4635	64.516
12.4337	63.1634
12.4039	61.7246
12.3743	59.958
12.3448	57.9064
12.3155	55.4743
12.2863	52.754
12.2573	49.858
12.2284	46.7958
12.1996	43.7942
12.171	40.8349
12.1425	37.9113
12.1141	35.1629
12.0859	32.5321
12.0578	29.9604
12.0298	27.6893
12.0019	25.7504
11.9742	23.9746
11.9466	22.3139
11.9192	20.9279
11.8918	19.6646
11.8646	18.6427
11.8375	18.0509
11.8106	18.1109
11.7837	19.0972
11.757	21.4146
11.7304	25.1032
11.7039	29.4107
11.6776	33.4036
11.6513	36.2179
11.6252	37.8718
11.5992	38.7512
11.5733	39.2639
11.5475	39.7288
11.5219	40.3337
11.4963	40.9731
11.4709	41.8157
11.4455	42.9637
11.4203	44.4572
11.3952	46.1796
11.3702	48.2607
11.3454	50.4454
11.3206	52.8256
11.2959	55.1879
11.2714	57.2381
11.2469	59.0082
11.2226	60.1568
11.1983	60.5854
11.1742	60.3497
11.1502	59.5653
11.1263	58.5474
11.1024	57.6327
11.0787	57.0832
11.0551	57.2209
11.0316	58.4885
11.0081	60.9524
10.9848	63.9051
10.9616	66.6012
10.9385	68.6257
10.9154	69.727
10.8925	69.925
10.8697	69.5059
10.8469	68.2089
10.8243	66.2895
10.8017	63.9549
10.7793	61.1932
10.7569	58.157
10.7346	55.356
10.7125	53.2486
10.6904	51.8328
10.6684	51.3207
10.6465	52.2091
10.6247	54.6444
10.6029	58.2999
10.5813	62.5005
10.5597	66.6125
10.5383	70.0062
10.5169	72.5518
10.4956	74.3265
10.4744	75.5456
10.4533	76.4745
10.4323	77.2908
10.4113	78.0198
10.3904	78.6649
10.3697	79.187
10.349	79.5801
10.3284	79.8952
10.3078	79.991
10.2874	79.9626
10.267	79.996
10.2467	79.8709
10.2265	79.7143
10.2064	79.6021
10.1863	79.4438
10.1663	79.3709
10.1464	79.548
10.1266	79.6388
10.1069	79.7792
10.0872	80.0631
10.0676	80.5269
10.0481	81.0573
10.0287	81.5403
10.0093	81.9578
9.99005	82.2949
9.97084	82.4479
9.95169	82.5548
9.93263	82.619
9.91364	82.7317
9.89472	82.7331
9.87587	82.7579
9.8571	82.7308
9.83839	82.7012
9.81976	82.6712
9.80119	82.6642
9.78271	82.6499
9.76428	82.7068
9.74592	82.8166
9.72764	82.9012
9.70943	82.8768
9.69128	82.7923
9.6732	82.6311
9.65518	82.4765
9.63724	82.3586
9.61935	82.1993
9.60155	81.9433
9.5838	81.8039
9.56611	81.7244
9.5485	81.5668
9.53094	81.3598
9.51345	81.2239
9.49604	81.1538
9.47867	81.2199
9.46137	81.3583
9.44414	81.5898
9.42697	81.8204
9.40986	82.1591
9.39281	82.6076
9.37583	83.0377
9.35891	83.2701
9.34204	83.4165
9.32524	83.4762
9.3085	83.3915
9.29182	83.3005
9.27519	83.2415
9.25863	83.2011
9.24213	83.0715
9.22568	82.9262
9.2093	82.8158
9.19297	82.7751
9.17669	82.8236
9.16048	82.8894
9.14433	82.9773
9.12823	83.1385
9.11218	83.304
9.0962	83.3383
9.08027	83.4
9.06439	83.4108
9.04858	83.3461
9.03281	83.218
9.0171	83.1286
9.00145	82.9694
8.98585	82.7635
8.9703	82.6371
8.9548	82.4465
8.93937	82.3236
8.92398	82.2381
8.90865	82.0973
8.89337	82.1923
8.87814	82.2708
8.86296	82.3745
8.84784	82.5138
8.83277	82.6086
8.81774	82.6807
8.80277	82.7431
8.78786	82.8177
8.77298	83.0398
8.75816	83.2472
8.7434	83.5436
8.72868	83.7858
8.714	83.9862
8.69938	84.2575
8.68481	84.5316
8.67029	84.7884
8.65581	85.0687
8.64139	85.3067
8.62701	85.6232
8.61268	85.8209
8.5984	85.9134
8.58416	86.0672
8.56997	86.1511
8.55583	86.1739
8.54174	86.2743
8.52769	86.3484
8.51368	86.3957
8.49973	86.4869
8.48582	86.5736
8.47195	86.6525
8.45813	86.7878
8.44436	87.0648
8.43062	87.3025
8.41693	87.4945
8.4033	87.628
8.3897	87.7694
8.37614	87.9278
8.36264	88.0547
8.34917	88.0933
8.33574	88.0933
8.32236	88.1867
8.30903	88.2099
8.29573	88.386
8.28248	88.5818
8.26927	88.6008
8.2561	88.5358
8.24298	88.5746
8.2299	88.6382
8.21685	88.6879
8.20385	88.6424
8.19089	88.7012
8.17797	88.6657
8.16509	88.5255
8.15225	88.3419
8.13946	88.1937
8.1267	88.0005
8.11398	87.7276
8.10131	87.4133
8.08867	87.1206
8.07606	86.8392
8.0635	86.5044
8.05099	86.0905
8.0385	85.5535
8.02606	84.9124
8.01366	84.354
8.00129	83.7524
7.98896	83.0227
7.97667	82.2092
7.96442	81.4355
7.9522	80.6922
7.94002	79.79
7.92788	78.7487
7.91578	77.6425
7.90371	76.4565
7.89168	75.2102
7.87969	73.8922
7.86773	72.535
7.85581	71.136
7.84392	69.747
7.83207	68.419
7.82026	67.1912
7.80849	66.0378
7.79674	64.9884
7.78503	64.1112
7.77337	63.3584
7.76173	62.7367
7.75012	62.177
7.73856	61.7156
7.72703	61.3424
7.71553	60.9872
7.70406	60.6234
7.69263	60.4077
7.68123	60.2817
7.66987	60.3361
7.65855	60.5856
7.64725	60.9476
7.63598	61.4782
7.62475	62.2733
7.61356	63.2657
7.60239	64.3465
7.59126	65.7107
7.58017	67.1737
7.5691	68.5709
7.55806	69.989
7.54707	71.1627
7.5361	72.023
7.52516	72.6653
7.51425	73.1544
7.50338	73.6041
7.49253	74.1429
7.48172	74.7845
7.47094	75.4912
7.46019	76.133
7.44947	76.6882
7.43879	77.3747
7.42813	78.0872
7.4175	78.8401
7.4069	79.4326
7.39634	79.8785
7.3858	80.2258
7.37529	80.3582
7.36482	80.3554
7.35437	80.499
7.34396	80.7629
7.33357	80.6462
7.32321	80.2026
7.31288	80.3063
7.30258	80.6801
7.29231	81.129
7.28207	81.943
7.27185	82.6073
7.26167	83.0137
7.25152	83.7191
7.24139	84.4281
7.23129	85.0412
7.22122	85.5905
7.21117	86.3515
7.20116	86.3976
7.19117	85.9636
7.18121	85.9993
7.17128	86.2864
7.16137	85.8354
7.1515	85.5519
7.14164	85.0375
7.13182	84.3275
7.12203	84.1763
7.11225	83.9427
7.10251	83.6635
7.0928	83.7154
7.08311	83.8723
7.07344	83.9103
7.06381	83.9822
7.0542	84.6742
7.04461	85.0144
7.03506	83.7283
7.02552	82.8705
7.01601	82.2626
7.00653	81.6234
6.99708	81.2809
6.98765	80.7514
6.97824	80.2086
6.96886	80.4996
6.95951	80.986
6.95018	79.7929
6.94087	79.1497
6.9316	79.1217
6.92234	79.0966
6.91311	79.3048
6.90391	79.4632
6.89473	79.1549
6.88557	79.2394
6.87644	79.8396
6.86733	81.7101
6.85824	81.7407
6.84918	80.0725
6.84015	79.4759
6.83114	80.1478
6.82215	80.3463
6.81319	79.8258
6.80424	80.1761
6.79532	81.6649
6.78643	82.3052
6.77756	81.7444
6.76871	81.3602
6.75989	81.1389
6.75109	81.3411
6.74231	81.3809
6.73355	81.7332
6.72482	82.4789
6.71611	83.152
6.70742	83.275
6.69875	82.8526
6.69011	83.4857
6.68149	84.5086
6.67289	84.3691
6.66431	83.9696
6.65576	83.9747
6.64722	85.6621
6.63871	88.0503
6.63022	87.3263
6.62175	85.9242
6.61331	85.8598
6.60488	86.0281
6.59648	86.8333
6.5881	87.386
6.57974	88.2973
6.5714	89.3909
6.56308	88.6203
6.55478	88.5012
6.54651	88.4785
6.53825	88.3431
6.53001	88.7997
6.5218	89.8512
6.51361	89.5894
6.50544	90.2746
6.49729	92.9617
6.48915	93.4644
6.48104	92.0835
6.47295	91.288
6.46488	90.6511
6.45683	90.6413
6.4488	90.9017
6.44079	91.2651
6.4328	92.0099
6.42482	92.9767
6.41687	95.4776
6.40894	94.7136
6.40103	91.8346
6.39314	91.2568
6.38526	91.31
6.37741	91.779
6.36957	92.3411
6.36176	91.6258
6.35396	91.8812
6.34618	93.3596
6.33843	92.6681
6.33069	91.3592
6.32297	91.217
6.31527	91.1826
6.30758	91.2083
6.29992	91.1821
6.29227	91.2231
6.28465	91.1687
6.27704	91.2522
6.26945	91.2376
6.26188	91.1533
6.25432	91.138
6.24679	91.2134
6.23927	91.249
6.23177	91.2955
6.22429	91.386
6.21683	91.4962
6.20938	91.415
6.20195	91.3606
6.19454	91.8696
6.18715	93.2731
6.17978	92.6731
6.17242	91.5704
6.16508	92.0633
6.15776	92.4596
6.15045	92.094
6.14317	92.0486
6.1359	91.7704
6.12864	91.6336
6.12141	92.6754
6.11419	94.1797
6.10699	93.188
6.0998	91.8906
6.09263	91.5768
6.08549	91.7315
6.07835	93.0009
6.07123	93.5256
6.06413	92.4207
6.05705	93.4217
6.04998	96.3633
6.04293	94.4221
6.0359	91.8575
6.02888	91.3421
6.02187	91.6333
6.01489	92.2292
6.00792	91.8369
6.00096	91.5937
5.99403	92.5615
5.98711	92.874
5.9802	92.153
5.97331	92.5804
5.96644	92.798
5.95958	91.7815
5.95274	91.7746
5.94591	92.4934
5.9391	94.4892
5.9323	93.8643
5.92552	92.028
5.91876	91.6283
5.91201	91.3705
5.90528	91.8348
5.89856	93.6561
5.89186	93.5448
5.88517	94.1804
5.8785	94.4218
5.87184	92.318
5.8652	92.2363
5.85857	91.9705
5.85196	91.5105
5.84536	91.3034
5.83878	91.6018
5.83221	92.3826
5.82566	93.6108
5.81912	93.5283
5.81259	91.9458
5.80608	91.3252
5.79959	91.294
5.79311	91.1573
5.78665	91.2604
5.78019	91.5083
5.77376	92.3981
5.76734	93.9665
5.76093	92.801
5.75453	91.7249
5.74815	92.2916
5.74179	92.0452
5.73543	91.8343
5.7291	91.8484
5.72277	92.2356
5.71646	92.6785
5.71017	92.8836
5.70389	92.1221
5.69762	91.9303
5.69136	92.2175
5.68513	92.014
5.6789	92.3673
5.67268	92.3546
5.66648	91.7987
5.6603	92.1326
5.65413	92.4874
5.64797	92.9218
5.64182	93.5995
5.63569	92.8237
5.62957	92.0967
5.62347	92.0229
5.61737	92.2116
5.61129	92.1963
5.60522	92.3369
5.59917	92.3523
5.59313	92.1689
5.5871	92.5428
5.58109	93.2968
5.57509	93.079
5.5691	92.3636
5.56312	92.4222
5.55716	92.7083
5.55121	92.7433
5.54528	92.4627
5.53935	92.3781
5.53344	92.3854
5.52754	92.5749
5.52166	92.7251
5.51578	92.6967
5.50992	92.6122
5.50407	92.7971
5.49823	92.9197
5.49241	92.9944
5.4866	93.1437
5.4808	93.6286
5.47501	93.6762
5.46923	93.9263
5.46347	94.2227
5.45772	93.7633
5.45198	93.5468
5.44625	93.7005
5.44054	93.7921
5.43484	93.8351
5.42914	94.2789
5.42347	95.117
5.4178	94.8478
5.41214	94.3702
5.4065	94.3394
5.40087	94.3005
5.39525	94.3464
5.38964	94.36
5.38404	94.3589
5.37846	94.3785
5.37288	94.3978
5.36732	94.4537
5.36177	94.5561
5.35623	94.8913
5.35071	95.3215
5.34519	94.9661
5.33968	94.5376
5.33419	94.4988
5.32871	94.5394
5.32324	94.5881
5.31778	94.5766
5.31233	94.6329
5.30689	94.7221
5.30147	94.7177
5.29605	94.9024
5.29065	95.0413
5.28525	94.7994
5.27987	94.7586
5.2745	94.818
5.26914	94.776
5.26379	94.7359
5.25845	94.7648
5.25312	94.7675
5.24781	94.8013
5.2425	94.8677
5.23721	94.906
5.23192	94.7715
5.22665	94.7166
5.22138	94.8058
5.21613	95.1339
5.21089	95.1276
5.20566	94.9009
5.20044	94.9591
5.19522	94.8855
5.19002	94.8155
5.18483	94.8107
5.17965	94.7961
5.17448	94.8288
5.16933	94.8304
5.16418	94.8185
5.15904	94.7902
5.15391	94.8775
5.14879	95.0657
5.14368	95.0251
5.13859	94.9156
5.1335	94.8241
5.12842	94.7477
5.12335	94.7716
5.1183	94.8515
5.11325	94.8954
5.10821	94.8572
5.10318	94.8571
5.09817	94.8223
5.09316	94.8033
5.08816	94.8861
5.08317	94.9309
5.07819	94.8473
5.07322	94.8024
5.06826	94.7823
5.06331	94.7723
5.05837	94.7851
5.05344	94.8447
5.04852	94.8324
5.04361	94.829
5.03871	94.8081
5.03382	94.8169
5.02894	94.8657
5.02406	94.9442
5.0192	95.0197
5.01435	94.9414
5.0095	94.875
5.00467	94.8498
4.99984	94.8532
4.99502	94.8649
4.99021	94.8453
4.98542	94.8717
4.98063	94.8873
4.97585	94.8665
4.97108	94.89
4.96632	94.8833
4.96156	94.876
4.95682	94.9391
4.95209	94.8974
4.94736	94.9139
4.94264	94.8847
4.93794	94.8559
4.93324	94.8764
4.92855	94.8871
4.92387	94.9088
4.9192	94.9237
4.91453	94.8956
4.90988	94.8404
4.90524	94.8312
4.9006	94.912
4.89597	94.891
4.89135	94.8465
4.88674	94.8621
4.88214	94.9124
4.87755	94.9107
4.87296	94.8687
4.86839	94.8706
4.86382	94.8873
4.85926	94.8526
4.85471	94.8831
4.85017	94.9093
4.84564	94.8836
4.84111	94.8544
4.8366	94.81
4.83209	94.8247
4.82759	94.8384
4.8231	94.8103
4.81862	94.7713
4.81415	94.7912
4.80968	94.8346
4.80522	94.8146
4.80077	94.8246
4.79633	94.8509
4.7919	94.8637
4.78747	94.8265
4.78306	94.7573
4.77865	94.7564
4.77425	94.7969
4.76986	94.7974
4.76547	94.7463
4.7611	94.7414
4.75673	94.7629
4.75237	94.7752
4.74802	94.7716
4.74367	94.7921
4.73934	94.7977
4.73501	94.7166
4.73069	94.7166
4.72638	94.7581
4.72207	94.7739
4.71777	94.7452
4.71348	94.7514
4.7092	94.7145
4.70493	94.7049
4.70066	94.6799
4.69641	94.6686
4.69216	94.6973
4.68791	94.6832
4.68368	94.6421
4.67945	94.6445
4.67523	94.6444
4.67102	94.6167
4.66682	94.5989
4.66262	94.6006
4.65843	94.6057
4.65425	94.635
4.65007	94.6703
4.64591	94.6981
4.64175	94.6807
4.6376	94.6262
4.63345	94.6309
4.62932	94.6505
4.62519	94.6143
4.62106	94.6507
4.61695	94.6428
4.61284	94.5792
4.60874	94.618
4.60465	94.7044
4.60056	94.67
4.59648	94.6651
4.59241	94.6625
4.58835	94.66
4.58429	94.692
4.58024	94.733
4.5762	94.738
4.57216	94.7529
4.56814	94.7154
4.56411	94.6915
4.5601	94.7102
4.55609	94.7733
4.55209	94.7928
4.5481	94.7358
4.54411	94.696
4.54013	94.7462
4.53616	94.7815
4.5322	94.8081
4.52824	94.7721
4.52429	94.7596
4.52034	94.7987
4.51641	94.7865
4.51247	94.813
4.50855	94.826
4.50463	94.7916
4.50072	94.7643
4.49682	94.7873
4.49292	94.8219
4.48903	94.8134
4.48515	94.8412
4.48127	94.8451
4.4774	94.8213
4.47354	94.7533
4.46968	94.7781
4.46584	94.8143
4.46199	94.7853
4.45815	94.7929
4.45432	94.8006
4.4505	94.7969
4.44668	94.7906
4.44287	94.781
4.43907	94.7858
4.43527	94.8038
4.43148	94.7605
4.4277	94.7457
4.42392	94.7513
4.42015	94.7496
4.41638	94.8456
4.41262	94.8637
4.40887	94.8699
4.40513	94.8796
4.40139	94.8613
4.39765	94.8299
4.39393	94.8097
4.39021	94.7834
4.38649	94.7764
4.38278	94.7931
4.37908	94.8952
4.37539	94.8801
4.3717	94.7979
4.36801	94.7669
4.36434	94.8054
4.36067	94.8336
4.357	94.8193
4.35335	94.7905
4.34969	94.7188
4.34605	94.705
4.34241	94.741
4.33877	94.7216
4.33514	94.6811
4.33152	94.6939
4.32791	94.6846
4.3243	94.6452
4.32069	94.5983
4.3171	94.5159
4.31351	94.4265
4.30992	94.3648
4.30634	94.2883
4.30277	94.2285
4.2992	94.2537
4.29564	94.2068
4.29208	94.1083
4.28853	94.0611
4.28499	94.0806
4.28145	94.1097
4.27792	94.0556
4.27439	93.9774
4.27087	93.9838
4.26735	94.0795
4.26384	94.2811
4.26034	94.4652
4.25684	94.5348
4.25335	94.4564
4.24986	94.3287
4.24638	94.1195
4.24291	93.9386
4.23944	93.8327
4.23598	93.7896
4.23252	93.7874
4.22906	93.8357
4.22562	93.8776
4.22218	93.9036
4.21874	94.073
4.21531	94.2496
4.21189	94.3394
4.20847	94.4537
4.20506	94.6097
4.20165	94.7249
4.19825	94.722
4.19485	94.7382
4.19146	94.7483
4.18807	94.7241
4.18469	94.735
4.18132	94.7117
4.17795	94.6736
4.17458	94.7027
4.17123	94.751
4.16787	94.6999
4.16453	94.6609
4.16118	94.691
4.15785	94.6672
4.15451	94.6094
4.15119	94.6096
4.14787	94.6386
4.14455	94.6192
4.14124	94.6461
4.13794	94.6666
4.13464	94.6839
4.13134	94.5904
4.12805	94.5215
4.12477	94.6239
4.12149	94.7107
4.11822	94.6676
4.11495	94.6154
4.11168	94.6095
4.10843	94.5552
4.10517	94.5427
4.10192	94.5696
4.09868	94.5415
4.09545	94.5124
4.09221	94.5117
4.08899	94.4778
4.08576	94.4228
4.08255	94.3615
4.07933	94.301
4.07613	94.2035
4.07292	94.1345
4.06973	94.0895
4.06654	93.9772
4.06335	93.8959
4.06017	93.8964
4.05699	93.9637
4.05382	93.9163
4.05065	93.8261
4.04749	93.7762
4.04433	93.7515
4.04118	93.6984
4.03803	93.5848
4.03489	93.4878
4.03175	93.323
4.02862	93.1891
4.02549	93.2183
4.02237	93.2074
4.01925	93.1309
4.01614	93.0978
4.01303	92.989
4.00993	93.1576
4.00683	93.3458
4.00373	93.3494
4.00064	93.3266
3.99756	93.5085
3.99448	93.7616
3.9914	93.8947
3.98833	93.9822
3.98527	94.0978
3.98221	94.1362
3.97915	94.0704
3.9761	93.9425
3.97305	93.854
3.97001	93.8565
3.96697	93.8249
3.96394	93.7859
3.96091	93.7593
3.95789	93.7945
3.95487	93.817
3.95186	93.7968
3.94885	93.7712
3.94584	93.7896
3.94284	93.7783
3.93984	93.7376
3.93685	93.7107
3.93386	93.7415
3.93088	93.8118
3.9279	93.7506
3.92493	93.7288
3.92196	93.7639
3.919	93.727
3.91604	93.6966
3.91308	93.7184
3.91013	93.7104
3.90718	93.6812
3.90424	93.7018
3.9013	93.6928
3.89837	93.7471
3.89544	93.7772
3.89252	93.6799
3.8896	93.7109
3.88668	93.7673
3.88377	93.6656
3.88086	93.6496
3.87796	93.7315
3.87506	93.7254
3.87217	93.7144
3.86928	93.7059
3.86639	93.6823
3.86351	93.6764
3.86064	93.6772
3.85776	93.6902
3.8549	93.7754
3.85203	93.8336
3.84917	93.8694
3.84631	93.895
3.84346	93.9163
3.84062	93.9607
3.83777	93.889
3.83494	93.8687
3.8321	93.9543
3.82927	94.0228
3.82644	93.9898
3.82362	93.9765
3.82081	93.9765
3.81799	93.9363
3.81518	93.9594
3.81238	93.9287
3.80958	93.8597
3.80678	93.8725
3.80399	93.9554
3.8012	94.0054
3.79841	94.0523
3.79563	94.0778
3.79286	94.0986
3.79008	94.1168
3.78731	94.0929
3.78455	94.1378
3.78179	94.1835
3.77903	94.1243
3.77628	94.0407
3.77353	94.0886
3.77079	94.1631
3.76805	94.1212
3.76531	94.0848
3.76258	94.1698
3.75985	94.1903
3.75713	94.1356
3.7544	94.1153
3.75169	94.1315
3.74898	94.2087
3.74627	94.1908
3.74356	94.1312
3.74086	94.1445
3.73816	94.1496
3.73547	94.1528
3.73278	94.1656
3.7301	94.1947
3.72741	94.2083
3.72474	94.1936
3.72206	94.1946
3.71939	94.1854
3.71673	94.202
3.71406	94.1789
3.71141	94.1563
3.70875	94.1608
3.7061	94.1736
3.70345	94.206
3.70081	94.2092
3.69817	94.1897
3.69553	94.1921
3.6929	94.199
3.69027	94.1862
3.68765	94.207
3.68503	94.2299
3.68241	94.1506
3.6798	94.0868
3.67719	94.13
3.67458	94.1022
3.67198	94.0729
3.66938	94.1141
3.66678	94.1529
3.66419	94.1676
3.66161	94.1152
3.65902	94.1027
3.65644	94.1548
3.65387	94.1743
3.65129	94.1912
3.64872	94.2181
3.64616	94.2038
3.64359	94.17
3.64103	94.2083
3.63848	94.2088
3.63593	94.1748
3.63338	94.1549
3.63084	94.1812
3.6283	94.2347
3.62576	94.1823
3.62322	94.0778
3.62069	94.043
3.61817	94.1299
3.61564	94.186
3.61312	94.1361
3.61061	94.1233
3.6081	94.1175
3.60559	94.1025
3.60308	94.049
3.60058	94.0501
3.59808	94.0588
3.59558	94.0402
3.59309	94.007
3.59061	93.9762
3.58812	93.9783
3.58564	93.9714
3.58316	93.9385
3.58069	93.93
3.57822	93.8942
3.57575	93.8623
3.57328	93.8934
3.57082	93.8572
3.56836	93.8447
3.56591	93.8111
3.56346	93.7726
3.56101	93.7976
3.55857	93.757
3.55613	93.7147
3.55369	93.7146
3.55126	93.6898
3.54883	93.6679
3.5464	93.627
3.54397	93.5591
3.54155	93.5274
3.53914	93.5302
3.53672	93.5269
3.53431	93.4459
3.5319	93.303
3.5295	93.1337
3.5271	92.9556
3.5247	92.7995
3.52231	92.5717
3.51991	92.2185
3.51753	91.889
3.51514	91.4968
3.51276	91.0195
3.51038	90.5121
3.50801	90.034
3.50563	89.7799
3.50327	89.671
3.5009	89.7775
3.49854	90.2014
3.49618	90.5664
3.49382	90.7339
3.49147	90.8447
3.48912	91.0021
3.48677	91.1403
3.48443	91.1871
3.48209	91.1702
3.47975	91.14
3.47742	91.1384
3.47509	91.165
3.47276	91.2475
3.47044	91.3437
3.46812	91.3637
3.4658	91.3202
3.46348	91.2543
3.46117	91.1969
3.45886	91.0596
3.45656	90.8516
3.45425	90.6733
3.45195	90.5659
3.44966	90.4529
3.44736	90.2652
3.44507	90.0652
3.44279	89.8873
3.4405	89.6971
3.43822	89.4064
3.43594	89.061
3.43367	88.7211
3.43139	88.3129
3.42912	87.786
3.42686	87.1622
3.42459	86.5909
3.42233	86.207
3.42007	86.0981
3.41782	86.1864
3.41557	86.4438
3.41332	86.901
3.41108	87.4067
3.40883	87.952
3.40659	88.4463
3.40435	88.8676
3.40212	89.2711
3.39989	89.694
3.39766	89.94
3.39544	90.0318
3.39322	90.0936
3.391	90.0762
3.38878	89.9338
3.38657	89.7531
3.38436	89.53
3.38215	89.3219
3.37994	89.2588
3.37774	89.2925
3.37554	89.3923
3.37335	89.6338
3.37115	89.9041
3.36896	90.2284
3.36678	90.6025
3.36459	91.0752
3.36241	91.4536
3.36023	91.7415
3.35805	92.0738
3.35588	92.388
3.35371	92.6323
3.35154	92.8111
3.34938	92.9735
3.34721	93.0938
3.34505	93.1165
3.3429	93.2218
3.34074	93.3312
3.33859	93.4045
3.33644	93.4237
3.3343	93.4338
3.33215	93.4877
3.33001	93.5516
3.32788	93.5885
3.32574	93.5954
3.32361	93.6351
3.32148	93.6247
3.31936	93.6236
3.31723	93.6499
3.31511	93.6916
3.31299	93.6775
3.31088	93.6955
3.30876	93.7215
3.30665	93.7286
3.30455	93.6329
3.30244	93.5826
3.30034	93.7144
3.29824	93.8277
3.29614	93.8264
3.29405	93.8849
3.29196	93.9018
3.28987	93.8499
3.28778	93.8412
3.2857	93.8362
3.28362	93.8096
3.28154	93.82
3.27946	93.8104
3.27739	93.776
3.27532	93.8019
3.27325	93.9139
3.27119	93.9293
3.26913	93.8212
3.26707	93.7441
3.26501	93.7691
3.26295	93.7604
3.2609	93.7054
3.25885	93.7336
3.2568	93.7849
3.25476	93.751
3.25272	93.7118
3.25068	93.6965
3.24864	93.7199
3.24661	93.7509
3.24458	93.8078
3.24255	93.7693
3.24052	93.6861
3.2385	93.6869
3.23648	93.7024
3.23446	93.7435
3.23244	93.7945
3.23043	93.7887
3.22841	93.7503
3.2264	93.756
3.2244	93.77
3.22239	93.746
3.22039	93.6762
3.21839	93.6552
3.2164	93.6303
3.2144	93.6404
3.21241	93.6351
3.21042	93.6535
3.20844	93.7288
3.20645	93.7012
3.20447	93.6642
3.20249	93.6408
3.20051	93.5806
3.19854	93.6079
3.19657	93.5931
3.1946	93.5079
3.19263	93.5551
3.19067	93.5603
3.1887	93.5004
3.18674	93.4892
3.18479	93.4673
3.18283	93.4137
3.18088	93.38
3.17893	93.3579
3.17698	93.3897
3.17504	93.5082
3.17309	93.5943
3.17115	93.5093
3.16921	93.3762
3.16728	93.3212
3.16534	93.4061
3.16341	93.4275
3.16148	93.3499
3.15956	93.274
3.15763	93.3038
3.15571	93.3077
3.15379	93.296
3.15187	93.2761
3.14996	93.2359
3.14805	93.1985
3.14614	93.2105
3.14423	93.2199
3.14232	93.1736
3.14042	93.1311
3.13852	93.1742
3.13662	93.1905
3.13472	93.1787
3.13283	93.1376
3.13094	93.116
3.12905	93.1204
3.12716	93.0794
3.12528	93.0103
3.12339	93.0426
3.12151	93.0324
3.11964	92.9833
3.11776	92.958
3.11589	93.0133
3.11401	93.0054
3.11214	93.0547
3.11028	92.978
3.10841	92.8653
3.10655	92.9178
3.10469	92.9602
3.10283	92.8728
3.10098	92.7643
3.09912	92.7647
3.09727	92.8968
3.09542	92.8972
3.09358	92.8348
3.09173	92.8183
3.08989	92.8095
3.08805	92.8366
3.08621	92.852
3.08437	92.7914
3.08254	92.7207
3.08071	92.6741
3.07888	92.668
3.07705	92.6554
3.07523	92.7403
3.0734	92.7894
3.07158	92.7295
3.06977	92.7112
3.06795	92.6427
3.06613	92.5933
3.06432	92.612
3.06251	92.7281
3.0607	92.7092
3.0589	92.5098
3.0571	92.4396
3.05529	92.5055
3.05349	92.5779
3.0517	92.5515
3.0499	92.4608
3.04811	92.4814
3.04632	92.4603
3.04453	92.4132
3.04274	92.481
3.04096	92.4312
3.03918	92.4037
3.0374	92.4463
3.03562	92.405
3.03384	92.3767
3.03207	92.4424
3.03029	92.3757
3.02852	92.2757
3.02676	92.3438
3.02499	92.3955
3.02323	92.3342
3.02146	92.3467
3.0197	92.3675
3.01795	92.3588
3.01619	92.2815
3.01444	92.2365
3.01269	92.268
3.01094	92.2779
3.00919	92.3292
3.00744	92.3206
3.0057	92.3063
3.00396	92.3151
3.00222	92.3514
3.00048	92.2505
2.99875	92.1784
2.99701	92.2864
2.99528	92.3905
2.99355	92.3555
2.99183	92.2876
2.9901	92.2792
2.98838	92.1306
2.98666	92.1
2.98494	92.1879
2.98322	92.3063
2.9815	92.4189
2.97979	92.4036
2.97808	92.243
2.97637	92.164
2.97466	92.2769
2.97295	92.2938
2.97125	92.3492
2.96955	92.2728
2.96785	92.2446
2.96615	92.3201
2.96446	92.2792
2.96276	92.294
2.96107	92.2929
2.95938	92.2692
2.95769	92.2512
2.95601	92.3293
2.95432	92.3721
2.95264	92.3404
2.95096	92.3134
2.94928	92.3815
2.9476	92.3699
2.94593	92.3451
2.94425	92.3305
2.94258	92.308
2.94092	92.3222
2.93925	92.3045
2.93758	92.347
2.93592	92.3671
2.93426	92.3755
2.9326	92.3441
2.93094	92.29
2.92928	92.3923
2.92763	92.4985
2.92598	92.4377
2.92433	92.4973
2.92268	92.5671
2.92103	92.6045
2.91939	92.6007
2.91775	92.5926
2.9161	92.5283
2.91447	92.5426
2.91283	92.5894
2.91119	92.6251
2.90956	92.6542
2.90793	92.6621
2.9063	92.6513
2.90467	92.6515
2.90304	92.6657
2.90142	92.6964
2.89979	92.7025
2.89817	92.7166
2.89656	92.7396
2.89494	92.7236
2.89332	92.7905
2.89171	92.789
2.8901	92.8156
2.88849	92.8457
2.88688	92.6953
2.88527	92.6266
2.88367	92.6498
2.88206	92.7152
2.88046	92.7431
2.87886	92.6811
2.87727	92.682
2.87567	92.8066
2.87408	92.9354
2.87248	93.0064
2.87089	92.9943
2.8693	92.9387
2.86772	92.8726
2.86613	92.9078
2.86455	92.961
2.86297	92.9112
2.86139	92.9106
2.85981	93.0093
2.85823	93.0247
2.85666	93.161
2.85508	93.3186
2.85351	93.2692
2.85194	93.0368
2.85038	93.1131
2.84881	93.2575
2.84724	93.2889
2.84568	93.2427
2.84412	93.1203
2.84256	93.117
2.841	93.1337
2.83945	93.3424
2.83789	93.4242
2.83634	93.388
2.83479	93.4642
2.83324	93.3869
2.83169	93.3258
2.83015	93.344
2.82861	93.3266
2.82706	93.2803
2.82552	93.2891
2.82398	93.4086
2.82245	93.4802
2.82091	93.6592
2.81938	93.8194
2.81784	93.6344
2.81631	93.6112
2.81479	93.6711
2.81326	93.5437
2.81173	93.481
2.81021	93.5041
2.80869	93.6028
2.80716	93.6995
2.80565	93.9912
2.80413	94.5386
2.80261	94.5335
2.8011	93.974
2.79959	93.7418
2.79808	93.7226
2.79657	93.7396
2.79506	93.8111
2.79355	93.7909
2.79205	93.6828
2.79055	93.7027
2.78904	94.1333
2.78754	94.7042
2.78605	94.5287
2.78455	94.002
2.78306	94.0789
2.78156	94.2378
2.78007	94.1389
2.77858	94.1507
2.77709	94.1986
2.77561	93.9933
2.77412	93.9974
2.77264	94.4599
2.77116	94.9815
2.76968	94.9305
2.7682	94.8824
2.76672	94.6396
2.76524	94.4995
2.76377	95.0436
2.7623	95.1664
2.76083	94.412
2.75936	94.1214
2.75789	94.5178
2.75642	95.9725
2.75496	96.3941
2.7535	94.9467
2.75203	94.4938
2.75057	94.4245
2.74912	94.3341
2.74766	94.3605
2.7462	94.4733
2.74475	94.3677
2.7433	94.6933
2.74185	95.8508
2.7404	96.7569
2.73895	96.2653
2.7375	94.9736
2.73606	95.0513
2.73462	95.3764
2.73318	94.7203
2.73174	94.4369
2.7303	94.3874
2.72886	94.3641
2.72742	94.6986
2.72599	95.6875
2.72456	96.5334
2.72313	95.7823
2.7217	96.2456
2.72027	97.0604
2.71884	95.6795
2.71742	94.9976
2.71599	94.5483
2.71457	94.4771
2.71315	94.8675
2.71173	96.2362
2.71032	96.5873
2.7089	95.6822
2.70748	94.9459
2.70607	94.6104
2.70466	94.5257
2.70325	94.6087
2.70184	95.1273
2.70043	95.1127
2.69903	94.7481
2.69762	94.8268
2.69622	95.4826
2.69482	96.3171
2.69342	96.341
2.69202	95.3712
2.69062	94.9107
2.68923	94.8935
2.68783	95.0912
2.68644	95.3565
2.68505	95.3454
2.68366	95.4216
2.68227	95.1244
2.68089	95.1598
2.6795	96.1555
2.67812	96.5563
2.67673	96.8922
2.67535	96.0888
2.67397	95.1957
2.6726	95.4845
2.67122	97.6842
2.66984	97.8652
2.66847	96.3799
2.6671	97.4307
2.66572	97.8167
2.66435	96.7823
2.66299	95.436
2.66162	95.4132
2.66025	95.5567
2.65889	95.3169
2.65753	94.8489
2.65616	95.2403
2.65481	95.2458
2.65345	95.4731
2.65209	95.5916
2.65073	95.024
2.64938	94.752
2.64803	94.8486
2.64667	95.219
2.64532	95.3628
2.64397	94.9464
2.64263	94.9653
2.64128	94.8252
2.63994	94.7535
2.63859	94.6837
2.63725	94.7395
2.63591	94.9082
2.63457	95.3295
2.63323	95.2804
2.6319	95.7521
2.63056	96.8994
2.62923	95.9361
2.62789	95.5963
2.62656	96.1902
2.62523	95.2157
2.6239	94.7781
2.62258	94.9806
2.62125	96.1371
2.61993	96.4823
2.6186	95.8516
2.61728	96.6733
2.61596	96.2348
2.61464	95.2053
2.61332	95.2516
2.61201	95.1211
2.61069	95.3032
2.60938	95.6129
2.60807	95.8034
2.60675	96.4936
2.60544	97.0385
2.60414	96.2359
2.60283	95.6638
2.60152	95.4368
2.60022	95.0963
2.59891	94.8119
2.59761	95.2467
2.59631	96.952
2.59501	99.0418
2.59371	97.6424
2.59242	95.5255
2.59112	95.0246
2.58983	95.3553
2.58853	95.7096
2.58724	95.8954
2.58595	95.5754
2.58466	96.3544
2.58338	96.4908
2.58209	95.6118
2.5808	95.471
2.57952	94.8016
2.57824	95.0424
2.57695	95.7073
2.57567	95.4788
2.5744	95.6605
2.57312	95.9116
2.57184	95.1488
2.57057	95.4664
2.56929	95.6132
2.56802	95.0034
2.56675	94.7902
2.56548	95.2848
2.56421	95.9628
2.56294	96.1759
2.56168	96.2198
2.56041	95.7114
2.55915	95.0509
2.55789	94.8015
2.55662	94.6867
2.55536	94.7374
2.5541	95.0838
2.55285	95.3827
2.55159	95.2201
2.55034	95.0132
2.54908	94.8961
2.54783	94.9204
2.54658	94.8152
2.54533	94.9207
2.54408	95.1352
2.54283	95.1543
2.54159	94.9866
2.54034	94.8893
2.5391	94.8446
2.53785	94.8553
2.53661	95.0186
2.53537	95.004
2.53413	94.887
2.53289	94.8896
2.53166	94.9126
2.53042	94.757
2.52919	94.6359
2.52795	94.7734
2.52672	94.8418
2.52549	94.8152
2.52426	94.8296
2.52303	94.7139
2.52181	94.6543
2.52058	94.7631
2.51936	94.86
2.51813	94.8545
2.51691	94.8197
2.51569	94.8268
2.51447	94.7508
2.51325	94.6962
2.51203	94.7621
2.51082	94.7594
2.5096	94.7206
2.50839	94.7405
2.50717	94.8465
2.50596	94.8797
2.50475	94.8599
2.50354	94.7236
2.50233	94.686
2.50113	94.7438
2.49992	94.771
2.49872	94.754
2.49751	94.7457
2.49631	94.6711
2.49511	94.6309
2.49391	94.6746
2.49271	94.7114
2.49151	94.618
2.49031	94.642
2.48912	94.682
2.48792	94.7009
2.48673	94.7594
2.48554	94.7805
2.48435	94.8493
2.48316	94.7756
2.48197	94.6917
2.48078	94.728
2.4796	94.8284
2.47841	94.8087
2.47723	94.7228
2.47604	94.6757
2.47486	94.6795
2.47368	94.6565
2.4725	94.6364
2.47132	94.6862
2.47014	94.8262
2.46897	94.8436
2.46779	94.7301
2.46662	94.6765
2.46545	94.6322
2.46427	94.6545
2.4631	94.7053
2.46193	94.7617
2.46077	94.808
2.4596	94.7255
2.45843	94.677
2.45727	94.6431
2.4561	94.677
2.45494	94.7715
2.45378	94.6833
2.45262	94.5894
2.45146	94.6503
2.4503	94.6151
2.44914	94.6742
2.44799	94.7437
2.44683	94.775
2.44568	94.7292
2.44452	94.7266
2.44337	94.8149
2.44222	94.8109
2.44107	94.7883
2.43992	94.7004
2.43877	94.6382
2.43763	94.6398
2.43648	94.686
2.43534	94.6991
2.43419	94.7093
2.43305	94.725
2.43191	94.7285
2.43077	94.7425
2.42963	94.767
2.42849	94.6744
2.42736	94.6115
2.42622	94.6216
2.42509	94.6249
2.42395	94.7222
2.42282	94.7769
2.42169	94.7278
2.42056	94.8005
2.41943	94.8038
2.4183	94.7573
2.41717	94.7377
2.41605	94.6389
2.41492	94.5276
2.4138	94.692
2.41267	94.7914
2.41155	94.7447
2.41043	94.6167
2.40931	94.5542
2.40819	94.6447
2.40707	94.727
2.40595	94.7672
2.40484	94.7296
2.40372	94.7728
2.40261	94.7865
2.4015	94.721
2.40039	94.671
2.39928	94.7513
2.39817	94.7918
2.39706	94.6989
2.39595	94.7545
2.39484	94.8242
2.39374	94.7558
2.39263	94.7535
2.39153	94.7946
2.39043	94.7936
2.38932	94.7836
2.38822	94.7176
2.38712	94.7108
2.38603	94.6582
2.38493	94.6928
2.38383	94.693
2.38274	94.7296
2.38164	94.742
2.38055	94.8134
2.37946	94.8367
2.37836	94.712
2.37727	94.7449
2.37618	94.8007
2.3751	94.7032
2.37401	94.6489
2.37292	94.6198
2.37184	94.6609
2.37075	94.7037
2.36967	94.6962
2.36859	94.607
2.3675	94.5495
2.36642	94.6841
2.36534	94.7898
2.36427	94.8568
2.36319	94.8783
2.36211	94.7416
2.36104	94.6318
2.35996	94.6598
2.35889	94.7358
2.35781	94.7052
2.35674	94.7666
2.35567	94.7737
2.3546	94.7138
2.35353	94.7285
2.35247	94.7095
2.3514	94.6927
2.35033	94.7014
2.34927	94.7183
2.3482	94.6849
2.34714	94.6914
2.34608	94.7689
2.34502	94.7595
2.34396	94.7274
2.3429	94.6935
2.34184	94.6509
2.34078	94.678
2.33973	94.6682
2.33867	94.7151
2.33762	94.7274
2.33656	94.6477
2.33551	94.6876
2.33446	94.8309
2.33341	94.8234
2.33236	94.7365
2.33131	94.6863
2.33026	94.717
2.32922	94.8015
2.32817	94.7921
2.32712	94.725
2.32608	94.7839
2.32504	94.8529
2.324	94.7976
2.32295	94.7543
2.32191	94.7384
2.32087	94.6772
2.31984	94.6965
2.3188	94.677
2.31776	94.6263
2.31673	94.646
2.31569	94.6327
2.31466	94.6852
2.31362	94.8076
2.31259	94.8219
2.31156	94.6767
2.31053	94.6064
2.3095	94.6495
2.30847	94.6993
2.30745	94.6952
2.30642	94.6993
2.3054	94.6651
2.30437	94.6486
2.30335	94.6877
2.30232	94.7797
2.3013	94.8466
2.30028	94.7736
2.29926	94.7343
2.29824	94.6953
2.29722	94.6264
2.29621	94.6198
2.29519	94.5809
2.29417	94.5724
2.29316	94.6667
2.29215	94.7276
2.29113	94.6983
2.29012	94.7287
2.28911	94.842
2.2881	94.825
2.28709	94.6984
2.28608	94.6526
2.28507	94.6671
2.28407	94.7375
2.28306	94.6926
2.28206	94.636
2.28105	94.6956
2.28005	94.7884
2.27905	94.7389
2.27805	94.6627
2.27705	94.7504
2.27605	94.7651
2.27505	94.6667
2.27405	94.6477
2.27305	94.713
2.27206	94.7583
2.27106	94.7855
2.27007	94.8325
2.26907	94.7713
2.26808	94.8677
2.26709	94.9567
2.2661	94.8156
2.26511	94.695
2.26412	94.6711
2.26313	94.7097
2.26214	94.7795
2.26116	94.7689
2.26017	94.8706
2.25919	94.977
2.2582	94.8652
2.25722	94.7661
2.25624	94.8069
2.25526	94.8316
2.25428	94.8917
2.2533	94.8053
2.25232	94.7793
2.25134	94.7953
2.25036	94.7138
2.24939	94.8371
2.24841	94.9186
2.24744	94.8809
2.24646	94.8341
2.24549	94.8637
2.24452	94.844
2.24355	94.8062
2.24257	94.7653
2.24161	94.7099
2.24064	94.6482
2.23967	94.791
2.2387	94.8797
2.23774	94.783
2.23677	94.826
2.23581	94.9385
2.23484	94.8935
2.23388	94.8411
2.23292	94.7249
2.23196	94.7046
2.231	94.7882
2.23004	94.8243
2.22908	94.7971
2.22812	94.7417
2.22716	94.7333
2.22621	94.8077
2.22525	94.7871
2.2243	94.625
2.22334	94.6353
2.22239	94.8404
2.22144	94.8203
2.22049	94.7612
2.21953	94.8305
2.21859	94.8978
2.21764	94.7592
2.21669	94.7713
2.21574	94.8608
2.21479	94.8725
2.21385	94.8299
2.2129	94.6674
2.21196	94.6022
2.21102	94.7657
2.21007	94.8509
2.20913	94.8712
2.20819	94.8176
2.20725	94.7317
2.20631	94.8079
2.20537	94.8295
2.20444	94.6797
2.2035	94.6842
2.20256	94.7519
2.20163	94.8887
2.20069	94.9126
2.19976	94.8717
2.19883	94.8839
2.19789	94.7951
2.19696	94.7866
2.19603	94.8231
2.1951	94.8522
2.19417	94.7951
2.19325	94.6961
2.19232	94.7148
2.19139	94.8151
2.19047	94.7923
2.18954	94.7454
2.18862	94.7789
2.18769	94.9178
2.18677	95.0327
2.18585	94.8582
2.18493	94.5857
2.18401	94.6166
2.18309	94.7744
2.18217	94.7932
2.18125	94.6992
2.18033	94.6115
2.17942	94.6068
2.1785	94.7202
2.17759	94.7692
2.17667	94.7262
2.17576	94.8497
2.17485	94.8524
2.17393	94.7512
2.17302	94.724
2.17211	94.8377
2.1712	94.9127
2.17029	94.8974
2.16939	94.7511
2.16848	94.6515
2.16757	94.77
2.16667	94.8333
2.16576	94.8176
2.16486	94.7974
2.16395	94.9076
2.16305	94.9377
2.16215	94.6971
2.16125	94.528
2.16035	94.7599
2.15945	94.9179
2.15855	94.8458
2.15765	94.7577
2.15675	94.7488
2.15586	94.7095
2.15496	94.6675
2.15406	94.736
2.15317	94.7616
2.15228	94.7597
2.15138	94.8084
2.15049	94.8463
2.1496	94.8407
2.14871	94.7531
2.14782	94.802
2.14693	94.7944
2.14604	94.6742
2.14515	94.7183
2.14427	94.861
2.14338	94.9476
2.14249	94.7431
2.14161	94.6781
2.14072	94.9309
2.13984	94.9394
2.13896	94.7511
2.13808	94.7078
2.13719	94.8185
2.13631	94.8799
2.13543	94.7287
2.13455	94.6108
2.13368	94.6107
2.1328	94.717
2.13192	94.7884
2.13105	94.9151
2.13017	94.8726
2.1293	94.8192
2.12842	94.89
2.12755	94.8075
2.12668	94.7252
2.1258	94.675
2.12493	94.6938
2.12406	94.7675
2.12319	94.7903
2.12232	94.7521
2.12145	94.7698
2.12059	94.9474
2.11972	94.9606
2.11885	94.8245
2.11799	94.7231
2.11712	94.5896
2.11626	94.6425
2.1154	94.8333
2.11453	94.7457
2.11367	94.7403
2.11281	94.9685
2.11195	94.9891
2.11109	94.9187
2.11023	94.7498
2.10937	94.6971
2.10851	94.8215
2.10766	94.8341
2.1068	94.7832
2.10594	94.6709
2.10509	94.6377
2.10423	94.6118
2.10338	94.6203
2.10253	94.7187
2.10168	94.8396
2.10082	94.8138
2.09997	94.7719
2.09912	94.9461
2.09827	95.0611
2.09742	95.0576
2.09658	94.8878
2.09573	94.8076
2.09488	94.7598
2.09404	94.6927
2.09319	94.6256
2.09235	94.6433
2.0915	94.7908
2.09066	94.7001
2.08982	94.6317
2.08897	94.7313
2.08813	95.0312
2.08729	94.8774
2.08645	94.7587
2.08561	94.9125
2.08477	94.7326
2.08394	94.6734
2.0831	94.8408
2.08226	94.8218
2.08143	94.723
2.08059	94.6869
2.07976	94.7381
2.07892	94.9236
2.07809	94.9934
2.07726	94.808
2.07643	94.7167
2.07559	94.9254
2.07476	94.9164
2.07393	94.5614
2.0731	94.3668
2.07228	94.6663
2.07145	94.9356
2.07062	95.0809
2.06979	95.1224
2.06897	94.7958
2.06814	94.7624
2.06732	94.8032
2.06649	94.9305
2.06567	95.0803
2.06485	94.7785
2.06403	94.7426
2.0632	94.7439
2.06238	94.5708
2.06156	94.4487
2.06074	94.5685
2.05993	94.7169
2.05911	94.7344
2.05829	94.7845
2.05747	94.742
2.05666	94.6961
2.05584	94.7451
2.05503	94.7865
2.05421	94.8825
2.0534	94.8607
2.05259	94.8102
2.05177	94.8526
2.05096	94.9079
2.05015	94.7593
2.04934	94.6846
2.04853	94.8423
2.04772	94.8533
2.04691	94.8319
2.04611	94.7433
2.0453	94.5846
2.04449	94.6226
2.04369	94.7955
2.04288	94.9184
2.04208	94.886
2.04127	94.956
2.04047	94.9331
2.03967	94.7346
2.03886	94.6609
2.03806	94.5755
2.03726	94.5412
2.03646	94.63
2.03566	94.8122
2.03486	94.8421
2.03407	94.8428
2.03327	94.8332
2.03247	94.6497
2.03167	94.5644
2.03088	94.5839
2.03008	94.6894
2.02929	94.7602
2.0285	94.7828
2.0277	94.8773
2.02691	94.7891
2.02612	94.8279
2.02533	94.6989
2.02453	94.5925
2.02374	94.8308
2.02295	94.8707
2.02217	94.7607
2.02138	94.6916
2.02059	94.7005
2.0198	94.7463
2.01902	94.8495
2.01823	94.8952
2.01744	94.858
2.01666	94.7252
2.01588	94.6606
2.01509	94.6695
2.01431	94.7328
2.01353	94.7637
2.01275	94.6691
2.01196	94.7463
2.01118	94.8118
2.0104	94.9518
2.00963	94.8758
2.00885	94.7241
2.00807	94.8105
2.00729	94.9035
2.00651	94.9672
2.00574	94.8176
2.00496	94.6363
2.00419	94.594
2.00341	94.6033
2.00264	94.7732
2.00187	94.917
2.00109	94.9181
2.00032	94.8293
