Name: Celestite SrSO_4
Type: Mineral
Class: Sulfates
Subclass: 
Particle Size: 0-45um
Sample No.: SO-5A
Owner: JPL
Wavelength range: IR
Origin: USA, Utah, Emery County
Collected by Grieger's Inc.
Description: 





Measurement: Hemispherical reflectance
First Column: X
Second Column: Y
X Units:  Wavelength (micrometers)
Y Units:  Reflectance (percent)
First X Value: 15.3853
Last X Value: 2.00032
Number of X Values: 2256
Additional information: so05aa.txt
 
15.3853	4.71121
15.3397	4.5037
15.2945	4.12123
15.2495	4.11379
15.2048	4.09546
15.1603	3.92974
15.1161	3.78505
15.0722	3.85961
15.0285	3.8042
14.9851	3.81628
14.9419	3.87535
14.8989	4.31246
14.8563	5.11016
14.8138	6.11611
14.7716	7.30706
14.7296	8.44798
14.6879	9.62765
14.6464	10.9815
14.6052	12.5899
14.5641	14.2003
14.5233	15.5662
14.4828	16.9103
14.4424	18.1958
14.4023	19.2578
14.3624	20.1728
14.3227	20.8805
14.2833	21.2619
14.244	21.5078
14.205	21.8523
14.1662	22.1082
14.1276	22.4625
14.0892	22.7609
14.051	23.0914
14.0131	23.7105
13.9753	24.5408
13.9377	25.259
13.9004	25.7621
13.8632	26.4775
13.8262	27.3448
13.7895	28.0485
13.7529	28.5781
13.7165	29.2002
13.6803	29.6492
13.6443	29.9842
13.6085	30.3168
13.5729	30.7284
13.5374	31.2297
13.5022	31.8024
13.4671	32.1993
13.4322	32.6476
13.3975	32.9837
13.363	32.9944
13.3286	32.9491
13.2944	32.886
13.2604	32.8722
13.2266	32.947
13.193	32.9199
13.1595	32.8715
13.1262	32.904
13.093	32.8558
13.06	32.8486
13.0272	32.8053
12.9946	32.7851
12.9621	32.9953
12.9298	33.2566
12.8976	33.5325
12.8656	33.73
12.8337	33.8996
12.8021	34.0298
12.7705	34.1831
12.7391	34.1808
12.7079	33.9752
12.6769	33.8706
12.6459	33.8565
12.6152	33.8952
12.5845	33.757
12.5541	33.5217
12.5238	33.4504
12.4936	33.4979
12.4635	33.5896
12.4337	33.6303
12.4039	33.6839
12.3743	33.7444
12.3448	33.891
12.3155	34.0965
12.2863	34.2206
12.2573	34.3367
12.2284	34.5529
12.1996	34.72
12.171	34.7998
12.1425	35.0386
12.1141	35.2433
12.0859	35.3005
12.0578	35.5295
12.0298	35.7329
12.0019	35.9499
11.9742	36.1074
11.9466	36.1732
11.9192	36.3317
11.8918	36.595
11.8646	36.8586
11.8375	36.9925
11.8106	37.0559
11.7837	37.1671
11.757	37.4447
11.7304	37.7656
11.7039	38.1363
11.6776	38.4952
11.6513	38.7918
11.6252	39.2357
11.5992	39.5314
11.5733	39.5507
11.5475	39.7241
11.5219	39.926
11.4963	40.1521
11.4709	40.421
11.4455	40.5164
11.4203	40.308
11.3952	40.4628
11.3702	40.9276
11.3454	41.2929
11.3206	41.4269
11.2959	41.4477
11.2714	41.4279
11.2469	41.4055
11.2226	41.4943
11.1983	41.428
11.1742	41.1875
11.1502	40.7548
11.1263	40.3156
11.1024	39.8594
11.0787	39.5235
11.0551	39.068
11.0316	38.3931
11.0081	37.6166
10.9848	36.9845
10.9616	36.4484
10.9385	35.816
10.9154	35.1566
10.8925	34.6196
10.8697	33.9194
10.8469	33.3135
10.8243	32.9094
10.8017	32.6293
10.7793	32.4335
10.7569	32.2706
10.7346	32.0022
10.7125	31.6052
10.6904	31.2716
10.6684	31.0537
10.6465	30.8292
10.6247	30.6145
10.6029	30.263
10.5813	29.9256
10.5597	29.4973
10.5383	29.0795
10.5169	28.6571
10.4956	28.1367
10.4744	27.6138
10.4533	27.0191
10.4323	26.3901
10.4113	25.9567
10.3904	25.3946
10.3697	24.5848
10.349	23.8216
10.3284	22.9374
10.3078	21.6112
10.2874	19.6392
10.267	17.7492
10.2467	17.4561
10.2265	17.4015
10.2064	16.4473
10.1863	15.0513
10.1663	13.5293
10.1464	11.719
10.1266	9.45784
10.1069	6.89168
10.0872	4.97893
10.0676	4.33339
10.0481	4.54236
10.0287	5.45522
10.0093	7.74966
9.99005	10.871
9.97084	13.5822
9.95169	15.2545
9.93263	15.9716
9.91364	16.1214
9.89472	15.9938
9.87587	15.8276
9.8571	15.4793
9.83839	14.8834
9.81976	14.364
9.80119	13.9886
9.78271	13.5274
9.76428	13.2355
9.74592	12.9001
9.72764	12.5666
9.70943	12.1799
9.69128	11.7281
9.6732	11.4279
9.65518	11.0868
9.63724	10.644
9.61935	10.1782
9.60155	9.81573
9.5838	9.49936
9.56611	9.03711
9.5485	8.5939
9.53094	8.17143
9.51345	7.84808
9.49604	7.61978
9.47867	7.30357
9.46137	7.09999
9.44414	6.98974
9.42697	6.85412
9.40986	6.88851
9.39281	7.04763
9.37583	7.13919
9.35891	7.29525
9.34204	7.44957
9.32524	7.63688
9.3085	7.79229
9.29182	7.99577
9.27519	8.16226
9.25863	8.3919
9.24213	8.59303
9.22568	8.86212
9.2093	9.15311
9.19297	9.31114
9.17669	9.41289
9.16048	9.54297
9.14433	9.70982
9.12823	9.94935
9.11218	10.1328
9.0962	10.1825
9.08027	10.2836
9.06439	10.47
9.04858	10.6594
9.03281	10.7265
9.0171	10.8034
9.00145	11.0867
8.98585	11.1558
8.9703	11.1709
8.9548	11.3843
8.93937	11.6844
8.92398	11.84
8.90865	11.7877
8.89337	11.7911
8.87814	11.9083
8.86296	11.9935
8.84784	12.2158
8.83277	12.3899
8.81774	12.244
8.80277	12.16
8.78786	12.1148
8.77298	12.0337
8.75816	12.0641
8.7434	12.0645
8.72868	11.9275
8.714	11.8302
8.69938	11.821
8.68481	11.7853
8.67029	11.5468
8.65581	11.3035
8.64139	11.0971
8.62701	10.859
8.61268	10.6544
8.5984	10.3054
8.58416	10.088
8.56997	10.0191
8.55583	9.6971
8.54174	9.41632
8.52769	9.35192
8.51368	9.12969
8.49973	8.8081
8.48582	8.6259
8.47195	8.43633
8.45813	8.11383
8.44436	7.93348
8.43062	7.84006
8.41693	7.58892
8.4033	7.35758
8.3897	7.21492
8.37614	6.98354
8.36264	6.8593
8.34917	6.70374
8.33574	6.56254
8.32236	6.54776
8.30903	6.45996
8.29573	6.20796
8.28248	6.14247
8.26927	6.14855
8.2561	6.01516
8.24298	5.9639
8.2299	6.03745
8.21685	6.10044
8.20385	6.24052
8.19089	6.24101
8.17797	6.18703
8.16509	6.26735
8.15225	6.32563
8.13946	6.40776
8.1267	6.4496
8.11398	6.42154
8.10131	6.48884
8.08867	6.55319
8.07606	6.45869
8.0635	6.26261
8.05099	6.13825
8.0385	6.02838
8.02606	6.01561
8.01366	6.11689
8.00129	6.18082
7.98896	6.14599
7.97667	6.16511
7.96442	6.2141
7.9522	6.15589
7.94002	5.87476
7.92788	5.57397
7.91578	5.2737
7.90371	4.87139
7.89168	4.43118
7.87969	4.06009
7.86773	3.60334
7.85581	3.18658
7.84392	2.872
7.83207	2.62263
7.82026	2.30107
7.80849	2.02287
7.79674	1.83056
7.78503	1.71464
7.77337	1.71097
7.76173	1.64011
7.75012	1.51568
7.73856	1.44647
7.72703	1.44777
7.71553	1.54124
7.70406	1.63885
7.69263	1.70803
7.68123	1.78011
7.66987	1.92178
7.65855	2.07054
7.64725	2.21103
7.63598	2.42291
7.62475	2.6198
7.61356	2.7099
7.60239	3.00568
7.59126	3.38503
7.58017	3.68323
7.5691	4.00498
7.55806	4.46474
7.54707	4.89422
7.5361	5.37289
7.52516	5.96123
7.51425	6.60613
7.50338	7.16934
7.49253	7.77232
7.48172	8.42405
7.47094	9.03324
7.46019	9.61729
7.44947	10.2717
7.43879	10.8954
7.42813	11.5369
7.4175	12.0821
7.4069	12.7965
7.39634	13.5273
7.3858	14.2137
7.37529	14.7516
7.36482	15.2032
7.35437	15.6964
7.34396	16.197
7.33357	16.5375
7.32321	16.7621
7.31288	17.117
7.30258	17.6533
7.29231	18.2013
7.28207	18.7631
7.27185	19.3577
7.26167	19.9133
7.25152	20.455
7.24139	21.1525
7.23129	21.8583
7.22122	22.4947
7.21117	23.1332
7.20116	23.7795
7.19117	24.462
7.18121	25.1792
7.17128	25.9112
7.16137	26.5703
7.1515	27.1987
7.14164	27.8766
7.13182	28.5484
7.12203	29.3168
7.11225	30.0876
7.10251	30.6911
7.0928	31.2976
7.08311	31.9129
7.07344	32.266
7.06381	32.2219
7.0542	31.6437
7.04461	31.0621
7.03506	32.0848
7.02552	34.9824
7.01601	37.9403
7.00653	40.1688
6.99708	41.9635
6.98765	43.5114
6.97824	44.8077
6.96886	46.0584
6.95951	47.2767
6.95018	48.0477
6.94087	48.7105
6.9316	49.325
6.92234	49.6989
6.91311	49.7627
6.90391	49.4193
6.89473	48.3376
6.88557	45.9558
6.87644	42.8767
6.86733	42.3304
6.85824	45.2727
6.84918	48.6953
6.84015	51.3519
6.83114	53.3803
6.82215	54.7453
6.81319	55.5663
6.80424	56.3385
6.79532	57.1948
6.78643	57.8857
6.77756	58.4461
6.76871	59.0908
6.75989	59.702
6.75109	60.3626
6.74231	60.8623
6.73355	61.2961
6.72482	61.6925
6.71611	61.9981
6.70742	62.1996
6.69875	62.2875
6.69011	62.6265
6.68149	62.9911
6.67289	62.9718
6.66431	62.8514
6.65576	62.7786
6.64722	62.9667
6.63871	63.1655
6.63022	62.5804
6.62175	61.7308
6.61331	61.0858
6.60488	60.2869
6.59648	59.4187
6.5881	58.3522
6.57974	57.1884
6.5714	55.8951
6.56308	54.228
6.55478	52.6343
6.54651	50.9459
6.53825	49.267
6.53001	47.7457
6.5218	46.4147
6.51361	45.0017
6.50544	43.7773
6.49729	42.842
6.48915	41.3728
6.48104	39.7812
6.47295	38.5559
6.46488	37.4723
6.45683	36.7639
6.4488	36.4073
6.44079	36.3279
6.4328	36.5886
6.42482	37.0472
6.41687	37.7201
6.40894	37.7608
6.40103	37.3669
6.39314	37.3115
6.38526	37.5385
6.37741	38.0429
6.36957	38.6688
6.36176	39.0994
6.35396	39.774
6.34618	40.6374
6.33843	41.0996
6.33069	41.4355
6.32297	42.0001
6.31527	42.4748
6.30758	42.8708
6.29992	43.1363
6.29227	43.3323
6.28465	43.37
6.27704	43.0897
6.26945	42.3104
6.26188	41.071
6.25432	39.4515
6.24679	38.1101
6.23927	37.5486
6.23177	37.9029
6.22429	38.8203
6.21683	39.8174
6.20938	40.507
6.20195	40.5855
6.19454	39.9388
6.18715	38.9198
6.17978	38.0279
6.17242	38.3812
6.16508	39.9517
6.15776	42.0678
6.15045	44.1747
6.14317	46.1269
6.1359	47.4712
6.12864	48.1626
6.12141	48.6872
6.11419	49.1633
6.10699	49.1783
6.0998	49.2844
6.09263	49.5409
6.08549	50.0673
6.07835	51.0226
6.07123	52.1094
6.06413	53.0508
6.05705	54.4488
6.04998	56.2559
6.04293	57.1278
6.0359	57.824
6.02888	58.9497
6.02187	60.1217
6.01489	61.2056
6.00792	61.9081
6.00096	62.546
5.99403	63.4031
5.98711	64.0375
5.9802	64.1928
5.97331	64.3536
5.96644	64.2823
5.95958	63.533
5.95274	62.6556
5.94591	62.1814
5.9391	63.1233
5.9323	64.5576
5.92552	65.3016
5.91876	65.8423
5.91201	66.0744
5.90528	66.3238
5.89856	66.8338
5.89186	66.8712
5.88517	67.0635
5.8785	67.2179
5.87184	66.8655
5.8652	66.9943
5.85857	67.0822
5.85196	67.1262
5.84536	67.1974
5.83878	67.3563
5.83221	67.623
5.82566	67.9682
5.81912	67.9499
5.81259	67.6043
5.80608	67.4324
5.79959	67.404
5.79311	67.4741
5.78665	67.7999
5.78019	68.2321
5.77376	68.8077
5.76734	69.5361
5.76093	69.5692
5.75453	69.4837
5.74815	69.7945
5.74179	69.8938
5.73543	69.9632
5.7291	70.0235
5.72277	70.1696
5.71646	70.3651
5.71017	70.5005
5.70389	70.4015
5.69762	70.4666
5.69136	70.4881
5.68513	70.292
5.6789	70.4883
5.67268	70.7246
5.66648	70.7021
5.6603	70.8252
5.65413	70.9373
5.64797	71.1191
5.64182	71.3522
5.63569	71.239
5.62957	71.1557
5.62347	71.2893
5.61737	71.4861
5.61129	71.5913
5.60522	71.7508
5.59917	71.9377
5.59313	72.059
5.5871	72.2579
5.58109	72.5273
5.57509	72.57
5.5691	72.4737
5.56312	72.6096
5.55716	72.7687
5.55121	72.8585
5.54528	72.9146
5.53935	73.0195
5.53344	73.1768
5.52754	73.3362
5.52166	73.4661
5.51578	73.5041
5.50992	73.5108
5.50407	73.5852
5.49823	73.5581
5.49241	73.493
5.4866	73.4783
5.4808	73.4513
5.47501	73.3192
5.46923	73.2521
5.46347	73.2391
5.45772	73.0914
5.45198	73.0098
5.44625	73.1026
5.44054	73.1438
5.43484	73.1839
5.42914	73.276
5.42347	73.5483
5.4178	73.4809
5.41214	73.2342
5.4065	73.1403
5.40087	73.1938
5.39525	73.212
5.38964	73.1956
5.38404	73.2967
5.37846	73.3945
5.37288	73.4557
5.36732	73.6107
5.36177	73.8706
5.35623	74.1861
5.35071	74.5093
5.34519	74.7345
5.33968	74.9656
5.33419	75.2532
5.32871	75.5084
5.32324	75.8123
5.31778	76.1563
5.31233	76.5193
5.30689	76.7395
5.30147	76.9529
5.29605	77.2361
5.29065	77.4901
5.28525	77.5686
5.27987	77.7191
5.2745	77.8981
5.26914	77.9923
5.26379	78.1249
5.25845	78.2631
5.25312	78.3066
5.24781	78.3642
5.2425	78.416
5.23721	78.4996
5.23192	78.544
5.22665	78.4724
5.22138	78.4861
5.21613	78.5513
5.21089	78.5194
5.20566	78.4879
5.20044	78.447
5.19522	78.3801
5.19002	78.3633
5.18483	78.3281
5.17965	78.2294
5.17448	78.0999
5.16933	77.929
5.16418	77.7335
5.15904	77.4955
5.15391	77.1778
5.14879	76.7333
5.14368	76.2249
5.13859	75.9604
5.1335	76.0488
5.12842	76.1318
5.12335	76.0507
5.1183	75.8476
5.11325	75.4985
5.10821	75.0898
5.10318	74.6875
5.09817	74.2143
5.09316	73.6252
5.08816	72.8794
5.08317	72.0414
5.07819	71.0134
5.07322	69.6964
5.06826	67.861
5.06331	65.3663
5.05837	62.0551
5.05344	57.5977
5.04852	51.7347
5.04361	45.0936
5.03871	40.5263
5.03382	41.1736
5.02894	45.8296
5.02406	51.1796
5.0192	56.0689
5.01435	60.3978
5.0095	63.8304
5.00467	66.4159
4.99984	68.1331
4.99502	69.0413
4.99021	69.4882
4.98542	69.6127
4.98063	69.5659
4.97585	69.4138
4.97108	69.1103
4.96632	68.734
4.96156	68.3371
4.95682	67.782
4.95209	67.137
4.94736	66.4612
4.94264	65.6938
4.93794	64.8706
4.93324	63.9629
4.92855	62.9794
4.92387	61.8381
4.9192	60.6139
4.91453	59.2862
4.90988	57.7791
4.90524	56.2415
4.9006	54.5947
4.89597	52.7071
4.89135	50.7721
4.88674	48.6859
4.88214	46.1966
4.87755	43.3999
4.87296	40.5631
4.86839	37.6939
4.86382	34.7138
4.85926	31.6711
4.85471	28.6676
4.85017	25.9139
4.84564	23.6331
4.84111	22.1774
4.8366	21.5575
4.83209	21.6504
4.82759	21.989
4.8231	22.1667
4.81862	22.0462
4.81415	21.5452
4.80968	20.8015
4.80522	19.948
4.80077	19.0583
4.79633	18.4843
4.7919	18.4792
4.78747	19.0317
4.78306	19.9973
4.77865	21.2669
4.77425	22.6563
4.76986	23.9708
4.76547	25.0899
4.7611	25.9591
4.75673	26.3818
4.75237	26.3102
4.74802	26.0148
4.74367	25.8745
4.73934	25.8886
4.73501	26.1041
4.73069	26.5155
4.72638	26.8886
4.72207	27.1784
4.71777	27.5183
4.71348	27.8806
4.7092	28.2944
4.70493	28.7742
4.70066	29.2583
4.69641	29.5636
4.69216	29.6771
4.68791	29.5637
4.68368	29.3056
4.67945	29.0182
4.67523	28.6891
4.67102	28.3947
4.66682	28.1287
4.66262	27.8585
4.65843	27.5064
4.65425	27.1029
4.65007	26.6895
4.64591	26.2775
4.64175	25.9934
4.6376	25.6613
4.63345	25.3767
4.62932	25.352
4.62519	25.4315
4.62106	25.6217
4.61695	25.9296
4.61284	26.3845
4.60874	26.9212
4.60465	27.5162
4.60056	28.234
4.59648	28.9527
4.59241	29.7249
4.58835	30.556
4.58429	31.3803
4.58024	32.0592
4.5762	32.4877
4.57216	32.6744
4.56814	32.6119
4.56411	32.4938
4.5601	32.3093
4.55609	32.1533
4.55209	32.1326
4.5481	32.0927
4.54411	31.9066
4.54013	31.6554
4.53616	31.4239
4.5322	31.1229
4.52824	30.7947
4.52429	30.5577
4.52034	30.4357
4.51641	30.2906
4.51247	30.0736
4.50855	30.013
4.50463	30.0674
4.50072	30.0278
4.49682	30.059
4.49292	30.1117
4.48903	30.172
4.48515	30.3575
4.48127	30.6619
4.4774	31.0638
4.47354	31.4863
4.46968	32.0668
4.46584	32.7503
4.46199	33.4531
4.45815	34.1833
4.45432	34.8354
4.4505	35.4899
4.44668	36.1816
4.44287	36.8231
4.43907	37.36
4.43527	37.9738
4.43148	38.5524
4.4277	38.9657
4.42392	39.3051
4.42015	39.5901
4.41638	39.8499
4.41262	40.1379
4.40887	40.2793
4.40513	40.4414
4.40139	40.6771
4.39765	40.9284
4.39393	41.1914
4.39021	41.4501
4.38649	41.6417
4.38278	41.8223
4.37908	41.9838
4.37539	42.1248
4.3717	42.2507
4.36801	42.3684
4.36434	42.4969
4.36067	42.6039
4.357	42.6781
4.35335	42.8312
4.34969	43.1646
4.34605	43.5082
4.34241	43.8389
4.33877	44.1021
4.33514	44.3521
4.33152	44.5238
4.32791	44.6144
4.3243	44.6671
4.32069	44.6305
4.3171	44.5753
4.31351	44.6096
4.30992	44.7571
4.30634	44.9593
4.30277	45.1712
4.2992	45.3768
4.29564	45.575
4.29208	45.7506
4.28853	46.0398
4.28499	46.2743
4.28145	46.5202
4.27792	46.7754
4.27439	47.0678
4.27087	47.4152
4.26735	47.8141
4.26384	48.2703
4.26034	48.7395
4.25684	49.0239
4.25335	48.8201
4.24986	48.3624
4.24638	47.8747
4.24291	47.3518
4.23944	46.9048
4.23598	46.5755
4.23252	46.2607
4.22906	45.9609
4.22562	45.7807
4.22218	45.7269
4.21874	45.7448
4.21531	45.7556
4.21189	45.7246
4.20847	45.7902
4.20506	45.9201
4.20165	46.0344
4.19825	46.1009
4.19485	46.1552
4.19146	46.2318
4.18807	46.3518
4.18469	46.4871
4.18132	46.653
4.17795	46.8006
4.17458	46.9777
4.17123	47.1407
4.16787	47.3509
4.16453	47.6184
4.16118	47.9886
4.15785	48.4909
4.15451	49.0871
4.15119	49.5825
4.14787	50.1315
4.14455	50.8587
4.14124	51.5264
4.13794	52.2299
4.13464	53.0478
4.13134	53.8427
4.12805	54.6054
4.12477	55.4739
4.12149	56.4172
4.11822	57.4297
4.11495	58.4365
4.11168	59.5309
4.10843	60.6317
4.10517	61.7155
4.10192	62.8785
4.09868	63.9449
4.09545	64.8945
4.09221	65.8285
4.08899	66.7317
4.08576	67.5659
4.08255	68.3877
4.07933	69.1335
4.07613	69.8184
4.07292	70.4976
4.06973	71.0844
4.06654	71.6363
4.06335	72.222
4.06017	72.7513
4.05699	73.1791
4.05382	73.5727
4.05065	73.9694
4.04749	74.3722
4.04433	74.7374
4.04118	75.1266
4.03803	75.4994
4.03489	75.887
4.03175	76.2363
4.02862	76.5767
4.02549	76.9655
4.02237	77.3556
4.01925	77.6253
4.01614	77.8498
4.01303	78.1531
4.00993	78.44
4.00683	78.6754
4.00373	78.8913
4.00064	79.1086
3.99756	79.26
3.99448	79.4514
3.9914	79.7137
3.98833	79.8722
3.98527	79.9505
3.98221	80.0274
3.97915	80.1109
3.9761	80.2439
3.97305	80.4365
3.97001	80.6186
3.96697	80.7704
3.96394	80.8495
3.96091	80.9647
3.95789	81.0981
3.95487	81.206
3.95186	81.2476
3.94885	81.3467
3.94584	81.4678
3.94284	81.5198
3.93984	81.5887
3.93685	81.6954
3.93386	81.8301
3.93088	81.8869
3.9279	81.9445
3.92493	82.0516
3.92196	82.1634
3.919	82.3616
3.91604	82.5233
3.91308	82.5655
3.91013	82.6735
3.90718	82.8186
3.90424	82.8937
3.9013	82.9354
3.89837	83.0032
3.89544	83.0835
3.89252	83.2017
3.8896	83.3683
3.88668	83.4567
3.88377	83.4643
3.88086	83.5079
3.87796	83.5213
3.87506	83.4638
3.87217	83.4264
3.86928	83.4299
3.86639	83.3325
3.86351	83.2056
3.86064	83.112
3.85776	83.0109
3.8549	83.0063
3.85203	83.1864
3.84917	83.2927
3.84631	83.3443
3.84346	83.3834
3.84062	83.4123
3.83777	83.3003
3.83494	83.2133
3.8321	83.218
3.82927	83.3354
3.82644	83.5235
3.82362	83.7488
3.82081	83.9314
3.81799	84.0722
3.81518	84.1402
3.81238	84.2403
3.80958	84.3105
3.80678	84.3739
3.80399	84.5034
3.8012	84.5654
3.79841	84.6035
3.79563	84.6514
3.79286	84.6611
3.79008	84.7428
3.78731	84.8187
3.78455	84.9456
3.78179	85.0527
3.77903	85.1546
3.77628	85.1813
3.77353	85.1675
3.77079	85.2345
3.76805	85.3339
3.76531	85.3867
3.76258	85.42
3.75985	85.4013
3.75713	85.3954
3.7544	85.3698
3.75169	85.3693
3.74898	85.308
3.74627	85.2597
3.74356	85.2923
3.74086	85.3599
3.73816	85.3491
3.73547	85.3077
3.73278	85.2814
3.7301	85.2778
3.72741	85.2183
3.72474	85.2193
3.72206	85.2563
3.71939	85.2053
3.71673	85.1131
3.71406	85.1997
3.71141	85.2525
3.70875	85.2858
3.7061	85.3728
3.70345	85.3913
3.70081	85.3499
3.69817	85.2959
3.69553	85.3085
3.6929	85.3211
3.69027	85.2805
3.68765	85.3362
3.68503	85.4031
3.68241	85.4155
3.6798	85.4503
3.67719	85.4414
3.67458	85.4214
3.67198	85.4482
3.66938	85.4837
3.66678	85.4599
3.66419	85.4787
3.66161	85.5553
3.65902	85.6281
3.65644	85.6511
3.65387	85.62
3.65129	85.5852
3.64872	85.6087
3.64616	85.6517
3.64359	85.696
3.64103	85.7214
3.63848	85.6834
3.63593	85.6519
3.63338	85.6324
3.63084	85.644
3.6283	85.7503
3.62576	85.7627
3.62322	85.7322
3.62069	85.7184
3.61817	85.6177
3.61564	85.6092
3.61312	85.637
3.61061	85.6155
3.6081	85.6233
3.60559	85.6276
3.60308	85.6377
3.60058	85.599
3.59808	85.5347
3.59558	85.5422
3.59309	85.5583
3.59061	85.4824
3.58812	85.4002
3.58564	85.3868
3.58316	85.3683
3.58069	85.3459
3.57822	85.3177
3.57575	85.2587
3.57328	85.1947
3.57082	85.1689
3.56836	85.1795
3.56591	85.2192
3.56346	85.1765
3.56101	85.1298
3.55857	85.0813
3.55613	85.0689
3.55369	85.0384
3.55126	84.9775
3.54883	84.8636
3.5464	84.7937
3.54397	84.8023
3.54155	84.8102
3.53914	84.7351
3.53672	84.6837
3.53431	84.6564
3.5319	84.5209
3.5295	84.4371
3.5271	84.434
3.5247	84.3684
3.52231	84.3217
3.51991	84.2296
3.51753	83.9415
3.51514	83.645
3.51276	83.4139
3.51038	83.137
3.50801	82.8567
3.50563	82.611
3.50327	82.353
3.5009	82.1911
3.49854	82.1941
3.49618	82.4165
3.49382	82.7102
3.49147	82.8941
3.48912	82.9887
3.48677	83.041
3.48443	83.1125
3.48209	83.1595
3.47975	83.1859
3.47742	83.1397
3.47509	83.0683
3.47276	83.1081
3.47044	83.1997
3.46812	83.2264
3.4658	83.2138
3.46348	83.1931
3.46117	83.1174
3.45886	83.0162
3.45656	82.9222
3.45425	82.8371
3.45195	82.7993
3.44966	82.7252
3.44736	82.6085
3.44507	82.4509
3.44279	82.3284
3.4405	82.312
3.43822	82.1944
3.43594	81.9868
3.43367	81.8047
3.43139	81.6813
3.42912	81.4063
3.42686	81.0879
3.42459	80.6925
3.42233	80.3293
3.42007	80.1149
3.41782	80.0006
3.41557	79.9646
3.41332	79.9555
3.41108	80.083
3.40883	80.3608
3.40659	80.5818
3.40435	80.7433
3.40212	80.9845
3.39989	81.2322
3.39766	81.4148
3.39544	81.6066
3.39322	81.747
3.391	81.8455
3.38878	81.9453
3.38657	82.0306
3.38436	81.9098
3.38215	81.8579
3.37994	81.7437
3.37774	81.6443
3.37554	81.7043
3.37335	81.6848
3.37115	81.6181
3.36896	81.6186
3.36678	81.664
3.36459	81.7576
3.36241	81.8974
3.36023	82.0694
3.35805	82.142
3.35588	82.216
3.35371	82.41
3.35154	82.5942
3.34938	82.6898
3.34721	82.7206
3.34505	82.7511
3.3429	82.813
3.34074	82.8465
3.33859	82.8927
3.33644	82.9883
3.3343	83.0414
3.33215	82.965
3.33001	82.9197
3.32788	82.9936
3.32574	82.9934
3.32361	82.9434
3.32148	82.9419
3.31936	82.9598
3.31723	82.8557
3.31511	82.7271
3.31299	82.6362
3.31088	82.5075
3.30876	82.3891
3.30665	82.3712
3.30455	82.3372
3.30244	82.1623
3.30034	82.0388
3.29824	81.8534
3.29614	81.5738
3.29405	81.3695
3.29196	81.1598
3.28987	80.8775
3.28778	80.4879
3.2857	80.2372
3.28362	79.9886
3.28154	79.5857
3.27946	79.2651
3.27739	79.1109
3.27532	79.1285
3.27325	79.1441
3.27119	79.1483
3.26913	79.2058
3.26707	79.2282
3.26501	79.2383
3.26295	79.2695
3.2609	79.2546
3.25885	79.1178
3.2568	79.0455
3.25476	79.0838
3.25272	79.1739
3.25068	79.1569
3.24864	79.1328
3.24661	79.2814
3.24458	79.3826
3.24255	79.3908
3.24052	79.3949
3.2385	79.4591
3.23648	79.527
3.23446	79.625
3.23244	79.6855
3.23043	79.6219
3.22841	79.5602
3.2264	79.5616
3.2244	79.6288
3.22239	79.7174
3.22039	79.7985
3.21839	79.7481
3.2164	79.6404
3.2144	79.6169
3.21241	79.5592
3.21042	79.542
3.20844	79.521
3.20645	79.4203
3.20447	79.3703
3.20249	79.254
3.20051	79.1121
3.19854	79.1021
3.19657	79.0423
3.1946	78.8899
3.19263	78.7981
3.19067	78.668
3.1887	78.6088
3.18674	78.5728
3.18479	78.4852
3.18283	78.3772
3.18088	78.1897
3.17893	78.0396
3.17698	77.9879
3.17504	77.9283
3.17309	77.7849
3.17115	77.7199
3.16921	77.7272
3.16728	77.7204
3.16534	77.6194
3.16341	77.473
3.16148	77.4575
3.15956	77.5051
3.15763	77.474
3.15571	77.4361
3.15379	77.4284
3.15187	77.2966
3.14996	77.202
3.14805	77.1644
3.14614	77.153
3.14423	77.1248
3.14232	77.0538
3.14042	76.8975
3.13852	76.7758
3.13662	76.8089
3.13472	76.8295
3.13283	76.8001
3.13094	76.7952
3.12905	76.7445
3.12716	76.6373
3.12528	76.4731
3.12339	76.4453
3.12151	76.4348
3.11964	76.4599
3.11776	76.3924
3.11589	76.2959
3.11401	76.2651
3.11214	76.295
3.11028	76.2057
3.10841	76.092
3.10655	76.0756
3.10469	76.0952
3.10283	76.0217
3.10098	75.9835
3.09912	75.9759
3.09727	75.9494
3.09542	76.0143
3.09358	76.0007
3.09173	75.847
3.08989	75.7307
3.08805	75.6845
3.08621	75.6143
3.08437	75.5808
3.08254	75.5255
3.08071	75.4174
3.07888	75.2951
3.07705	75.2765
3.07523	75.3097
3.0734	75.3367
3.07158	75.293
3.06977	75.2623
3.06795	75.2578
3.06613	75.0912
3.06432	75.0028
3.06251	75.0166
3.0607	75.0356
3.0589	75.0857
3.0571	75.0401
3.05529	74.9744
3.05349	74.9383
3.0517	74.9963
3.0499	74.9818
3.04811	74.8889
3.04632	74.8819
3.04453	74.876
3.04274	74.819
3.04096	74.7176
3.03918	74.6343
3.0374	74.6246
3.03562	74.6125
3.03384	74.6495
3.03207	74.5879
3.03029	74.5075
3.02852	74.4205
3.02676	74.4071
3.02499	74.4679
3.02323	74.4234
3.02146	74.3602
3.0197	74.2604
3.01795	74.1092
3.01619	74.1712
3.01444	74.3409
3.01269	74.2247
3.01094	74.0683
3.00919	74.0717
3.00744	74.0946
3.0057	74.0266
3.00396	73.9685
3.00222	73.889
3.00048	73.8089
2.99875	73.8397
2.99701	73.7335
2.99528	73.6032
2.99355	73.6863
2.99183	73.7532
2.9901	73.7053
2.98838	73.6799
2.98666	73.6408
2.98494	73.5153
2.98322	73.4516
2.9815	73.4603
2.97979	73.449
2.97808	73.4605
2.97637	73.483
2.97466	73.3697
2.97295	73.2201
2.97125	73.2336
2.96955	73.3562
2.96785	73.3607
2.96615	73.2437
2.96446	73.183
2.96276	73.0698
2.96107	73.0379
2.95938	73.0745
2.95769	73.1002
2.95601	73.0736
2.95432	73.0521
2.95264	73.0565
2.95096	73.026
2.94928	72.9929
2.9476	73.0558
2.94593	73.0303
2.94425	72.9298
2.94258	72.9185
2.94092	72.9782
2.93925	72.9638
2.93758	72.9274
2.93592	72.9416
2.93426	72.9768
2.9326	73.0932
2.93094	73.1044
2.92928	73.0091
2.92763	72.9832
2.92598	72.9813
2.92433	73.0537
2.92268	73.0909
2.92103	72.9017
2.91939	72.9718
2.91775	73.1134
2.9161	73.0833
2.91447	73.1979
2.91283	73.2058
2.91119	73.1638
2.90956	73.2482
2.90793	73.2585
2.9063	73.252
2.90467	73.2106
2.90304	73.107
2.90142	73.1084
2.89979	73.179
2.89817	73.3004
2.89656	73.2614
2.89494	73.1475
2.89332	73.2178
2.89171	73.2319
2.8901	73.2737
2.88849	73.329
2.88688	73.3968
2.88527	73.4098
2.88367	73.4934
2.88206	73.5606
2.88046	73.5023
2.87886	73.479
2.87727	73.469
2.87567	73.4371
2.87408	73.4838
2.87248	73.5525
2.87089	73.5061
2.8693	73.475
2.86772	73.5027
2.86613	73.6335
2.86455	73.8067
2.86297	73.8918
2.86139	73.9157
2.85981	73.8505
2.85823	73.8426
2.85666	73.9648
2.85508	74.0642
2.85351	74.1259
2.85194	74.2182
2.85038	74.3337
2.84881	74.3414
2.84724	74.2597
2.84568	74.3449
2.84412	74.4808
2.84256	74.4976
2.841	74.5016
2.83945	74.657
2.83789	74.7887
2.83634	74.8111
2.83479	74.9175
2.83324	75.0671
2.83169	75.1545
2.83015	75.2105
2.82861	75.3401
2.82706	75.4143
2.82552	75.4591
2.82398	75.6416
2.82245	75.7182
2.82091	75.7267
2.81938	75.8053
2.81784	75.9332
2.81631	76.1039
2.81479	76.2878
2.81326	76.3491
2.81173	76.3872
2.81021	76.5683
2.80869	76.7551
2.80716	76.8191
2.80565	76.9063
2.80413	77.1216
2.80261	77.2124
2.8011	77.177
2.79959	77.2456
2.79808	77.5333
2.79657	77.7088
2.79506	77.7314
2.79355	77.908
2.79205	78.1041
2.79055	78.2107
2.78904	78.536
2.78754	78.8789
2.78605	78.95
2.78455	78.8987
2.78306	79.1584
2.78156	79.422
2.78007	79.4015
2.77858	79.4077
2.77709	79.661
2.77561	79.8118
2.77412	79.9829
2.77264	80.3493
2.77116	80.6791
2.76968	80.8292
2.7682	80.9248
2.76672	81.102
2.76524	81.2448
2.76377	81.5286
2.7623	81.7306
2.76083	81.7173
2.75936	81.7059
2.75789	81.9251
2.75642	82.397
2.75496	82.5679
2.7535	82.4574
2.75203	82.6053
2.75057	82.7229
2.74912	82.9242
2.74766	83.0603
2.7462	83.2819
2.74475	83.4373
2.7433	83.5716
2.74185	83.9617
2.7404	84.3065
2.73895	84.324
2.7375	84.0907
2.73606	84.2917
2.73462	84.5688
2.73318	84.5075
2.73174	84.5805
2.7303	84.7032
2.72886	84.8039
2.72742	84.9751
2.72599	85.3094
2.72456	85.6522
2.72313	85.5723
2.7217	85.7071
2.72027	85.9324
2.71884	85.6828
2.71742	85.7103
2.71599	85.7495
2.71457	85.7418
2.71315	85.9431
2.71173	86.422
2.71032	86.5523
2.7089	86.3692
2.70748	86.1512
2.70607	86.016
2.70466	85.9754
2.70325	86.0889
2.70184	86.4015
2.70043	86.5801
2.69903	86.5877
2.69762	86.7047
2.69622	86.9451
2.69482	87.2257
2.69342	87.2873
2.69202	87.0543
2.69062	87.064
2.68923	87.2496
2.68783	87.2638
2.68644	87.1898
2.68505	87.1558
2.68366	87.2562
2.68227	87.282
2.68089	87.2851
2.6795	87.5053
2.67812	87.6714
2.67673	87.8145
2.67535	87.617
2.67397	87.4297
2.6726	87.4782
2.67122	87.9871
2.66984	88.0843
2.66847	87.8147
2.6671	88.1185
2.66572	88.236
2.66435	88.035
2.66299	87.6985
2.66162	87.6809
2.66025	87.689
2.65889	87.7323
2.65753	87.67
2.65616	87.7312
2.65481	87.7193
2.65345	87.6963
2.65209	87.7618
2.65073	87.7535
2.64938	87.7422
2.64803	87.655
2.64667	87.6644
2.64532	87.6957
2.64397	87.6211
2.64263	87.6313
2.64128	87.5537
2.63994	87.6101
2.63859	87.6966
2.63725	87.6652
2.63591	87.668
2.63457	87.8245
2.63323	87.876
2.6319	87.988
2.63056	88.1942
2.62923	88.0562
2.62789	87.9086
2.62656	88.0102
2.62523	87.8975
2.6239	87.8284
2.62258	87.7998
2.62125	88.0672
2.61993	88.1224
2.6186	87.9254
2.61728	88.1808
2.61596	88.0718
2.61464	87.7517
2.61332	87.785
2.61201	87.8828
2.61069	88.0037
2.60938	87.9901
2.60807	87.8949
2.60675	88.0393
2.60544	88.126
2.60414	87.887
2.60283	87.8451
2.60152	87.8191
2.60022	87.763
2.59891	87.7162
2.59761	87.8928
2.59631	88.3101
2.59501	88.7225
2.59371	88.3247
2.59242	87.8107
2.59112	87.7843
2.58983	87.876
2.58853	87.9573
2.58724	88.0664
2.58595	87.9604
2.58466	88.0844
2.58338	88.1673
2.58209	87.9494
2.5808	87.7876
2.57952	87.6268
2.57824	87.7248
2.57695	87.8775
2.57567	87.9609
2.5744	88.0599
2.57312	87.9775
2.57184	87.7351
2.57057	87.8335
2.56929	87.9131
2.56802	87.805
2.56675	87.7206
2.56548	87.8008
2.56421	87.9351
2.56294	87.9546
2.56168	87.9918
2.56041	87.9781
2.55915	87.8735
2.55789	87.723
2.55662	87.599
2.55536	87.6244
2.5541	87.7431
2.55285	87.8958
2.55159	87.871
2.55034	87.8083
2.54908	87.7462
2.54783	87.7723
2.54658	87.8504
2.54533	87.8174
2.54408	87.7733
2.54283	87.7755
2.54159	87.7533
2.54034	87.6941
2.5391	87.6598
2.53785	87.6741
2.53661	87.7396
2.53537	87.7009
2.53413	87.7225
2.53289	87.8227
2.53166	87.8749
2.53042	87.8736
2.52919	87.8035
2.52795	87.7174
2.52672	87.6825
2.52549	87.6187
2.52426	87.6214
2.52303	87.774
2.52181	87.7937
2.52058	87.7016
2.51936	87.7377
2.51813	87.7897
2.51691	87.777
2.51569	87.7765
2.51447	87.7924
2.51325	87.8069
2.51203	87.7115
2.51082	87.6622
2.5096	87.7279
2.50839	87.6952
2.50717	87.663
2.50596	87.6984
2.50475	87.6224
2.50354	87.5817
2.50233	87.7748
2.50113	87.8753
2.49992	87.7455
2.49872	87.6676
2.49751	87.7312
2.49631	87.7929
2.49511	87.8449
2.49391	87.8807
2.49271	87.8825
2.49151	87.7884
2.49031	87.6508
2.48912	87.6284
2.48792	87.6494
2.48673	87.6795
2.48554	87.7025
2.48435	87.6745
2.48316	87.6168
2.48197	87.6275
2.48078	87.724
2.4796	87.7568
2.47841	87.7414
2.47723	87.8184
2.47604	87.8033
2.47486	87.7735
2.47368	87.71
2.4725	87.6665
2.47132	87.7305
2.47014	87.8396
2.46897	87.8335
2.46779	87.7422
2.46662	87.8145
2.46545	87.8846
2.46427	87.7728
2.4631	87.7426
2.46193	87.8213
2.46077	87.7481
2.4596	87.7536
2.45843	87.8423
2.45727	87.8052
2.4561	87.8221
2.45494	87.8168
2.45378	87.8582
2.45262	87.949
2.45146	87.9112
2.4503	87.7627
2.44914	87.6751
2.44799	87.7352
2.44683	87.7845
2.44568	87.7513
2.44452	87.7532
2.44337	87.7076
2.44222	87.6641
2.44107	87.7085
2.43992	87.6716
2.43877	87.6852
2.43763	87.8028
2.43648	87.8405
2.43534	87.8573
2.43419	87.9146
2.43305	87.9739
2.43191	87.7743
2.43077	87.5702
2.42963	87.7038
2.42849	87.7419
2.42736	87.7289
2.42622	87.7807
2.42509	87.7863
2.42395	87.7151
2.42282	87.7217
2.42169	87.7924
2.42056	87.8269
2.41943	87.7586
2.4183	87.7617
2.41717	87.8086
2.41605	87.7773
2.41492	87.925
2.4138	88.0661
2.41267	87.9067
2.41155	87.7844
2.41043	87.749
2.40931	87.8724
2.40819	87.9401
2.40707	87.9524
2.40595	87.919
2.40484	87.8124
2.40372	87.7546
2.40261	87.8319
2.4015	87.9012
2.40039	87.9343
2.39928	87.8847
2.39817	87.8447
2.39706	87.8394
2.39595	87.8967
2.39484	87.902
2.39374	87.7984
2.39263	87.8584
2.39153	87.9302
2.39043	87.8569
2.38932	87.8522
2.38822	87.8252
2.38712	87.8193
2.38603	87.9559
2.38493	88.0299
2.38383	88.028
2.38274	87.9915
2.38164	87.9211
2.38055	87.8986
2.37946	87.8178
2.37836	87.8718
2.37727	87.9674
2.37618	87.933
2.3751	87.8711
2.37401	87.8687
2.37292	87.8362
2.37184	87.8524
2.37075	87.9128
2.36967	87.8786
2.36859	87.8863
2.3675	87.8009
2.36642	87.8302
2.36534	87.8918
2.36427	87.8403
2.36319	87.8808
2.36211	87.9452
2.36104	87.9413
2.35996	87.9146
2.35889	87.9353
2.35781	87.9723
2.35674	87.9716
2.35567	87.9764
2.3546	87.9638
2.35353	87.9615
2.35247	87.9476
2.3514	87.895
2.35033	87.8108
2.34927	87.9487
2.3482	88.12
2.34714	88.0494
2.34608	87.9554
2.34502	88.0396
2.34396	88.0372
2.3429	87.9189
2.34184	87.9154
2.34078	88.0216
2.33973	88.0095
2.33867	87.9739
2.33762	87.9209
2.33656	87.8783
2.33551	88.0139
2.33446	88.1149
2.33341	88.0583
2.33236	88.0147
2.33131	87.9432
2.33026	87.9992
2.32922	88.0641
2.32817	88.0742
2.32712	88.0568
2.32608	88.0353
2.32504	88.0246
2.324	88.0224
2.32295	88.0791
2.32191	88.0454
2.32087	87.9487
2.31984	88.0158
2.3188	88.0678
2.31776	87.9944
2.31673	87.9833
2.31569	87.9848
2.31466	88.038
2.31362	88.0459
2.31259	88.0201
2.31156	88.0861
2.31053	88.0604
2.3095	87.9421
2.30847	87.8136
2.30745	87.7613
2.30642	87.8684
2.3054	87.9468
2.30437	87.9583
2.30335	87.987
2.30232	87.8919
2.3013	87.7922
2.30028	87.8581
2.29926	87.9505
2.29824	87.9121
2.29722	88.0451
2.29621	88.1311
2.29519	88.0392
2.29417	87.9443
2.29316	87.8948
2.29215	87.9743
2.29113	88.0164
2.29012	88.002
2.28911	87.9313
2.2881	87.8376
2.28709	88.0045
2.28608	88.1159
2.28507	87.9807
2.28407	87.9499
2.28306	87.9821
2.28206	87.9789
2.28105	88.0511
2.28005	88.0589
2.27905	88.0486
2.27805	87.9807
2.27705	87.8911
2.27605	87.9755
2.27505	88.042
2.27405	88.0804
2.27305	88.0704
2.27206	88.0395
2.27106	88.0315
2.27007	87.9083
2.26907	87.8299
2.26808	87.947
2.26709	87.9426
2.2661	87.8035
2.26511	87.9305
2.26412	88.0863
2.26313	88.0679
2.26214	88.0427
2.26116	87.9809
2.26017	88.0488
2.25919	88.0954
2.2582	88.0012
2.25722	87.956
2.25624	87.9328
2.25526	87.9142
2.25428	87.9696
2.2533	88.0429
2.25232	87.9962
2.25134	88.087
2.25036	88.0753
2.24939	88.0579
2.24841	88.0459
2.24744	87.9326
2.24646	87.9195
2.24549	87.9345
2.24452	88.0468
2.24355	88.0226
2.24257	87.9417
2.24161	88.017
2.24064	88.1001
2.23967	88.1175
2.2387	87.9788
2.23774	87.8309
2.23677	87.8679
2.23581	88.0265
2.23484	88.1469
2.23388	88.0408
2.23292	87.9641
2.23196	88.0297
2.231	88.0448
2.23004	87.9339
2.22908	87.933
2.22812	88.0639
2.22716	88.0588
2.22621	87.9989
2.22525	88.0034
2.2243	88.04
2.22334	88.0407
2.22239	87.9945
2.22144	87.984
2.22049	88.0313
2.21953	88.0139
2.21859	88.01
2.21764	88.0894
2.21669	88.1595
2.21574	88.0479
2.21479	87.9151
2.21385	87.9831
2.2129	88.0916
2.21196	88.0762
2.21102	88.1057
2.21007	88.1067
2.20913	88.092
2.20819	88.0104
2.20725	88.0158
2.20631	88.12
2.20537	88.1917
2.20444	88.0456
2.2035	88.0043
2.20256	88.1257
2.20163	88.089
2.20069	88.0051
2.19976	88.0861
2.19883	88.1529
2.19789	88.15
2.19696	88.1317
2.19603	88.0425
2.1951	87.9195
2.19417	87.8137
2.19325	87.9071
2.19232	88.1332
2.19139	88.2298
2.19047	88.1999
2.18954	88.1586
2.18862	88.2176
2.18769	88.1636
2.18677	88.1784
2.18585	88.1424
2.18493	88.0359
2.18401	88.0431
2.18309	88.1315
2.18217	88.1332
2.18125	88.1599
2.18033	88.1039
2.17942	88.0663
2.1785	87.9034
2.17759	87.8919
2.17667	88.1184
2.17576	88.2454
2.17485	88.2979
2.17393	88.2548
2.17302	88.1122
2.17211	88.0313
2.1712	88.0135
2.17029	87.965
2.16939	87.8441
2.16848	87.8753
2.16757	88.1896
2.16667	88.3079
2.16576	88.2706
2.16486	88.2648
2.16395	88.1759
2.16305	88.0145
2.16215	88.0533
2.16125	88.1712
2.16035	87.9618
2.15945	87.8465
2.15855	88.0998
2.15765	88.2927
2.15675	88.2241
2.15586	88.0264
2.15496	88.0188
2.15406	88.0969
2.15317	87.9917
2.15228	88.0159
2.15138	88.0992
2.15049	88.0538
2.1496	88.0649
2.14871	88.0667
2.14782	88.0851
2.14693	88.0549
2.14604	88.0269
2.14515	88.11
2.14427	88.1063
2.14338	88.0498
2.14249	88.0632
2.14161	88.1411
2.14072	88.3456
2.13984	88.3832
2.13896	88.0557
2.13808	87.8299
2.13719	88.0333
2.13631	88.1753
2.13543	88.1133
2.13455	88.0664
2.13368	88.2521
2.1328	88.202
2.13192	88.1039
2.13105	88.0113
2.13017	88.0516
2.1293	88.1208
2.12842	88.1961
2.12755	88.1909
2.12668	88.0626
2.1258	87.8864
2.12493	87.8424
2.12406	88.0409
2.12319	88.2162
2.12232	88.2293
2.12145	88.1521
2.12059	88.1381
2.11972	88.0622
2.11885	87.9979
2.11799	88.0477
2.11712	88.0553
2.11626	88.0678
2.1154	88.0176
2.11453	88.01
2.11367	88.1845
2.11281	88.1242
2.11195	87.8959
2.11109	88.0477
2.11023	88.1233
2.10937	88.0957
2.10851	88.2281
2.10766	88.1968
2.1068	88.1429
2.10594	88.1389
2.10509	88.068
2.10423	88.0621
2.10338	88.0728
2.10253	88.0044
2.10168	88.1619
2.10082	88.1581
2.09997	88.1118
2.09912	88.1288
2.09827	87.9855
2.09742	87.8503
2.09658	87.8055
2.09573	88.0427
2.09488	88.2841
2.09404	88.1731
2.09319	88.1956
2.09235	88.0639
2.0915	87.8044
2.09066	87.8692
2.08982	87.8854
2.08897	87.968
2.08813	88.1295
2.08729	87.9347
2.08645	88.0362
2.08561	88.0967
2.08477	88.1281
2.08394	88.1734
2.0831	88.1837
2.08226	88.1495
2.08143	88.2796
2.08059	88.1491
2.07976	88.0826
2.07892	88.3483
2.07809	88.2586
2.07726	88.1364
2.07643	88.0692
2.07559	87.8131
2.07476	88.0408
2.07393	87.9886
2.0731	87.8322
2.07228	87.7534
2.07145	87.7215
2.07062	87.8789
2.06979	88.0129
2.06897	87.9513
2.06814	88.2047
2.06732	88.4734
2.06649	88.384
2.06567	88.456
2.06485	88.4284
2.06403	88.179
2.0632	88.1387
2.06238	87.8566
2.06156	87.8195
2.06074	88.1462
2.05993	88.3298
2.05911	88.1052
2.05829	87.9307
2.05747	87.9718
2.05666	87.9612
2.05584	88.0893
2.05503	88.1763
2.05421	88.2546
2.0534	88.2024
2.05259	88.2181
2.05177	88.3276
2.05096	88.1794
2.05015	88.0742
2.04934	88.126
2.04853	87.9822
2.04772	88.0936
2.04691	88.404
2.04611	88.2587
2.0453	87.9649
2.04449	88.0371
2.04369	88.0531
2.04288	88.2391
2.04208	88.2905
2.04127	88.0205
2.04047	88.0361
2.03967	88.128
2.03886	88.1149
2.03806	88.2167
2.03726	88.2357
2.03646	88.2444
2.03566	88.1617
2.03486	88.0814
2.03407	88.031
2.03327	88.1083
2.03247	88.175
2.03167	87.8797
2.03088	87.8253
2.03008	88.0161
2.02929	88.1689
2.0285	88.1984
2.0277	88.2003
2.02691	88.1629
2.02612	88.2531
2.02533	88.245
2.02453	88.0912
2.02374	88.0499
2.02295	88.0945
2.02217	88.2123
2.02138	88.3217
2.02059	88.1925
2.0198	87.9715
2.01902	87.8175
2.01823	88.0085
2.01744	88.1507
2.01666	88.0638
2.01588	88.2109
2.01509	88.1744
2.01431	87.9811
2.01353	88.0073
2.01275	88.0977
2.01196	88.1053
2.01118	88.0844
2.0104	87.9475
2.00963	88.0973
2.00885	88.0917
2.00807	87.8033
2.00729	87.7212
2.00651	87.9791
2.00574	88.1467
2.00496	88.0066
2.00419	88.0029
2.00341	88.2167
2.00264	88.3098
2.00187	88.1202
2.00109	87.8953
2.00032	87.9011
