Name: Andesite Breccia
Type: Rock
Class: Igneous
Subclass:  Intermediate 
Particle Size: Solid surface
Sample No.: Ward28.txt
Owner: JPL
Wavelength range:  IR  
Origin: Ward's Collection of American Rocks.  Sample locality - Ouray, ouray County, Colorado.
Collected by:  Ward's Natural Science
Description: A compact rock with angular fragments of varicolored green
and purple extrusive material embedded in a variegated gray-green to
purple groundmass.
Geologic age - Tertiary (Eocene).


Measurement: Hemispherical reflectance
First Column: X
Second Column: Y
X Units: Wavelength (micrometers)
Y Units: Reflectance (percent)
First X Value: 15.3871
Last X Value: 1.9998
Number of X Values: 2257
Additional information: None

15.3871   2.78815
15.3416   2.88200
15.2964   2.86443
15.2514   2.86914
15.2066   2.74438
15.1622   2.74749
15.1180   2.78287
15.0740   2.66030
15.0303   2.53028
14.9869   2.47289
14.9437   2.56429
14.9008   2.84928
14.8581   2.96417
14.8156   2.96001
14.7734   2.74536
14.7314   2.64373
14.6897   2.86095
14.6482   2.93600
14.6069   2.57182
14.5659   2.54629
14.5251   2.66092
14.4845   2.68221
14.4442   2.76946
14.4041   2.78744
14.3642   2.47371
14.3245   2.50993
14.2850   2.36932
14.2458   2.31818
14.2068   2.61172
14.1679   2.79009
14.1293   2.70653
14.0909   2.58191
14.0528   2.57897
14.0148   2.58909
13.9770   2.45920
13.9394   2.42990
13.9021   2.73821
13.8649   2.77004
13.8279   2.59461
13.7911   2.55170
13.7546   2.60795
13.7182   2.46891
13.6820   2.58855
13.6460   2.83613
13.6101   2.92881
13.5745   3.08604
13.5391   3.07010
13.5038   2.92816
13.4687   2.96370
13.4339   3.05376
13.3991   2.95428
13.3646   2.74888
13.3302   2.82085
13.2961   2.99647
13.2621   2.93395
13.2282   3.02232
13.1946   3.09363
13.1611   3.28588
13.1278   3.39641
13.0946   3.28132
13.0616   3.27877
13.0288   3.19802
12.9962   3.20363
12.9637   3.26867
12.9313   3.33832
12.8992   3.35958
12.8672   3.42208
12.8353   3.39244
12.8036   3.21324
12.7721   3.17335
12.7407   3.21538
12.7095   3.08637
12.6784   2.99423
12.6475   3.03572
12.6167   3.07565
12.5861   3.05228
12.5556   3.20037
12.5253   3.36906
12.4951   3.36476
12.4651   3.22585
12.4352   2.99760
12.4054   2.81747
12.3758   2.74491
12.3463   2.74844
12.3170   2.53821
12.2878   2.53837
12.2588   2.62605
12.2299   2.73070
12.2011   2.80862
12.1725   2.77167
12.1439   2.82424
12.1156   3.00275
12.0873   3.00508
12.0592   2.98904
12.0312   3.12189
12.0034   3.23820
11.9757   3.40326
11.9481   3.45957
11.9206   3.46901
11.8933   3.58671
11.8661   3.43293
11.8390   3.36278
11.8120   3.52646
11.7852   3.58083
11.7584   3.50836
11.7318   3.43417
11.7053   3.56633
11.6790   3.75704
11.6527   3.88047
11.6266   3.91642
11.6006   3.91847
11.5747   3.87914
11.5489   4.00037
11.5233   4.05088
11.4977   4.12897
11.4723   4.22343
11.4469   4.29344
11.4217   4.31523
11.3966   4.38887
11.3716   4.55581
11.3468   4.52720
11.3220   4.53814
11.2973   4.66193
11.2728   4.84461
11.2483   5.04563
11.2240   5.05371
11.1997   4.87476
11.1756   4.84031
11.1515   5.01363
11.1276   4.85705
11.1038   4.84763
11.0801   5.16020
11.0564   5.11201
11.0329   4.90483
11.0095   4.90993
10.9862   4.88831
10.9629   4.86256
10.9398   4.94407
10.9168   5.03330
10.8938   5.08990
10.8710   5.17475
10.8483   5.13049
10.8256   5.09578
10.8031   5.12264
10.7806   5.26648
10.7582   5.44638
10.7360   5.67840
10.7138   5.70003
10.6917   5.70039
10.6697   5.91983
10.6478   6.16040
10.6260   6.24721
10.6042   6.47890
10.5826   6.65158
10.5610   6.59447
10.5396   6.60955
10.5182   6.91150
10.4969   7.20494
10.4757   7.24446
10.4546   7.25843
10.4335   7.38468
10.4126   7.51090
10.3917   7.70291
10.3709   7.87492
10.3502   8.04451
10.3296   8.05135
10.3091   8.07707
10.2886   8.24354
10.2683   8.37069
10.2480   8.48540
10.2277   8.63053
10.2076   8.73999
10.1876   8.84838
10.1676   8.87753
10.1477   9.10490
10.1279   9.27463
10.1081   9.44287
10.0885   9.51597
10.0689   9.63385
10.0494   9.81002
10.0299   9.91401
10.0106   9.93921
 9.9913   9.97655
 9.9720  10.13580
 9.9529  10.19640
 9.9338  10.21300
 9.9148  10.29010
 9.8959  10.23000
 9.8771  10.25260
 9.8583  10.31860
 9.8396  10.32370
 9.8210  10.53180
 9.8024  10.62530
 9.7839  10.54290
 9.7655  10.69430
 9.7471  10.87400
 9.7288  10.95830
 9.7106  11.21270
 9.6925  11.35790
 9.6744  11.42940
 9.6564  11.45710
 9.6384  11.63090
 9.6205  11.98290
 9.6027  12.09830
 9.5850  12.14940
 9.5673  12.19990
 9.5497  12.42540
 9.5321  12.54220
 9.5146  12.58370
 9.4972  12.42490
 9.4798  12.32240
 9.4625  12.38830
 9.4453  12.47120
 9.4281  12.39720
 9.4110  12.27300
 9.3940  12.26270
 9.3770  12.34040
 9.3600  12.37150
 9.3432  12.34970
 9.3264  12.44660
 9.3096  12.65820
 9.2930  12.59670
 9.2763  12.49580
 9.2598  12.57380
 9.2432  12.59640
 9.2268  12.50560
 9.2104  12.27960
 9.1941  12.09200
 9.1778  12.04330
 9.1616  11.99580
 9.1454  12.04220
 9.1293  12.04900
 9.1133  12.01940
 9.0973  11.82690
 9.0814  11.53620
 9.0655  11.40120
 9.0497  11.34860
 9.0339  11.25500
 9.0182  11.06930
 9.0025  10.91340
 8.9870  10.73450
 8.9714  10.50060
 8.9559  10.30740
 8.9405  10.06670
 8.9251   9.94402
 8.9097   9.80763
 8.8945   9.57364
 8.8792   9.56244
 8.8641   9.65604
 8.8489   9.59469
 8.8338   9.57609
 8.8188   9.36596
 8.8039   9.25256
 8.7889   9.40086
 8.7741   9.37690
 8.7592   9.29188
 8.7445   9.17593
 8.7297   9.07667
 8.7151   8.99772
 8.7005   8.85646
 8.6859   8.56884
 8.6714   8.33082
 8.6569   8.15925
 8.6425   7.85245
 8.6281   7.76917
 8.6137   7.83371
 8.5994   7.95719
 8.5852   8.25901
 8.5710   8.53477
 8.5569   8.60606
 8.5428   8.55289
 8.5287   8.56022
 8.5147   8.61490
 8.5008   8.45376
 8.4869   8.33342
 8.4730   8.37632
 8.4592   8.50023
 8.4454   8.53208
 8.4316   8.42111
 8.4180   8.18095
 8.4043   8.18697
 8.3907   8.26725
 8.3772   8.20649
 8.3637   8.25842
 8.3502   8.28297
 8.3368   8.24554
 8.3234   8.29550
 8.3100   8.22291
 8.2967   8.17487
 8.2835   8.13494
 8.2703   8.03839
 8.2571   7.96418
 8.2440   7.92493
 8.2309   8.03966
 8.2179   8.05212
 8.2049   7.90379
 8.1919   7.88008
 8.1790   7.81354
 8.1661   7.55237
 8.1532   7.39984
 8.1404   7.27324
 8.1277   6.95001
 8.1150   6.51068
 8.1023   6.17343
 8.0897   6.09028
 8.0770   5.75300
 8.0645   5.40002
 8.0520   5.21068
 8.0395   5.06471
 8.0270   4.93933
 8.0146   4.75918
 8.0023   4.55293
 7.9899   4.33438
 7.9776   4.17268
 7.9654   4.12126
 7.9532   3.95218
 7.9410   3.71005
 7.9288   3.57758
 7.9167   3.48259
 7.9047   3.37849
 7.8926   3.23577
 7.8807   3.05379
 7.8687   2.92624
 7.8568   2.85510
 7.8449   2.86817
 7.8330   2.78530
 7.8212   2.74004
 7.8094   2.75936
 7.7977   2.81054
 7.7860   2.79157
 7.7743   2.65648
 7.7627   2.54267
 7.7511   2.55518
 7.7395   2.61140
 7.7280   2.63367
 7.7165   2.66355
 7.7050   2.67976
 7.6936   2.58495
 7.6822   2.48123
 7.6708   2.46006
 7.6595   2.48995
 7.6482   2.44199
 7.6369   2.43935
 7.6257   2.47961
 7.6145   2.45375
 7.6033   2.39115
 7.5922   2.41527
 7.5811   2.40179
 7.5700   2.38469
 7.5590   2.40224
 7.5480   2.51499
 7.5370   2.43957
 7.5261   2.32763
 7.5152   2.31207
 7.5043   2.32095
 7.4935   2.32267
 7.4826   2.31634
 7.4718   2.34348
 7.4611   2.32335
 7.4504   2.30865
 7.4397   2.31920
 7.4290   2.25855
 7.4184   2.40174
 7.4078   2.44161
 7.3972   2.36309
 7.3867   2.33232
 7.3762   2.22977
 7.3657   2.24138
 7.3553   2.23533
 7.3449   2.18145
 7.3345   2.16155
 7.3241   2.17061
 7.3138   2.21186
 7.3035   2.24430
 7.2932   2.32649
 7.2830   2.36442
 7.2727   2.41045
 7.2626   2.45233
 7.2524   2.51501
 7.2423   2.43546
 7.2322   2.31540
 7.2221   2.36475
 7.2120   2.41450
 7.2020   2.38682
 7.1921   2.36100
 7.1821   2.46976
 7.1722   2.48917
 7.1623   2.45576
 7.1524   2.56343
 7.1425   2.55883
 7.1327   2.38198
 7.1229   2.32853
 7.1131   2.38719
 7.1034   2.46092
 7.0937   2.41457
 7.0840   2.33082
 7.0743   2.41395
 7.0647   2.51451
 7.0551   2.42962
 7.0455   2.48253
 7.0359   2.49779
 7.0264   2.47207
 7.0169   2.54824
 7.0074   2.57619
 6.9979   2.59120
 6.9885   2.48828
 6.9791   2.44909
 6.9697   2.56762
 6.9604   2.57586
 6.9510   2.46125
 6.9417   2.54264
 6.9324   2.55862
 6.9232   2.48011
 6.9140   2.48445
 6.9047   2.47544
 6.8956   2.46576
 6.8864   2.47431
 6.8773   2.45078
 6.8682   2.60215
 6.8591   2.73888
 6.8500   2.61771
 6.8410   2.54833
 6.8320   2.56521
 6.8230   2.53436
 6.8140   2.53671
 6.8051   2.65165
 6.7962   2.66991
 6.7873   2.58302
 6.7784   2.50985
 6.7695   2.52380
 6.7607   2.60014
 6.7519   2.69560
 6.7431   2.75386
 6.7344   2.68747
 6.7256   2.68524
 6.7169   2.76632
 6.7082   2.80153
 6.6996   2.78118
 6.6909   2.78639
 6.6823   2.74919
 6.6737   2.79442
 6.6651   2.80119
 6.6566   2.74993
 6.6480   2.82305
 6.6395   2.93059
 6.6310   2.82421
 6.6226   2.82483
 6.6141   2.75898
 6.6057   2.72814
 6.5973   2.89242
 6.5889   2.98214
 6.5805   2.88319
 6.5722   2.80379
 6.5639   2.75088
 6.5556   2.75984
 6.5473   2.81407
 6.5390   2.88798
 6.5308   2.89412
 6.5226   2.87693
 6.5144   2.88629
 6.5062   2.98473
 6.4981   3.06208
 6.4900   2.93629
 6.4818   2.91415
 6.4737   3.03465
 6.4657   3.07911
 6.4576   3.10396
 6.4496   3.13325
 6.4416   3.09458
 6.4336   3.04062
 6.4256   3.01456
 6.4177   3.08599
 6.4097   2.97464
 6.4018   2.83945
 6.3939   2.83097
 6.3860   2.83658
 6.3782   2.88623
 6.3704   2.82844
 6.3625   2.74362
 6.3547   2.82583
 6.3470   2.86953
 6.3392   2.83379
 6.3315   2.76906
 6.3237   2.69115
 6.3160   2.62183
 6.3083   2.61499
 6.3007   2.63875
 6.2930   2.56423
 6.2854   2.61319
 6.2778   2.63595
 6.2702   2.49287
 6.2626   2.44892
 6.2551   2.43760
 6.2476   2.53653
 6.2400   2.60490
 6.2325   2.64356
 6.2251   2.53118
 6.2176   2.42690
 6.2101   2.43483
 6.2027   2.48224
 6.1953   2.45646
 6.1879   2.50309
 6.1805   2.52246
 6.1732   2.50518
 6.1658   2.55831
 6.1585   2.63781
 6.1512   2.54853
 6.1439   2.50905
 6.1367   2.60476
 6.1294   2.62826
 6.1222   2.64560
 6.1149   2.65533
 6.1077   2.57313
 6.1006   2.58089
 6.0934   2.66508
 6.0862   2.62774
 6.0791   2.66138
 6.0720   2.67589
 6.0649   2.66439
 6.0578   2.68479
 6.0507   2.80316
 6.0437   2.79933
 6.0366   2.66106
 6.0296   2.69176
 6.0226   2.71250
 6.0156   2.68986
 6.0087   2.58889
 6.0017   2.51292
 5.9948   2.58835
 5.9878   2.62016
 5.9809   2.54399
 5.9740   2.54979
 5.9672   2.47731
 5.9603   2.34588
 5.9535   2.33500
 5.9466   2.39128
 5.9398   2.42670
 5.9330   2.43931
 5.9262   2.50206
 5.9195   2.56917
 5.9127   2.49554
 5.9060   2.38858
 5.8993   2.37842
 5.8926   2.50784
 5.8859   2.67170
 5.8792   2.75671
 5.8726   2.74582
 5.8659   2.72711
 5.8593   2.63772
 5.8527   2.60959
 5.8461   2.60440
 5.8395   2.61104
 5.8329   2.66556
 5.8264   2.67267
 5.8198   2.64627
 5.8133   2.65529
 5.8068   2.71848
 5.8003   2.74165
 5.7938   2.82186
 5.7874   2.85779
 5.7809   2.85930
 5.7745   2.91930
 5.7680   2.93805
 5.7616   2.78559
 5.7552   2.83846
 5.7489   2.99622
 5.7425   2.94214
 5.7361   2.84614
 5.7298   2.87436
 5.7235   3.02041
 5.7172   3.01102
 5.7109   2.93922
 5.7046   2.97627
 5.6983   3.01931
 5.6921   3.04370
 5.6858   3.04008
 5.6796   3.07400
 5.6734   3.00243
 5.6672   2.92398
 5.6610   2.96653
 5.6548   2.97518
 5.6487   3.00413
 5.6425   2.99901
 5.6364   2.89803
 5.6303   2.88900
 5.6242   2.93953
 5.6181   2.88750
 5.6120   2.94351
 5.6059   2.92249
 5.5999   2.88110
 5.5938   2.90618
 5.5878   2.94415
 5.5818   2.99425
 5.5758   3.04984
 5.5698   3.08478
 5.5638   3.07350
 5.5578   3.06383
 5.5519   3.14457
 5.5460   3.12053
 5.5400   3.06592
 5.5341   3.10535
 5.5282   3.19966
 5.5223   3.27391
 5.5164   3.37494
 5.5106   3.37344
 5.5047   3.31225
 5.4989   3.34903
 5.4931   3.40979
 5.4873   3.46245
 5.4815   3.46417
 5.4757   3.47400
 5.4699   3.51475
 5.4641   3.50819
 5.4584   3.51036
 5.4527   3.50413
 5.4469   3.52919
 5.4412   3.58239
 5.4355   3.65471
 5.4298   3.67335
 5.4241   3.56278
 5.4185   3.41287
 5.4128   3.42381
 5.4072   3.54282
 5.4015   3.57376
 5.3959   3.49747
 5.3903   3.41835
 5.3847   3.43504
 5.3791   3.51480
 5.3735   3.56029
 5.3680   3.54466
 5.3624   3.46619
 5.3569   3.42789
 5.3514   3.37539
 5.3458   3.36097
 5.3403   3.39039
 5.3348   3.42644
 5.3294   3.52076
 5.3239   3.53900
 5.3184   3.53055
 5.3130   3.47776
 5.3075   3.42847
 5.3021   3.45787
 5.2967   3.54593
 5.2913   3.64267
 5.2859   3.67784
 5.2805   3.69158
 5.2751   3.67338
 5.2698   3.71602
 5.2644   3.73559
 5.2591   3.79979
 5.2538   3.85607
 5.2485   3.92174
 5.2431   3.96665
 5.2378   3.97404
 5.2326   3.99795
 5.2273   4.07277
 5.2220   4.14320
 5.2168   4.15868
 5.2115   4.23369
 5.2063   4.31166
 5.2011   4.32142
 5.1959   4.22395
 5.1907   4.24748
 5.1855   4.37596
 5.1803   4.44890
 5.1751   4.52399
 5.1700   4.43601
 5.1648   4.43053
 5.1597   4.54826
 5.1545   4.58423
 5.1494   4.59716
 5.1443   4.55258
 5.1392   4.52813
 5.1341   4.57503
 5.1291   4.62669
 5.1240   4.61410
 5.1189   4.58977
 5.1139   4.65590
 5.1088   4.73100
 5.1038   4.66621
 5.0988   4.60064
 5.0938   4.68445
 5.0888   4.71453
 5.0838   4.67173
 5.0788   4.68255
 5.0738   4.75494
 5.0689   4.78436
 5.0639   4.74754
 5.0590   4.70991
 5.0541   4.67792
 5.0491   4.78491
 5.0442   4.80915
 5.0393   4.72599
 5.0344   4.67843
 5.0296   4.64422
 5.0247   4.66349
 5.0198   4.71858
 5.0150   4.66229
 5.0101   4.62838
 5.0053   4.70677
 5.0004   4.75524
 4.9956   4.80760
 4.9908   4.79486
 4.9860   4.71876
 4.9812   4.77306
 4.9765   4.85181
 4.9717   4.80040
 4.9669   4.80673
 4.9622   4.89914
 4.9574   4.96885
 4.9527   5.02224
 4.9480   5.06616
 4.9432   5.08547
 4.9385   5.14869
 4.9338   5.12258
 4.9291   5.02850
 4.9245   5.06266
 4.9198   5.15372
 4.9151   5.33164
 4.9105   5.46822
 4.9058   5.50181
 4.9012   5.54666
 4.8966   5.55647
 4.8919   5.62999
 4.8873   5.69109
 4.8827   5.65646
 4.8781   5.72039
 4.8736   5.90522
 4.8690   5.99851
 4.8644   6.11854
 4.8599   6.12455
 4.8553   6.13527
 4.8508   6.35812
 4.8462   6.45043
 4.8417   6.45149
 4.8372   6.41109
 4.8327   6.35234
 4.8282   6.46379
 4.8237   6.58960
 4.8192   6.61773
 4.8147   6.64107
 4.8103   6.63727
 4.8058   6.75659
 4.8014   6.92768
 4.7969   6.95317
 4.7925   6.92978
 4.7881   6.90122
 4.7836   6.86210
 4.7792   6.90604
 4.7748   7.06683
 4.7704   7.27123
 4.7660   7.37504
 4.7617   7.41294
 4.7573   7.50047
 4.7530   7.57384
 4.7486   7.56839
 4.7443   7.66592
 4.7399   7.72931
 4.7356   7.68328
 4.7313   7.70445
 4.7270   7.79276
 4.7226   7.91118
 4.7184   7.99855
 4.7141   8.04728
 4.7098   8.09670
 4.7055   8.12027
 4.7012   8.07733
 4.6970   8.04562
 4.6927   7.99885
 4.6885   7.99972
 4.6842   8.10087
 4.6800   8.13678
 4.6758   8.17420
 4.6716   8.28914
 4.6674   8.36474
 4.6632   8.39340
 4.6590   8.42063
 4.6548   8.49346
 4.6506   8.58155
 4.6465   8.70489
 4.6423   8.75521
 4.6382   8.73610
 4.6340   8.76425
 4.6299   8.83585
 4.6258   8.86957
 4.6216   8.90957
 4.6175   9.02372
 4.6134   9.08942
 4.6093   9.17677
 4.6052   9.20947
 4.6011   9.21277
 4.5971   9.29205
 4.5930   9.41250
 4.5889   9.52757
 4.5849   9.65970
 4.5808   9.71400
 4.5768   9.76009
 4.5727   9.85919
 4.5687   9.98019
 4.5647  10.10560
 4.5607  10.12170
 4.5567  10.16980
 4.5526  10.31590
 4.5487  10.40850
 4.5447  10.46140
 4.5407  10.52220
 4.5367  10.56720
 4.5328  10.64970
 4.5288  10.77500
 4.5248  10.85490
 4.5209  10.88830
 4.5170  10.86520
 4.5130  10.83170
 4.5091  10.87880
 4.5052  10.86240
 4.5013  10.80430
 4.4974  10.86220
 4.4935  10.92290
 4.4896  10.94350
 4.4857  11.01860
 4.4818  11.03400
 4.4779  11.01920
 4.4741  11.08250
 4.4702  11.11130
 4.4664  11.18570
 4.4625  11.21190
 4.4587  11.36440
 4.4549  11.54220
 4.4510  11.58250
 4.4472  11.66880
 4.4434  11.77190
 4.4396  11.82300
 4.4358  11.90720
 4.4320  11.95110
 4.4282  12.06550
 4.4245  12.17230
 4.4207  12.17380
 4.4169  12.24050
 4.4132  12.39840
 4.4094  12.46820
 4.4057  12.54000
 4.4019  12.72040
 4.3982  12.86160
 4.3945  12.95730
 4.3907  13.05840
 4.3870  13.12020
 4.3833  13.24470
 4.3796  13.38150
 4.3759  13.46930
 4.3722  13.51360
 4.3685  13.58310
 4.3649  13.74900
 4.3612  13.86820
 4.3575  13.89180
 4.3539  13.99840
 4.3502  14.12740
 4.3466  14.12000
 4.3429  14.23560
 4.3393  14.34230
 4.3357  14.38990
 4.3320  14.47740
 4.3284  14.42200
 4.3248  14.40610
 4.3212  14.48310
 4.3176  14.64450
 4.3140  14.73700
 4.3105  14.75370
 4.3069  14.83370
 4.3033  14.82290
 4.2997  14.90050
 4.2962  15.02720
 4.2926  14.93280
 4.2890  14.96530
 4.2855  15.07390
 4.2820  15.17650
 4.2784  15.22660
 4.2749  15.12800
 4.2714  15.22490
 4.2679  15.36580
 4.2644  15.34790
 4.2609  15.32790
 4.2574  15.34980
 4.2539  15.49940
 4.2504  15.66310
 4.2469  15.66390
 4.2434  15.70900
 4.2400  15.69180
 4.2365  15.59120
 4.2330  15.60830
 4.2296  15.83780
 4.2261  15.87940
 4.2227  15.81010
 4.2193  15.85880
 4.2158  15.95110
 4.2124  15.94610
 4.2090  15.85080
 4.2056  15.84270
 4.2022  15.80210
 4.1988  15.89900
 4.1954  16.03290
 4.1920  16.06260
 4.1886  16.06070
 4.1852  16.02980
 4.1818  16.04480
 4.1785  16.19650
 4.1751  16.20750
 4.1717  16.14080
 4.1684  16.17650
 4.1650  16.18960
 4.1617  16.17940
 4.1584  16.22500
 4.1550  16.32300
 4.1517  16.43470
 4.1484  16.46990
 4.1451  16.44370
 4.1418  16.34660
 4.1384  16.42920
 4.1351  16.54630
 4.1319  16.61970
 4.1286  16.68540
 4.1253  16.58050
 4.1220  16.56130
 4.1187  16.60370
 4.1155  16.63710
 4.1122  16.69210
 4.1089  16.67270
 4.1057  16.68770
 4.1024  16.74900
 4.0992  16.84800
 4.0959  16.86520
 4.0927  16.83350
 4.0895  16.95830
 4.0863  16.97140
 4.0830  16.98620
 4.0798  16.90470
 4.0766  16.95290
 4.0734  17.05200
 4.0702  16.99800
 4.0670  16.93230
 4.0639  16.88740
 4.0607  16.89370
 4.0575  16.90360
 4.0543  16.88660
 4.0511  16.92650
 4.0480  16.93350
 4.0448  16.84030
 4.0417  16.78910
 4.0385  16.79290
 4.0354  16.70170
 4.0323  16.63430
 4.0291  16.58800
 4.0260  16.57770
 4.0229  16.73160
 4.0197  16.79750
 4.0166  16.74530
 4.0135  16.67980
 4.0104  16.57880
 4.0073  16.57390
 4.0042  16.47660
 4.0011  16.54840
 3.9981  16.59410
 3.9950  16.51750
 3.9919  16.53350
 3.9888  16.55590
 3.9857  16.50040
 3.9827  16.46910
 3.9796  16.47500
 3.9766  16.54480
 3.9735  16.62830
 3.9705  16.69980
 3.9675  16.67070
 3.9644  16.59080
 3.9614  16.56060
 3.9584  16.72180
 3.9554  16.80430
 3.9523  16.80550
 3.9493  16.80630
 3.9463  16.81230
 3.9433  16.88530
 3.9403  16.95520
 3.9373  17.11390
 3.9343  17.15300
 3.9314  17.17790
 3.9284  17.07590
 3.9254  17.08490
 3.9224  17.22460
 3.9195  17.29450
 3.9165  17.22640
 3.9136  17.13100
 3.9106  17.18620
 3.9077  17.18910
 3.9047  17.25460
 3.9018  17.36320
 3.8988  17.39360
 3.8959  17.45920
 3.8930  17.44990
 3.8901  17.34900
 3.8872  17.33580
 3.8842  17.30030
 3.8813  17.18650
 3.8784  17.06530
 3.8755  17.05440
 3.8726  17.27850
 3.8697  17.35660
 3.8669  17.24850
 3.8640  17.24510
 3.8611  17.28190
 3.8582  17.27650
 3.8554  17.22580
 3.8525  17.19950
 3.8496  17.28790
 3.8468  17.33090
 3.8439  17.35130
 3.8411  17.31570
 3.8382  17.22210
 3.8354  17.17000
 3.8326  17.27090
 3.8297  17.41160
 3.8269  17.39410
 3.8241  17.37320
 3.8213  17.43780
 3.8185  17.31020
 3.8157  17.24360
 3.8128  17.29300
 3.8100  17.34610
 3.8072  17.50050
 3.8045  17.62740
 3.8017  17.57720
 3.7989  17.44270
 3.7961  17.57100
 3.7933  17.62790
 3.7906  17.49850
 3.7878  17.46490
 3.7850  17.46790
 3.7822  17.46990
 3.7795  17.51290
 3.7767  17.53910
 3.7740  17.35890
 3.7713  17.29430
 3.7685  17.28410
 3.7658  17.32310
 3.7630  17.48540
 3.7603  17.44930
 3.7576  17.38610
 3.7549  17.41130
 3.7521  17.39880
 3.7494  17.28000
 3.7467  17.19360
 3.7440  17.18730
 3.7413  17.20570
 3.7386  17.22380
 3.7359  17.19960
 3.7332  17.09150
 3.7306  17.08020
 3.7279  17.15980
 3.7252  17.24420
 3.7225  17.16230
 3.7199  17.04080
 3.7172  16.96120
 3.7145  17.00350
 3.7119  17.12710
 3.7092  17.12360
 3.7066  17.02980
 3.7039  17.03640
 3.7013  17.13760
 3.6986  17.03290
 3.6960  17.02740
 3.6934  17.14230
 3.6907  17.13140
 3.6881  17.11950
 3.6855  17.02970
 3.6829  16.93950
 3.6803  16.87850
 3.6776  16.95200
 3.6750  16.95450
 3.6724  16.91700
 3.6698  16.85420
 3.6672  16.88900
 3.6646  16.93910
 3.6620  16.97520
 3.6595  17.01870
 3.6569  16.92420
 3.6543  16.84530
 3.6517  16.78030
 3.6492  16.72820
 3.6466  16.67300
 3.6440  16.76100
 3.6415  16.73270
 3.6389  16.63980
 3.6364  16.75020
 3.6338  16.73930
 3.6313  16.61100
 3.6287  16.74400
 3.6262  16.77780
 3.6237  16.60780
 3.6211  16.53120
 3.6186  16.48450
 3.6161  16.48400
 3.6136  16.37370
 3.6111  16.37330
 3.6085  16.53430
 3.6060  16.60460
 3.6035  16.44130
 3.6010  16.17120
 3.5985  16.05420
 3.5960  16.20790
 3.5935  16.21880
 3.5910  16.08690
 3.5886  15.89520
 3.5861  15.67200
 3.5836  15.75830
 3.5811  16.06920
 3.5787  16.13700
 3.5762  16.04030
 3.5737  15.92410
 3.5713  15.73950
 3.5688  15.62600
 3.5663  15.54500
 3.5639  15.47690
 3.5614  15.42990
 3.5590  15.36940
 3.5566  15.32800
 3.5541  15.40490
 3.5517  15.52820
 3.5493  15.56500
 3.5468  15.55060
 3.5444  15.29640
 3.5420  15.19890
 3.5396  15.19060
 3.5372  14.99000
 3.5347  14.92210
 3.5323  14.91570
 3.5299  14.81200
 3.5275  14.76180
 3.5251  14.74400
 3.5227  14.67310
 3.5203  14.56660
 3.5180  14.52010
 3.5156  14.57420
 3.5132  14.43650
 3.5108  14.17650
 3.5084  13.95130
 3.5061  13.88690
 3.5037  13.86060
 3.5013  13.67930
 3.4990  13.54240
 3.4966  13.77620
 3.4943  13.94090
 3.4919  13.81990
 3.4895  13.73250
 3.4872  13.77840
 3.4849  13.69800
 3.4825  13.66050
 3.4802  13.71180
 3.4778  13.66000
 3.4755  13.48580
 3.4732  13.55160
 3.4709  13.57250
 3.4685  13.54170
 3.4662  13.42150
 3.4639  13.29270
 3.4616  13.43650
 3.4593  13.38500
 3.4570  13.25510
 3.4547  13.21090
 3.4524  13.16220
 3.4501  13.07130
 3.4478  13.10940
 3.4455  13.18380
 3.4432  13.20550
 3.4409  13.09150
 3.4386  12.99740
 3.4364  12.83750
 3.4341  12.71090
 3.4318  12.77920
 3.4295  12.74080
 3.4273  12.67300
 3.4250  12.52320
 3.4228  12.51250
 3.4205  12.55190
 3.4182  12.31410
 3.4160  12.12370
 3.4137  12.39290
 3.4115  12.37880
 3.4093  12.18170
 3.4070  12.10980
 3.4048  12.11880
 3.4025  12.12240
 3.4003  12.03130
 3.3981  11.80130
 3.3958  11.90930
 3.3936  12.09660
 3.3914  11.98190
 3.3892  11.87120
 3.3870  11.96360
 3.3848  12.03710
 3.3826  11.85740
 3.3804  11.64530
 3.3782  11.54180
 3.3760  11.63070
 3.3738  11.85940
 3.3716  11.80790
 3.3694  11.47860
 3.3672  11.54030
 3.3650  11.83920
 3.3628  11.91700
 3.3606  11.77290
 3.3585  11.65410
 3.3563  11.60000
 3.3541  11.48450
 3.3520  11.32510
 3.3498  11.25520
 3.3476  11.25490
 3.3455  11.17650
 3.3433  11.38020
 3.3411  11.58130
 3.3390  11.41020
 3.3369  11.32830
 3.3347  11.48850
 3.3326  11.51100
 3.3304  11.19070
 3.3283  11.12680
 3.3262  11.26850
 3.3240  11.30980
 3.3219  11.09740
 3.3198  10.92310
 3.3176  10.94430
 3.3155  11.08340
 3.3134  11.14890
 3.3113  11.10600
 3.3092  10.87070
 3.3071  10.72040
 3.3049  10.68010
 3.3028  10.74850
 3.3007  10.84510
 3.2986  10.63460
 3.2965  10.53720
 3.2944  10.32710
 3.2924  10.21980
 3.2903  10.23030
 3.2882  10.11660
 3.2861  10.20480
 3.2840  10.29840
 3.2819  10.23440
 3.2799  10.04440
 3.2778   9.85340
 3.2757   9.85685
 3.2736   9.85137
 3.2716   9.90582
 3.2695   9.71112
 3.2675   9.53935
 3.2654   9.66053
 3.2634   9.65200
 3.2613   9.58413
 3.2593   9.68242
 3.2572   9.74224
 3.2552   9.67407
 3.2531   9.51227
 3.2511   9.28263
 3.2490   9.16761
 3.2470   9.10398
 3.2450   9.11117
 3.2429   9.11821
 3.2409   9.12212
 3.2389   8.99115
 3.2369   8.81622
 3.2348   8.77704
 3.2328   8.77682
 3.2308   8.76917
 3.2288   8.87761
 3.2268   8.87496
 3.2248   8.60354
 3.2228   8.42858
 3.2208   8.37511
 3.2188   8.23302
 3.2168   8.15540
 3.2148   8.29320
 3.2128   8.33414
 3.2108   8.35993
 3.2088   8.32579
 3.2068   8.29077
 3.2049   8.23063
 3.2029   8.18154
 3.2009   8.09148
 3.1989   7.98980
 3.1970   7.84228
 3.1950   7.52829
 3.1930   7.35779
 3.1911   7.30972
 3.1891   7.44049
 3.1871   7.64696
 3.1852   7.51284
 3.1832   7.50788
 3.1813   7.58167
 3.1793   7.48943
 3.1774   7.23764
 3.1754   7.00870
 3.1735   7.20776
 3.1715   7.22493
 3.1696   7.03489
 3.1677   6.93495
 3.1657   6.80964
 3.1638   6.65802
 3.1619   6.69017
 3.1599   6.86835
 3.1580   6.97994
 3.1561   6.84622
 3.1542   6.69508
 3.1523   6.38519
 3.1503   6.33181
 3.1484   6.36474
 3.1465   6.28144
 3.1446   6.50047
 3.1427   6.74054
 3.1408   6.46485
 3.1389   6.16437
 3.1370   6.03988
 3.1351   5.87595
 3.1332   5.69205
 3.1313   5.97668
 3.1294   6.25771
 3.1275   6.13817
 3.1257   5.90556
 3.1238   5.93612
 3.1219   6.10987
 3.1200   6.06347
 3.1181   5.90896
 3.1163   5.76887
 3.1144   5.40511
 3.1125   5.19689
 3.1107   5.43548
 3.1088   5.58501
 3.1069   5.31121
 3.1051   5.41016
 3.1032   5.45088
 3.1014   5.06436
 3.0995   5.08281
 3.0976   5.32967
 3.0958   5.25727
 3.0940   5.12030
 3.0921   5.03832
 3.0903   5.21489
 3.0884   5.40476
 3.0866   5.35658
 3.0848   5.39676
 3.0829   5.35283
 3.0811   5.35706
 3.0793   5.19482
 3.0774   4.98422
 3.0756   4.79124
 3.0738   4.50558
 3.0720   4.32480
 3.0701   4.34873
 3.0683   4.38129
 3.0665   4.50646
 3.0647   4.38589
 3.0629   4.52291
 3.0611   4.81396
 3.0593   4.90043
 3.0575   4.88346
 3.0557   4.52077
 3.0539   4.46272
 3.0521   4.85740
 3.0503   4.67783
 3.0485   4.37078
 3.0467   4.33636
 3.0449   4.42896
 3.0431   4.52340
 3.0413   4.57798
 3.0396   4.73167
 3.0378   4.59045
 3.0360   4.56169
 3.0342   4.55179
 3.0324   4.66943
 3.0307   4.83564
 3.0289   4.66162
 3.0271   4.20085
 3.0254   4.11390
 3.0236   4.12629
 3.0218   4.17553
 3.0201   4.18034
 3.0183   4.20286
 3.0166   4.35801
 3.0148   4.36132
 3.0130   4.11515
 3.0113   4.12603
 3.0096   4.37962
 3.0078   4.24664
 3.0061   4.06700
 3.0043   3.96666
 3.0026   4.03504
 3.0008   4.20408
 2.9991   4.32527
 2.9974   4.21607
 2.9956   3.93477
 2.9939   3.74971
 2.9922   3.68564
 2.9905   3.93521
 2.9887   3.67773
 2.9870   3.64997
 2.9853   3.88104
 2.9836   4.15615
 2.9819   4.20818
 2.9802   3.87874
 2.9784   3.90388
 2.9767   4.03215
 2.9750   4.11880
 2.9733   4.17218
 2.9716   4.05892
 2.9699   4.31668
 2.9682   4.23836
 2.9665   3.65398
 2.9648   3.52141
 2.9631   3.50897
 2.9614   3.43459
 2.9597   3.57902
 2.9581   3.64361
 2.9564   3.44948
 2.9547   3.49077
 2.9530   3.76370
 2.9513   4.03404
 2.9496   4.15631
 2.9480   4.02817
 2.9463   3.40993
 2.9446   3.23310
 2.9429   3.36863
 2.9413   3.25844
 2.9396   3.48215
 2.9379   3.65306
 2.9363   3.90260
 2.9346   4.07369
 2.9330   3.79842
 2.9313   3.45041
 2.9296   3.59846
 2.9280   3.79638
 2.9263   3.88949
 2.9247   3.85048
 2.9230   4.13315
 2.9214   4.15134
 2.9197   3.94153
 2.9181   4.20849
 2.9165   4.34858
 2.9148   4.19733
 2.9132   4.37978
 2.9116   4.44443
 2.9099   4.11615
 2.9083   3.76805
 2.9067   4.01037
 2.9050   4.28011
 2.9034   4.31054
 2.9018   4.55164
 2.9002   4.38431
 2.8985   3.77917
 2.8969   3.96534
 2.8953   4.12979
 2.8937   3.99452
 2.8921   4.12325
 2.8905   3.72572
 2.8888   3.78036
 2.8872   4.00457
 2.8856   4.04581
 2.8840   4.15274
 2.8824   4.07293
 2.8808   4.27652
 2.8792   4.75867
 2.8776   4.67111
 2.8760   4.40513
 2.8744   4.20887
 2.8728   4.26390
 2.8712   4.44037
 2.8697   4.39500
 2.8681   4.13512
 2.8665   4.30375
 2.8649   4.59737
 2.8633   4.10606
 2.8617   4.21950
 2.8602   4.44067
 2.8586   4.43885
 2.8570   4.65126
 2.8554   4.66956
 2.8539   4.80490
 2.8523   4.86269
 2.8507   4.88841
 2.8492   4.45606
 2.8476   4.01678
 2.8460   4.25605
 2.8445   4.66086
 2.8429   4.65311
 2.8413   4.42192
 2.8398   4.54072
 2.8382   4.59474
 2.8367   4.56397
 2.8351   4.61501
 2.8336   4.29693
 2.8320   4.49153
 2.8305   4.60382
 2.8289   4.62015
 2.8274   4.58401
 2.8259   4.76715
 2.8243   5.02605
 2.8228   4.72013
 2.8213   4.27699
 2.8197   3.99031
 2.8182   3.91204
 2.8167   4.26612
 2.8151   4.70653
 2.8136   4.65856
 2.8121   4.57707
 2.8106   4.81058
 2.8090   4.93101
 2.8075   5.05859
 2.8060   4.96739
 2.8045   4.58331
 2.8030   4.29881
 2.8014   4.24172
 2.7999   3.98862
 2.7984   4.02379
 2.7969   3.91317
 2.7954   4.05665
 2.7939   3.86389
 2.7924   3.58028
 2.7909   4.13472
 2.7894   4.48761
 2.7879   4.35815
 2.7864   4.19975
 2.7849   4.12351
 2.7834   4.37527
 2.7819   4.61636
 2.7804   4.29741
 2.7789   4.34211
 2.7774   4.31788
 2.7759   4.33018
 2.7745   4.82234
 2.7730   4.87158
 2.7715   4.30893
 2.7700   4.29840
 2.7685   4.28466
 2.7671   4.17471
 2.7656   3.88136
 2.7641   3.78529
 2.7626   3.95488
 2.7612   4.23402
 2.7597   4.15660
 2.7582   4.18093
 2.7568   4.37957
 2.7553   4.44142
 2.7538   4.20782
 2.7524   4.49350
 2.7509   4.65957
 2.7494   4.75549
 2.7480   4.57708
 2.7465   4.49511
 2.7451   4.48273
 2.7436   4.75639
 2.7422   4.95138
 2.7407   4.96091
 2.7393   5.29897
 2.7378   5.19916
 2.7364   5.01528
 2.7350   5.37321
 2.7335   5.49210
 2.7321   5.60953
 2.7306   5.80261
 2.7292   5.84682
 2.7278   6.50836
 2.7263   7.04074
 2.7249   7.54821
 2.7235   7.84201
 2.7220   7.92439
 2.7206   8.68368
 2.7192   9.09420
 2.7178   9.46157
 2.7163  10.07980
 2.7149  10.72460
 2.7135  11.55180
 2.7121  12.56340
 2.7106  13.23230
 2.7092  13.97920
 2.7078  14.27150
 2.7064  14.65390
 2.7050  15.48760
 2.7036  15.78660
 2.7022  16.18440
 2.7008  17.02180
 2.6994  17.18540
 2.6980  17.19590
 2.6965  17.50290
 2.6951  17.55590
 2.6938  17.52590
 2.6923  17.62570
 2.6910  18.10330
 2.6896  18.75960
 2.6882  18.74580
 2.6868  18.41070
 2.6854  18.61170
 2.6840  18.96960
 2.6826  18.64480
 2.6812  18.66130
 2.6798  19.45130
 2.6784  20.15210
 2.6771  20.23460
 2.6757  20.11130
 2.6743  19.96230
 2.6729  20.14990
 2.6715  20.70220
 2.6702  20.77070
 2.6688  20.53290
 2.6674  20.69630
 2.6660  20.84150
 2.6647  20.71250
 2.6633  20.64670
 2.6619  20.63130
 2.6606  20.67120
 2.6592  21.07470
 2.6578  20.99380
 2.6565  20.76780
 2.6551  20.69700
 2.6538  20.74600
 2.6524  21.10320
 2.6511  21.36060
 2.6497  20.94770
 2.6484  20.65760
 2.6470  20.86640
 2.6456  20.82230
 2.6443  20.79060
 2.6429  21.12680
 2.6416  21.06290
 2.6403  20.86830
 2.6389  21.09700
 2.6376  21.51400
 2.6362  21.51030
 2.6349  21.53040
 2.6336  21.48710
 2.6322  21.75490
 2.6309  22.17460
 2.6296  21.94270
 2.6282  21.58130
 2.6269  21.48050
 2.6256  21.31520
 2.6242  21.28410
 2.6229  21.23800
 2.6216  21.36130
 2.6203  21.34730
 2.6189  21.21920
 2.6176  21.92830
 2.6163  21.75060
 2.6150  21.46780
 2.6136  21.63760
 2.6123  21.80910
 2.6110  22.05510
 2.6097  22.29990
 2.6084  22.01510
 2.6071  21.84060
 2.6058  21.76170
 2.6044  21.27870
 2.6031  21.26130
 2.6018  21.57490
 2.6005  21.45780
 2.5992  21.34970
 2.5979  21.55340
 2.5966  22.01590
 2.5953  22.51630
 2.5940  22.18190
 2.5927  21.83790
 2.5914  21.45090
 2.5901  21.44840
 2.5888  21.85450
 2.5876  22.14050
 2.5863  22.12440
 2.5850  21.96870
 2.5837  21.99040
 2.5824  21.90950
 2.5811  21.68180
 2.5798  21.50170
 2.5785  21.83540
 2.5773  22.24650
 2.5760  22.14610
 2.5747  22.32140
 2.5734  22.48030
 2.5722  22.09580
 2.5709  22.06090
 2.5696  22.13040
 2.5683  21.84080
 2.5671  21.73530
 2.5658  22.17520
 2.5645  22.62990
 2.5633  22.39800
 2.5620  22.21510
 2.5607  22.07700
 2.5595  22.01930
 2.5582  22.46750
 2.5569  22.45730
 2.5557  22.21450
 2.5544  22.32030
 2.5532  22.57800
 2.5519  22.51410
 2.5507  22.20640
 2.5494  22.27850
 2.5481  22.58750
 2.5469  22.57600
 2.5456  22.29530
 2.5444  22.06000
 2.5431  22.13660
 2.5419  22.32730
 2.5406  22.37080
 2.5394  22.27410
 2.5382  22.41850
 2.5369  22.25810
 2.5357  22.14480
 2.5344  22.65200
 2.5332  22.73960
 2.5320  22.10330
 2.5307  21.83450
 2.5295  22.09940
 2.5283  22.22690
 2.5270  22.22210
 2.5258  22.44000
 2.5246  22.88730
 2.5233  22.63550
 2.5221  22.13070
 2.5209  22.04820
 2.5197  22.28500
 2.5184  22.45900
 2.5172  22.40360
 2.5160  22.41130
 2.5148  22.34940
 2.5136  22.49390
 2.5123  22.63570
 2.5111  22.31790
 2.5099  22.01780
 2.5087  21.80750
 2.5075  22.14420
 2.5063  22.39850
 2.5051  22.41270
 2.5038  22.41810
 2.5026  22.43290
 2.5014  22.42650
 2.5002  22.43500
 2.4990  22.25850
 2.4978  22.33070
 2.4966  22.56430
 2.4954  22.39770
 2.4942  22.26280
 2.4930  22.25660
 2.4918  22.31060
 2.4906  22.48540
 2.4894  22.16800
 2.4882  22.31420
 2.4870  22.78570
 2.4858  22.85880
 2.4846  22.77550
 2.4835  22.67730
 2.4823  22.73020
 2.4811  22.98660
 2.4799  22.73830
 2.4787  22.72200
 2.4775  22.60850
 2.4764  22.55340
 2.4752  22.81690
 2.4740  22.41600
 2.4728  22.48360
 2.4716  22.52860
 2.4705  22.65270
 2.4693  23.07210
 2.4681  23.13230
 2.4669  22.77040
 2.4657  22.60840
 2.4646  22.94460
 2.4634  22.87570
 2.4622  22.75420
 2.4611  22.61290
 2.4599  22.70170
 2.4587  23.10040
 2.4576  23.00410
 2.4564  23.20670
 2.4552  23.19490
 2.4541  23.04930
 2.4529  23.25770
 2.4518  22.95240
 2.4506  22.95840
 2.4494  23.10900
 2.4483  23.26520
 2.4471  23.39470
 2.4460  23.18360
 2.4448  23.01870
 2.4437  23.01980
 2.4425  23.23260
 2.4414  23.34120
 2.4402  22.98570
 2.4391  22.86160
 2.4379  22.88360
 2.4368  23.09290
 2.4356  23.84370
 2.4345  23.83250
 2.4333  23.37110
 2.4322  23.01800
 2.4311  22.98950
 2.4299  23.46370
 2.4288  23.55480
 2.4276  23.34420
 2.4265  23.31360
 2.4254  23.75010
 2.4242  23.88120
 2.4231  23.83580
 2.4220  23.71650
 2.4209  23.64300
 2.4197  23.76430
 2.4186  23.87690
 2.4175  23.66180
 2.4163  23.20130
 2.4152  23.45930
 2.4141  24.12370
 2.4130  24.06800
 2.4118  23.40880
 2.4107  23.53620
 2.4096  23.75690
 2.4085  23.91960
 2.4074  24.14490
 2.4063  24.09760
 2.4051  23.73230
 2.4040  23.42180
 2.4029  23.54090
 2.4018  23.89670
 2.4007  23.81650
 2.3996  23.86610
 2.3985  24.08810
 2.3973  24.18960
 2.3962  23.94560
 2.3951  23.68160
 2.3940  23.73790
 2.3929  23.62180
 2.3918  23.29640
 2.3907  23.20070
 2.3896  23.15120
 2.3885  23.24190
 2.3874  23.22760
 2.3863  23.23260
 2.3852  22.72490
 2.3841  22.57330
 2.3830  23.18100
 2.3819  23.25720
 2.3808  22.70250
 2.3798  22.16630
 2.3786  22.26820
 2.3776  22.12830
 2.3765  21.77190
 2.3754  22.00940
 2.3743  22.32060
 2.3732  22.51450
 2.3721  22.18790
 2.3710  21.62530
 2.3700  21.47780
 2.3689  21.63660
 2.3678  21.34450
 2.3667  21.14390
 2.3656  21.46070
 2.3645  21.28710
 2.3635  20.84960
 2.3624  20.68260
 2.3613  20.47890
 2.3603  20.31990
 2.3592  20.53400
 2.3581  20.26010
 2.3570  20.01170
 2.3560  20.43720
 2.3549  20.09350
 2.3538  19.37420
 2.3527  19.20560
 2.3517  19.55630
 2.3506  19.61180
 2.3495  19.72090
 2.3485  19.59030
 2.3474  19.21460
 2.3464  19.00110
 2.3453  18.87710
 2.3442  19.07450
 2.3432  19.22210
 2.3421  19.01820
 2.3411  19.49930
 2.3400  19.84980
 2.3390  19.19330
 2.3379  19.18210
 2.3369  19.56170
 2.3358  19.97760
 2.3347  19.54540
 2.3337  19.45040
 2.3326  19.99810
 2.3316  20.14010
 2.3306  20.03660
 2.3295  20.41530
 2.3285  20.77560
 2.3274  20.86520
 2.3264  20.61540
 2.3253  20.74850
 2.3243  21.26780
 2.3232  21.50150
 2.3222  21.47210
 2.3212  21.60320
 2.3201  21.65490
 2.3191  22.01880
 2.3180  22.66470
 2.3170  22.49740
 2.3160  22.52020
 2.3149  21.92000
 2.3139  21.61020
 2.3129  22.73470
 2.3118  23.23080
 2.3108  23.26720
 2.3098  23.38080
 2.3088  23.18220
 2.3077  22.85990
 2.3067  23.19740
 2.3057  23.47050
 2.3047  23.78220
 2.3036  24.13390
 2.3026  23.87130
 2.3016  23.09980
 2.3006  23.04580
 2.2995  23.85830
 2.2985  24.72930
 2.2975  24.59430
 2.2965  24.32680
 2.2955  24.53910
 2.2944  24.67710
 2.2934  24.57640
 2.2924  24.63840
 2.2914  24.91640
 2.2904  24.88820
 2.2894  24.57900
 2.2884  24.79300
 2.2874  24.55310
 2.2864  24.15820
 2.2854  24.40750
 2.2843  24.94620
 2.2833  24.88840
 2.2823  24.76490
 2.2813  25.23040
 2.2803  25.70510
 2.2793  25.31860
 2.2783  24.92580
 2.2773  25.39850
 2.2763  25.44780
 2.2753  24.82290
 2.2743  24.18660
 2.2733  24.17610
 2.2723  24.57280
 2.2713  24.54870
 2.2703  24.15510
 2.2694  24.18730
 2.2684  24.28250
 2.2674  24.49710
 2.2664  24.83460
 2.2654  24.80880
 2.2644  24.48770
 2.2634  23.79630
 2.2624  23.44680
 2.2614  23.64170
 2.2605  24.07190
 2.2595  23.90710
 2.2585  23.65930
 2.2575  23.25130
 2.2565  22.97990
 2.2555  22.55530
 2.2546  22.94200
 2.2536  23.03180
 2.2526  22.90020
 2.2516  23.68160
 2.2506  23.89250
 2.2497  23.11790
 2.2487  22.88500
 2.2477  23.44040
 2.2467  24.27400
 2.2458  24.48700
 2.2448  24.10600
 2.2438  24.36790
 2.2428  24.92030
 2.2419  25.46690
 2.2409  25.61130
 2.2399  24.68470
 2.2390  24.73550
 2.2380  25.03620
 2.2370  24.81560
 2.2361  24.50940
 2.2351  24.68030
 2.2342  24.68460
 2.2332  24.54980
 2.2322  24.80870
 2.2313  24.81580
 2.2303  24.72080
 2.2294  25.02210
 2.2284  25.17880
 2.2274  24.70480
 2.2265  25.07680
 2.2255  25.11210
 2.2246  25.10070
 2.2236  25.16190
 2.2227  24.68570
 2.2217  25.01760
 2.2208  25.22450
 2.2198  24.69890
 2.2189  24.43960
 2.2179  23.84130
 2.2170  23.54870
 2.2160  24.18610
 2.2151  24.58070
 2.2141  24.10690
 2.2132  24.07000
 2.2122  24.76100
 2.2113  25.05520
 2.2103  24.62870
 2.2094  24.63720
 2.2085  24.95740
 2.2075  25.28350
 2.2066  25.86190
 2.2056  25.91290
 2.2047  25.94490
 2.2038  26.12740
 2.2028  25.57940
 2.2019  25.08200
 2.2010  25.24400
 2.2000  25.78110
 2.1991  25.71290
 2.1982  26.28210
 2.1972  26.92760
 2.1963  26.75360
 2.1954  26.81820
 2.1944  27.05000
 2.1935  26.86280
 2.1926  26.35470
 2.1917  26.46700
 2.1907  27.64720
 2.1898  28.02300
 2.1889  28.13280
 2.1880  28.03400
 2.1870  27.64330
 2.1861  28.25210
 2.1852  28.08420
 2.1843  27.61850
 2.1833  27.53160
 2.1824  27.50320
 2.1815  27.88520
 2.1806  28.36640
 2.1797  28.57610
 2.1788  29.38860
 2.1778  29.61060
 2.1769  29.46180
 2.1760  29.16690
 2.1751  28.85650
 2.1742  28.60620
 2.1733  28.40210
 2.1724  28.37040
 2.1715  28.83450
 2.1706  29.21890
 2.1696  29.58480
 2.1687  29.52860
 2.1678  29.24550
 2.1669  29.72990
 2.1660  29.75750
 2.1651  29.06770
 2.1642  28.41200
 2.1633  28.91680
 2.1624  29.50050
 2.1615  29.81850
 2.1606  29.98600
 2.1597  29.64280
 2.1588  29.14420
 2.1579  28.78770
 2.1570  29.05760
 2.1561  29.06330
 2.1552  29.20960
 2.1543  28.85270
 2.1534  28.43720
 2.1525  29.35360
 2.1517  29.98910
 2.1507  30.21790
 2.1499  30.05060
 2.1490  29.85380
 2.1481  29.13640
 2.1472  29.21060
 2.1463  29.80440
 2.1454  30.76330
 2.1445  30.90740
 2.1436  30.23180
 2.1428  29.73630
 2.1419  29.43030
 2.1410  29.82430
 2.1401  30.42080
 2.1392  30.44030
 2.1383  29.84110
 2.1375  29.29720
 2.1366  28.96200
 2.1357  29.13570
 2.1348  29.25640
 2.1339  28.91540
 2.1331  28.88380
 2.1322  29.04490
 2.1313  29.54250
 2.1304  30.40810
 2.1296  30.26450
 2.1287  29.47410
 2.1278  29.11740
 2.1269  29.54920
 2.1261  29.47170
 2.1252  29.40100
 2.1243  29.95710
 2.1235  30.32920
 2.1226  30.58160
 2.1217  30.49240
 2.1208  29.64480
 2.1200  29.28060
 2.1191  29.48080
 2.1183  30.10980
 2.1174  30.31730
 2.1165  30.18210
 2.1157  30.26010
 2.1148  29.92440
 2.1139  29.14930
 2.1131  30.00880
 2.1122  31.06000
 2.1113  30.60470
 2.1105  29.85810
 2.1096  29.54740
 2.1088  30.16040
 2.1079  29.91320
 2.1071  29.54090
 2.1062  29.48630
 2.1054  29.60000
 2.1045  30.62030
 2.1036  30.93270
 2.1028  30.73260
 2.1019  31.02170
 2.1011  30.01770
 2.1002  29.07700
 2.0994  29.33640
 2.0985  30.52140
 2.0977  31.18440
 2.0968  30.95340
 2.0960  30.15220
 2.0951  29.52670
 2.0943  30.07130
 2.0934  30.27550
 2.0926  29.48120
 2.0918  29.40300
 2.0909  30.06010
 2.0901  29.84650
 2.0892  29.33010
 2.0884  29.78060
 2.0875  30.54160
 2.0867  30.53960
 2.0859  30.61490
 2.0850  31.12640
 2.0842  30.95040
 2.0833  30.04940
 2.0825  30.37110
 2.0817  30.38520
 2.0808  30.45960
 2.0800  31.20020
 2.0792  30.59200
 2.0783  30.16420
 2.0775  30.95190
 2.0767  30.24220
 2.0759  29.20250
 2.0750  28.11570
 2.0742  27.96020
 2.0734  28.93610
 2.0725  30.07540
 2.0717  30.02520
 2.0709  30.14260
 2.0701  31.41870
 2.0692  30.95830
 2.0684  30.17400
 2.0676  30.65460
 2.0667  29.73820
 2.0659  29.61980
 2.0651  30.05290
 2.0643  30.20230
 2.0635  31.83520
 2.0626  32.14580
 2.0618  30.61630
 2.0610  30.23000
 2.0602  30.44680
 2.0594  30.50590
 2.0585  30.14520
 2.0577  29.12460
 2.0569  29.90780
 2.0561  30.05540
 2.0553  29.59830
 2.0545  29.68090
 2.0537  29.30980
 2.0528  29.13380
 2.0520  30.46120
 2.0512  30.00590
 2.0504  29.21160
 2.0496  30.42570
 2.0488  30.45440
 2.0480  28.54550
 2.0472  28.23010
 2.0464  29.15480
 2.0456  29.44840
 2.0447  29.85440
 2.0439  30.19410
 2.0431  29.61090
 2.0423  28.94600
 2.0415  29.11020
 2.0407  29.67400
 2.0399  29.81760
 2.0391  29.00660
 2.0383  29.41090
 2.0375  29.39070
 2.0367  29.39820
 2.0359  29.30520
 2.0351  29.60670
 2.0343  29.56290
 2.0335  29.39830
 2.0327  28.69930
 2.0319  28.57950
 2.0311  27.94580
 2.0303  27.56810
 2.0295  29.79360
 2.0287  30.49090
 2.0280  30.15690
 2.0272  30.73640
 2.0264  30.50360
 2.0256  29.11420
 2.0248  28.72660
 2.0240  29.72920
 2.0232  30.10710
 2.0224  29.95880
 2.0216  29.77970
 2.0208  29.10250
 2.0200  28.56450
 2.0193  28.50950
 2.0185  28.28960
 2.0177  27.76380
 2.0169  27.40820
 2.0161  28.34000
 2.0153  29.22890
 2.0146  28.34180
 2.0138  28.24790
 2.0130  27.69960
 2.0122  27.65400
 2.0114  28.18340
 2.0107  28.09750
 2.0099  29.14060
 2.0091  29.35530
 2.0083  28.94010
 2.0075  29.16840
 2.0068  27.73240
 2.0060  27.65340
 2.0052  28.47270
 2.0044  28.22630
 2.0037  27.91630
 2.0029  28.73760
 2.0021  29.37390
 2.0013  29.24620
 2.0006  29.16920
 1.9998  29.47280
