Name: Quartzite
Type: Rock
Class: Metamorphic
Subclass:  Quartzite 
Particle Size: Solid surface
Sample No.: Ward93.txt
Owner: JPL
Wavelength range:  IR 
Origin: Ward's Collection of American Rocks.  Sample locality - Ableman, Sauk County, Wisconsin.  Collected by - JPL.
Collected by:  Ward's Natural Science
Description: A fine crystalline, purplish quartz rock.  
Geologic age - Pre-Cambrian




Measurement: Hemispherical reflectance
First Column: X
Second Column: Y
X Units: Wavelength (micrometers)
Y Units: Reflectance (percent)
First X Value: 15.3871
Last X Value: 1.9998
Number of X Values: 2257
Additional information: None

15.3871   4.73961
15.3416   4.65619
15.2964   4.74413
15.2514   4.72782
15.2066   4.39782
15.1622   4.20163
15.1180   4.40125
15.0740   4.46691
15.0303   4.34609
14.9869   4.02383
14.9437   3.79953
14.9008   3.80622
14.8581   3.95256
14.8156   4.05866
14.7734   3.97265
14.7314   4.01269
14.6897   4.32767
14.6482   4.32314
14.6069   4.05763
14.5659   4.23997
14.5251   4.37736
14.4845   4.48597
14.4442   4.53423
14.4041   4.29719
14.3642   3.78026
14.3245   3.13980
14.2850   2.78033
14.2458   2.89355
14.2068   3.36699
14.1679   3.60563
14.1293   3.48486
14.0909   3.66195
14.0528   4.02288
14.0148   4.03248
13.9770   3.96770
13.9394   4.20178
13.9021   4.41552
13.8649   4.30093
13.8279   4.30088
13.7911   4.39870
13.7546   4.37190
13.7182   4.60115
13.6820   4.92975
13.6460   4.83748
13.6101   4.70746
13.5745   4.79222
13.5391   4.84193
13.5038   4.82580
13.4687   5.04689
13.4339   5.43545
13.3991   5.50121
13.3646   5.49397
13.3302   5.46467
13.2961   5.56779
13.2621   5.59053
13.2282   5.71841
13.1946   6.12779
13.1611   6.31397
13.1278   6.39631
13.0946   6.74427
13.0616   7.13454
13.0288   7.24569
12.9962   7.41886
12.9637   7.77129
12.9313   8.34999
12.8992   8.85934
12.8672   9.64349
12.8353  10.34410
12.8036  10.64470
12.7721  10.55760
12.7407   9.96441
12.7095   9.19629
12.6784   8.30393
12.6475   7.93933
12.6167   8.13191
12.5861   8.51370
12.5556   9.11529
12.5253   9.61192
12.4951   9.56735
12.4651   9.21248
12.4352   8.55636
12.4054   7.42676
12.3758   5.90499
12.3463   4.49758
12.3170   3.62714
12.2878   3.32113
12.2588   3.15261
12.2299   3.37264
12.2011   3.76392
12.1725   3.88404
12.1439   3.95483
12.1156   4.19354
12.0873   4.37499
12.0592   4.58026
12.0312   4.82102
12.0034   4.83706
11.9757   4.63866
11.9481   4.42528
11.9206   4.25571
11.8933   4.16841
11.8661   4.26146
11.8390   4.49579
11.8120   4.73440
11.7852   4.87464
11.7584   4.90395
11.7318   4.97576
11.7053   4.94468
11.6790   4.85303
11.6527   4.88432
11.6266   5.05479
11.6006   5.25010
11.5747   5.36509
11.5489   5.37181
11.5233   5.50811
11.4977   5.73481
11.4723   5.83660
11.4469   5.93323
11.4217   6.03003
11.3966   6.06464
11.3716   6.27272
11.3468   6.51391
11.3220   6.56963
11.2973   6.69878
11.2728   6.75418
11.2483   6.76982
11.2240   6.76080
11.1997   6.75290
11.1756   7.01199
11.1515   7.36383
11.1276   7.55991
11.1038   7.58341
11.0801   7.57629
11.0564   7.61145
11.0329   7.68678
11.0095   7.76270
10.9862   7.79290
10.9629   7.96422
10.9398   7.98758
10.9168   8.00252
10.8938   8.17321
10.8710   8.21024
10.8483   8.31461
10.8256   8.56376
10.8031   8.63700
10.7806   8.67565
10.7582   8.73504
10.7360   8.83052
10.7138   8.99334
10.6917   9.16221
10.6697   9.30664
10.6478   9.46558
10.6260   9.74384
10.6042   9.99236
10.5826  10.33160
10.5610  10.68590
10.5396  10.95850
10.5182  11.23100
10.4969  11.39850
10.4757  11.38620
10.4546  11.03900
10.4335  10.51650
10.4126  10.05520
10.3917   9.61058
10.3709   9.29318
10.3502   9.04711
10.3296   8.83405
10.3091   8.81874
10.2886   9.06860
10.2683   9.29905
10.2480   9.51070
10.2277   9.72947
10.2076   9.96423
10.1876  10.03870
10.1676  10.16890
10.1477  10.41030
10.1279  10.66880
10.1081  10.77510
10.0885  10.85290
10.0689  11.14570
10.0494  11.43090
10.0299  11.60720
10.0106  11.78790
 9.9913  12.10960
 9.9720  12.29300
 9.9529  12.53900
 9.9338  12.79190
 9.9148  13.00640
 9.8959  13.18410
 9.8771  13.27410
 9.8583  13.50530
 9.8396  13.67400
 9.8210  13.85080
 9.8024  14.25900
 9.7839  14.62850
 9.7655  14.93420
 9.7471  15.36950
 9.7288  15.76720
 9.7106  15.96360
 9.6925  16.18290
 9.6744  16.52130
 9.6564  17.01700
 9.6384  17.49090
 9.6205  17.88910
 9.6027  18.38750
 9.5850  19.13130
 9.5673  20.03970
 9.5497  20.83760
 9.5321  21.60060
 9.5146  22.48350
 9.4972  23.42600
 9.4798  24.47910
 9.4625  25.69650
 9.4453  27.14460
 9.4281  28.61870
 9.4110  30.35540
 9.3940  32.24700
 9.3770  34.10370
 9.3600  35.98880
 9.3432  37.71770
 9.3264  39.01030
 9.3096  40.10740
 9.2930  41.00020
 9.2763  41.63130
 9.2598  42.00450
 9.2432  42.39440
 9.2268  42.69890
 9.2104  42.99410
 9.1941  43.11370
 9.1778  43.20150
 9.1616  43.35240
 9.1454  43.49130
 9.1293  43.39170
 9.1133  43.28850
 9.0973  43.27920
 9.0814  43.02290
 9.0655  42.23430
 9.0497  41.09440
 9.0339  39.45320
 9.0182  37.03470
 9.0025  34.77240
 8.9870  33.61050
 8.9714  33.46270
 8.9559  34.22570
 8.9405  35.76930
 8.9251  37.65000
 8.9097  39.41570
 8.8945  40.62640
 8.8792  41.36380
 8.8641  41.77840
 8.8489  41.92070
 8.8338  42.26300
 8.8188  42.54280
 8.8039  42.49110
 8.7889  42.32010
 8.7741  42.18520
 8.7592  42.03100
 8.7445  41.99050
 8.7297  41.86070
 8.7151  41.65460
 8.7005  41.10740
 8.6859  40.38950
 8.6714  39.32430
 8.6569  37.64810
 8.6425  35.63260
 8.6281  34.60770
 8.6137  35.44990
 8.5994  37.35780
 8.5852  39.07510
 8.5710  40.20160
 8.5569  40.84290
 8.5428  41.29950
 8.5287  41.55190
 8.5147  41.74090
 8.5008  41.64320
 8.4869  41.42800
 8.4730  41.34690
 8.4592  41.08560
 8.4454  40.70910
 8.4316  40.38230
 8.4180  40.03020
 8.4043  39.54830
 8.3907  39.04910
 8.3772  38.59900
 8.3637  38.19760
 8.3502  37.89630
 8.3368  37.56290
 8.3234  37.10430
 8.3100  36.77930
 8.2967  36.63710
 8.2835  36.25100
 8.2703  35.84670
 8.2571  35.51940
 8.2440  35.19700
 8.2309  34.73340
 8.2179  34.32630
 8.2049  33.88950
 8.1919  33.26480
 8.1790  32.24840
 8.1661  31.06970
 8.1532  29.69880
 8.1404  28.08250
 8.1277  26.30980
 8.1150  24.39540
 8.1023  22.62570
 8.0897  21.11020
 8.0770  19.57480
 8.0645  18.19010
 8.0520  16.84970
 8.0395  15.64140
 8.0270  14.69070
 8.0146  13.83100
 8.0023  12.92110
 7.9899  11.91440
 7.9776  10.98200
 7.9654  10.21780
 7.9532   9.50848
 7.9410   8.75250
 7.9288   7.98923
 7.9167   7.37252
 7.9047   6.81414
 7.8926   6.33727
 7.8807   5.96787
 7.8687   5.58197
 7.8568   5.22581
 7.8449   4.93519
 7.8330   4.63047
 7.8212   4.41154
 7.8094   4.24470
 7.7977   4.08007
 7.7860   3.88832
 7.7743   3.78565
 7.7627   3.69852
 7.7511   3.53882
 7.7395   3.35659
 7.7280   3.28695
 7.7165   3.20321
 7.7050   3.07114
 7.6936   2.90203
 7.6822   2.85917
 7.6708   2.79608
 7.6595   2.62351
 7.6482   2.54662
 7.6369   2.59485
 7.6257   2.41753
 7.6145   2.25623
 7.6033   2.27656
 7.5922   2.22631
 7.5811   2.22062
 7.5700   2.15374
 7.5590   2.04584
 7.5480   2.06196
 7.5370   2.12305
 7.5261   2.17238
 7.5152   2.17872
 7.5043   2.07414
 7.4935   2.11351
 7.4826   2.17188
 7.4718   2.12572
 7.4611   2.12885
 7.4504   2.10735
 7.4397   2.01784
 7.4290   1.91511
 7.4184   1.96380
 7.4078   2.11353
 7.3972   2.11322
 7.3867   2.03269
 7.3762   1.97291
 7.3657   2.10429
 7.3553   2.18538
 7.3449   2.07354
 7.3345   2.05548
 7.3241   2.14896
 7.3138   2.07750
 7.3035   2.07679
 7.2932   2.07748
 7.2830   2.07172
 7.2727   2.08727
 7.2626   2.08036
 7.2524   2.04681
 7.2423   1.99726
 7.2322   2.09223
 7.2221   2.25322
 7.2120   2.22956
 7.2020   2.24109
 7.1921   2.30207
 7.1821   2.17060
 7.1722   2.13256
 7.1623   2.15241
 7.1524   2.12123
 7.1425   2.16436
 7.1327   2.25588
 7.1229   2.25827
 7.1131   2.25437
 7.1034   2.33137
 7.0937   2.30868
 7.0840   2.18918
 7.0743   2.21021
 7.0647   2.24224
 7.0551   2.24672
 7.0455   2.29709
 7.0359   2.23583
 7.0264   2.17271
 7.0169   2.21839
 7.0074   2.21533
 6.9979   2.15887
 6.9885   2.31909
 6.9791   2.37287
 6.9697   2.30449
 6.9604   2.33495
 6.9510   2.41484
 6.9417   2.45337
 6.9324   2.42029
 6.9232   2.36764
 6.9140   2.31220
 6.9047   2.29175
 6.8956   2.23299
 6.8864   2.30682
 6.8773   2.39961
 6.8682   2.48606
 6.8591   2.43640
 6.8500   2.36308
 6.8410   2.43282
 6.8320   2.51930
 6.8230   2.46871
 6.8140   2.35148
 6.8051   2.33163
 6.7962   2.37972
 6.7873   2.41123
 6.7784   2.35311
 6.7695   2.30928
 6.7607   2.23671
 6.7519   2.23366
 6.7431   2.22409
 6.7344   2.27310
 6.7256   2.25930
 6.7169   2.24123
 6.7082   2.29345
 6.6996   2.28817
 6.6909   2.38498
 6.6823   2.43036
 6.6737   2.41166
 6.6651   2.39592
 6.6566   2.45062
 6.6480   2.48808
 6.6395   2.50364
 6.6310   2.48450
 6.6226   2.44735
 6.6141   2.44403
 6.6057   2.42439
 6.5973   2.40340
 6.5889   2.43587
 6.5805   2.46021
 6.5722   2.48644
 6.5639   2.55225
 6.5556   2.57684
 6.5473   2.53562
 6.5390   2.54612
 6.5308   2.54772
 6.5226   2.59740
 6.5144   2.62162
 6.5062   2.67165
 6.4981   2.83618
 6.4900   2.94519
 6.4818   3.02695
 6.4737   3.02152
 6.4657   3.00187
 6.4576   3.03415
 6.4496   3.06345
 6.4416   3.11579
 6.4336   3.24076
 6.4256   3.37412
 6.4177   3.36599
 6.4097   3.29297
 6.4018   3.18169
 6.3939   3.08091
 6.3860   2.99232
 6.3782   2.99706
 6.3704   3.05739
 6.3625   2.99586
 6.3547   2.78878
 6.3470   2.84650
 6.3392   2.96390
 6.3315   2.94593
 6.3237   2.86668
 6.3160   2.82364
 6.3083   2.76882
 6.3007   2.69531
 6.2930   2.67750
 6.2854   2.80058
 6.2778   2.86153
 6.2702   2.69896
 6.2626   2.63571
 6.2551   2.56652
 6.2476   2.46633
 6.2400   2.58883
 6.2325   2.73108
 6.2251   2.68427
 6.2176   2.55311
 6.2101   2.62523
 6.2027   2.67362
 6.1953   2.67562
 6.1879   2.75283
 6.1805   2.78585
 6.1732   2.77278
 6.1658   2.73320
 6.1585   2.80008
 6.1512   2.89471
 6.1439   2.91454
 6.1367   2.91608
 6.1294   2.95837
 6.1222   2.98822
 6.1149   3.12282
 6.1077   3.14150
 6.1006   3.06538
 6.0934   3.05402
 6.0862   3.14402
 6.0791   3.22297
 6.0720   3.28477
 6.0649   3.21953
 6.0578   3.12753
 6.0507   3.30757
 6.0437   3.50594
 6.0366   3.41473
 6.0296   3.32321
 6.0226   3.19925
 6.0156   3.19236
 6.0087   3.14285
 6.0017   3.08510
 5.9948   3.09973
 5.9878   3.09128
 5.9809   3.02423
 5.9740   2.94738
 5.9672   2.95615
 5.9603   2.97087
 5.9535   2.95000
 5.9466   2.96449
 5.9398   2.92752
 5.9330   2.99611
 5.9262   3.00678
 5.9195   2.90606
 5.9127   2.94672
 5.9060   3.01997
 5.8993   2.98929
 5.8926   3.04343
 5.8859   3.15826
 5.8792   3.17568
 5.8726   3.18815
 5.8659   3.29583
 5.8593   3.26378
 5.8527   3.30617
 5.8461   3.44994
 5.8395   3.54470
 5.8329   3.51241
 5.8264   3.49139
 5.8198   3.47581
 5.8133   3.43996
 5.8068   3.46782
 5.8003   3.38328
 5.7938   3.35380
 5.7874   3.55822
 5.7809   3.70996
 5.7745   3.72155
 5.7680   3.65698
 5.7616   3.65597
 5.7552   3.70079
 5.7489   3.80515
 5.7425   3.83554
 5.7361   3.84236
 5.7298   3.87178
 5.7235   3.92103
 5.7172   3.94061
 5.7109   3.90417
 5.7046   3.88471
 5.6983   3.93972
 5.6921   3.91096
 5.6858   3.87790
 5.6796   3.95873
 5.6734   3.89201
 5.6672   3.69775
 5.6610   3.66335
 5.6548   3.60808
 5.6487   3.56088
 5.6425   3.58678
 5.6364   3.53673
 5.6303   3.44219
 5.6242   3.45414
 5.6181   3.50164
 5.6120   3.41882
 5.6059   3.29061
 5.5999   3.20179
 5.5938   3.21359
 5.5878   3.36245
 5.5818   3.45911
 5.5758   3.44157
 5.5698   3.46548
 5.5638   3.45469
 5.5578   3.32536
 5.5519   3.32923
 5.5460   3.45968
 5.5400   3.48956
 5.5341   3.40723
 5.5282   3.45509
 5.5223   3.52176
 5.5164   3.57142
 5.5106   3.52122
 5.5047   3.51195
 5.4989   3.63109
 5.4931   3.66514
 5.4873   3.66029
 5.4815   3.70000
 5.4757   3.75095
 5.4699   3.85249
 5.4641   3.90603
 5.4584   3.88562
 5.4527   3.89624
 5.4469   3.90819
 5.4412   3.79950
 5.4355   3.79826
 5.4298   3.85686
 5.4241   3.70726
 5.4185   3.59571
 5.4128   3.54528
 5.4072   3.57678
 5.4015   3.56035
 5.3959   3.52118
 5.3903   3.43820
 5.3847   3.36235
 5.3791   3.33224
 5.3735   3.32040
 5.3680   3.25669
 5.3624   3.21314
 5.3569   3.27192
 5.3514   3.30711
 5.3458   3.21274
 5.3403   3.19825
 5.3348   3.23203
 5.3294   3.22257
 5.3239   3.20585
 5.3184   3.21840
 5.3130   3.13320
 5.3075   3.05104
 5.3021   3.08296
 5.2967   3.14069
 5.2913   3.20839
 5.2859   3.25806
 5.2805   3.22664
 5.2751   3.23471
 5.2698   3.32027
 5.2644   3.37942
 5.2591   3.42061
 5.2538   3.46955
 5.2485   3.48556
 5.2431   3.60478
 5.2378   3.77949
 5.2326   3.80385
 5.2273   3.75816
 5.2220   3.82951
 5.2168   3.89735
 5.2115   3.91784
 5.2063   3.98137
 5.2011   4.05133
 5.1959   4.02426
 5.1907   3.95561
 5.1855   3.95586
 5.1803   4.01891
 5.1751   4.06339
 5.1700   4.10346
 5.1648   4.15849
 5.1597   4.20037
 5.1545   4.18080
 5.1494   4.12599
 5.1443   4.15530
 5.1392   4.08595
 5.1341   4.09075
 5.1291   4.10053
 5.1240   4.08269
 5.1189   4.10577
 5.1139   4.08775
 5.1088   4.09428
 5.1038   4.08581
 5.0988   4.06464
 5.0938   4.15360
 5.0888   4.14138
 5.0838   4.10194
 5.0788   4.10194
 5.0738   4.02634
 5.0689   3.99077
 5.0639   3.97528
 5.0590   3.92763
 5.0541   3.95651
 5.0491   4.02261
 5.0442   3.99321
 5.0393   4.04065
 5.0344   4.07437
 5.0296   4.01936
 5.0247   3.96655
 5.0198   4.03683
 5.0150   4.16297
 5.0101   4.21126
 5.0053   4.13553
 5.0004   4.10123
 4.9956   4.15342
 4.9908   4.17689
 4.9860   4.20281
 4.9812   4.26838
 4.9765   4.34673
 4.9717   4.40440
 4.9669   4.45194
 4.9622   4.51431
 4.9574   4.50705
 4.9527   4.57484
 4.9480   4.67979
 4.9432   4.76037
 4.9385   4.86940
 4.9338   4.92348
 4.9291   4.92689
 4.9245   4.95016
 4.9198   5.09874
 4.9151   5.27011
 4.9105   5.35098
 4.9058   5.46150
 4.9012   5.64316
 4.8966   5.86186
 4.8919   6.11296
 4.8873   6.35909
 4.8827   6.56506
 4.8781   6.72149
 4.8736   6.90157
 4.8690   7.06506
 4.8644   7.24468
 4.8599   7.42834
 4.8553   7.68355
 4.8508   7.93311
 4.8462   8.11492
 4.8417   8.10093
 4.8372   8.15639
 4.8327   8.29532
 4.8282   8.41066
 4.8237   8.55498
 4.8192   8.60914
 4.8147   8.62411
 4.8103   8.75526
 4.8058   8.84461
 4.8014   8.80693
 4.7969   8.84139
 4.7925   8.95011
 4.7881   8.99871
 4.7836   9.00490
 4.7792   9.10006
 4.7748   9.25370
 4.7704   9.34094
 4.7660   9.38919
 4.7617   9.47517
 4.7573   9.55681
 4.7530   9.59497
 4.7486   9.69546
 4.7443   9.72243
 4.7399   9.72309
 4.7356   9.70540
 4.7313   9.77454
 4.7270   9.93004
 4.7226   9.92831
 4.7184   9.82474
 4.7141   9.81545
 4.7098   9.81691
 4.7055   9.70217
 4.7012   9.56775
 4.6970   9.41444
 4.6927   9.29548
 4.6885   9.23881
 4.6842   9.22515
 4.6800   9.19095
 4.6758   9.24345
 4.6716   9.39953
 4.6674   9.57789
 4.6632   9.74105
 4.6590   9.89317
 4.6548  10.08160
 4.6506  10.25470
 4.6465  10.37840
 4.6423  10.60080
 4.6382  10.77230
 4.6340  10.82040
 4.6299  10.96520
 4.6258  11.08390
 4.6216  11.14280
 4.6175  11.23170
 4.6134  11.31880
 4.6093  11.31530
 4.6052  11.30900
 4.6011  11.52420
 4.5971  11.63920
 4.5930  11.53430
 4.5889  11.50890
 4.5849  11.54670
 4.5808  11.44890
 4.5768  11.39180
 4.5727  11.40900
 4.5687  11.41990
 4.5647  11.37660
 4.5607  11.38980
 4.5567  11.34810
 4.5526  11.14280
 4.5487  11.07850
 4.5447  10.94950
 4.5407  10.82250
 4.5367  10.76910
 4.5328  10.69360
 4.5288  10.52120
 4.5248  10.33640
 4.5209  10.17020
 4.5170   9.95353
 4.5130   9.74711
 4.5091   9.60869
 4.5052   9.45345
 4.5013   9.27735
 4.4974   9.14759
 4.4935   9.07765
 4.4896   9.08452
 4.4857   9.09207
 4.4818   9.12556
 4.4779   9.01725
 4.4741   8.94086
 4.4702   8.96351
 4.4664   8.95404
 4.4625   8.99167
 4.4587   9.16993
 4.4549   9.27508
 4.4510   9.27290
 4.4472   9.34203
 4.4434   9.51007
 4.4396   9.61948
 4.4358   9.65208
 4.4320   9.55950
 4.4282   9.60249
 4.4245   9.74104
 4.4207   9.75122
 4.4169   9.78601
 4.4132   9.88732
 4.4094  10.02740
 4.4057  10.12040
 4.4019  10.15050
 4.3982  10.26610
 4.3945  10.44200
 4.3907  10.50360
 4.3870  10.65870
 4.3833  10.80270
 4.3796  10.83300
 4.3759  10.96260
 4.3722  11.10480
 4.3685  11.20710
 4.3649  11.38440
 4.3612  11.50550
 4.3575  11.51070
 4.3539  11.63470
 4.3502  11.67740
 4.3466  11.73120
 4.3429  11.88570
 4.3393  11.91770
 4.3357  11.90750
 4.3320  11.87030
 4.3284  11.84500
 4.3248  11.84220
 4.3212  11.88350
 4.3176  11.86970
 4.3140  11.72640
 4.3105  11.59700
 4.3069  11.56330
 4.3033  11.42710
 4.2997  11.31050
 4.2962  11.31760
 4.2926  11.24530
 4.2890  11.25090
 4.2855  11.26320
 4.2820  11.20900
 4.2784  11.24840
 4.2749  11.43130
 4.2714  11.52170
 4.2679  11.55840
 4.2644  11.73800
 4.2609  11.93140
 4.2574  12.09050
 4.2539  12.05900
 4.2504  11.83830
 4.2469  11.53800
 4.2434  11.29400
 4.2400  11.34250
 4.2365  11.43760
 4.2330  11.37520
 4.2296  11.34780
 4.2261  11.46590
 4.2227  11.60990
 4.2193  11.70540
 4.2158  11.86900
 4.2124  12.01670
 4.2090  12.12800
 4.2056  12.27900
 4.2022  12.47560
 4.1988  12.58180
 4.1954  12.59220
 4.1920  12.59840
 4.1886  12.50780
 4.1852  12.42650
 4.1818  12.62540
 4.1785  12.78800
 4.1751  12.79820
 4.1717  12.84140
 4.1684  12.83160
 4.1650  12.79080
 4.1617  12.79980
 4.1584  12.81830
 4.1550  12.77990
 4.1517  12.81020
 4.1484  12.95040
 4.1451  13.06110
 4.1418  13.05910
 4.1384  13.03340
 4.1351  13.13950
 4.1319  13.18750
 4.1286  13.22330
 4.1253  13.27220
 4.1220  13.30670
 4.1187  13.33680
 4.1155  13.34940
 4.1122  13.38570
 4.1089  13.42880
 4.1057  13.61470
 4.1024  13.76010
 4.0992  13.69540
 4.0959  13.67710
 4.0927  13.70520
 4.0895  13.71120
 4.0863  13.72520
 4.0830  13.78340
 4.0798  13.78760
 4.0766  13.89980
 4.0734  13.99200
 4.0702  13.95170
 4.0670  13.95350
 4.0639  13.98270
 4.0607  14.00380
 4.0575  13.99810
 4.0543  14.04610
 4.0511  13.97640
 4.0480  13.92380
 4.0448  14.09650
 4.0417  14.12040
 4.0385  13.93070
 4.0354  13.81160
 4.0323  13.85600
 4.0291  14.01820
 4.0260  14.04710
 4.0229  14.09200
 4.0197  14.13710
 4.0166  14.09160
 4.0135  14.03680
 4.0104  13.96200
 4.0073  13.89350
 4.0042  13.89380
 4.0011  13.98700
 3.9981  13.99620
 3.9950  13.99410
 3.9919  13.96960
 3.9888  14.07000
 3.9857  14.18970
 3.9827  14.08300
 3.9796  13.92480
 3.9766  14.05960
 3.9735  14.30970
 3.9705  14.38340
 3.9675  14.40870
 3.9644  14.36470
 3.9614  14.30900
 3.9584  14.27490
 3.9554  14.29860
 3.9523  14.42970
 3.9493  14.41990
 3.9463  14.35010
 3.9433  14.49060
 3.9403  14.54050
 3.9373  14.38870
 3.9343  14.45850
 3.9314  14.57920
 3.9284  14.53120
 3.9254  14.52940
 3.9224  14.53880
 3.9195  14.54660
 3.9165  14.65300
 3.9136  14.63810
 3.9106  14.47070
 3.9077  14.45660
 3.9047  14.47170
 3.9018  14.40290
 3.8988  14.46780
 3.8959  14.59720
 3.8930  14.52590
 3.8901  14.40760
 3.8872  14.32590
 3.8842  14.27100
 3.8813  14.26590
 3.8784  14.40590
 3.8755  14.48310
 3.8726  14.45190
 3.8697  14.43780
 3.8669  14.41250
 3.8640  14.37600
 3.8611  14.33850
 3.8582  14.32270
 3.8554  14.22990
 3.8525  14.09380
 3.8496  14.12510
 3.8468  14.24560
 3.8439  14.25810
 3.8411  14.26710
 3.8382  14.35990
 3.8354  14.27840
 3.8326  14.10550
 3.8297  14.19650
 3.8269  14.29570
 3.8241  14.36830
 3.8213  14.32990
 3.8185  14.27900
 3.8157  14.36170
 3.8128  14.33550
 3.8100  14.31790
 3.8072  14.31110
 3.8045  14.37210
 3.8017  14.39850
 3.7989  14.28750
 3.7961  14.17420
 3.7933  14.24980
 3.7906  14.20210
 3.7878  14.18230
 3.7850  14.28660
 3.7822  14.34380
 3.7795  14.24420
 3.7767  14.25310
 3.7740  14.22660
 3.7713  14.16300
 3.7685  14.16740
 3.7658  14.03640
 3.7630  13.95740
 3.7603  13.99810
 3.7576  13.99090
 3.7549  14.04440
 3.7521  13.98960
 3.7494  13.90670
 3.7467  14.01730
 3.7440  14.15010
 3.7413  14.11630
 3.7386  14.03090
 3.7359  14.11290
 3.7332  14.13380
 3.7306  14.12510
 3.7279  14.01780
 3.7252  13.95410
 3.7225  13.96050
 3.7199  13.96690
 3.7172  13.99450
 3.7145  13.98160
 3.7119  13.95370
 3.7092  13.98010
 3.7066  13.98010
 3.7039  14.01890
 3.7013  14.04900
 3.6986  13.97180
 3.6960  13.96340
 3.6934  13.87700
 3.6907  13.70980
 3.6881  13.76530
 3.6855  13.95690
 3.6829  14.06540
 3.6803  14.16290
 3.6776  14.18510
 3.6750  14.00250
 3.6724  13.85450
 3.6698  13.85850
 3.6672  13.94220
 3.6646  14.18140
 3.6620  14.32390
 3.6595  14.27240
 3.6569  14.18510
 3.6543  14.17380
 3.6517  14.18530
 3.6492  14.16030
 3.6466  14.15730
 3.6440  14.18830
 3.6415  14.18450
 3.6389  14.15850
 3.6364  14.26830
 3.6338  14.27080
 3.6313  14.21030
 3.6287  14.27240
 3.6262  14.31190
 3.6237  14.29210
 3.6211  14.24950
 3.6186  14.27690
 3.6161  14.40290
 3.6136  14.40190
 3.6111  14.19610
 3.6085  14.11200
 3.6060  14.19510
 3.6035  14.18390
 3.6010  14.15490
 3.5985  14.10210
 3.5960  14.00470
 3.5935  14.08060
 3.5910  14.24620
 3.5886  14.24710
 3.5861  14.33090
 3.5836  14.27640
 3.5811  14.17270
 3.5787  14.21690
 3.5762  14.21160
 3.5737  14.13800
 3.5713  14.03420
 3.5688  13.95820
 3.5663  13.93950
 3.5639  14.02780
 3.5614  13.93910
 3.5590  13.85490
 3.5566  13.90530
 3.5541  13.94280
 3.5517  13.89250
 3.5493  13.95760
 3.5468  13.97740
 3.5444  13.87330
 3.5420  13.88630
 3.5396  13.96560
 3.5372  13.97530
 3.5347  14.09940
 3.5323  13.99850
 3.5299  13.89750
 3.5275  13.89720
 3.5251  13.89010
 3.5227  13.90760
 3.5203  13.77710
 3.5180  13.67890
 3.5156  13.81100
 3.5132  13.91440
 3.5108  13.78990
 3.5084  13.60470
 3.5061  13.68080
 3.5037  13.76230
 3.5013  13.69460
 3.4990  13.66220
 3.4966  13.76050
 3.4943  13.71010
 3.4919  13.67730
 3.4895  13.61460
 3.4872  13.60080
 3.4849  13.66160
 3.4825  13.57700
 3.4802  13.46330
 3.4778  13.55800
 3.4755  13.58450
 3.4732  13.59380
 3.4709  13.58860
 3.4685  13.46810
 3.4662  13.43400
 3.4639  13.49180
 3.4616  13.49030
 3.4593  13.45310
 3.4570  13.49620
 3.4547  13.42420
 3.4524  13.34190
 3.4501  13.49530
 3.4478  13.46460
 3.4455  13.30600
 3.4432  13.29030
 3.4409  13.30000
 3.4386  13.16990
 3.4364  13.22250
 3.4341  13.23230
 3.4318  12.98040
 3.4295  12.99950
 3.4273  13.12950
 3.4250  13.18890
 3.4228  13.03910
 3.4205  13.05510
 3.4182  13.11080
 3.4160  13.06840
 3.4137  12.95060
 3.4115  12.88510
 3.4093  12.91510
 3.4070  12.86500
 3.4048  12.69890
 3.4025  12.78300
 3.4003  13.02680
 3.3981  12.99130
 3.3958  12.75480
 3.3936  12.63700
 3.3914  12.64660
 3.3892  12.78430
 3.3870  12.83420
 3.3848  12.74380
 3.3826  12.63310
 3.3804  12.76710
 3.3782  12.70610
 3.3760  12.76880
 3.3738  12.95030
 3.3716  13.01950
 3.3694  13.01720
 3.3672  13.04500
 3.3650  12.85580
 3.3628  12.59210
 3.3606  12.51310
 3.3585  12.52920
 3.3563  12.68910
 3.3541  12.83270
 3.3520  12.78520
 3.3498  12.65780
 3.3476  12.61210
 3.3455  12.61830
 3.3433  12.53370
 3.3411  12.53390
 3.3390  12.51110
 3.3369  12.46880
 3.3347  12.56610
 3.3326  12.66520
 3.3304  12.67490
 3.3283  12.66910
 3.3262  12.63160
 3.3240  12.57180
 3.3219  12.49070
 3.3198  12.54070
 3.3176  12.55050
 3.3155  12.36760
 3.3134  12.41270
 3.3113  12.42320
 3.3092  12.39170
 3.3071  12.50820
 3.3049  12.32160
 3.3028  12.35940
 3.3007  12.52110
 3.2986  12.64260
 3.2965  12.76060
 3.2944  12.55940
 3.2924  12.43750
 3.2903  12.51840
 3.2882  12.43740
 3.2861  12.16280
 3.2840  11.95950
 3.2819  11.88030
 3.2799  12.12290
 3.2778  12.32740
 3.2757  12.28160
 3.2736  12.24210
 3.2716  12.13340
 3.2695  11.99700
 3.2675  12.05260
 3.2654  11.98200
 3.2634  11.91920
 3.2613  11.95190
 3.2593  12.17910
 3.2572  12.14280
 3.2552  11.94050
 3.2531  11.96290
 3.2511  12.18680
 3.2490  12.03310
 3.2470  11.71030
 3.2450  11.80170
 3.2429  12.01210
 3.2409  11.96730
 3.2389  11.91300
 3.2369  11.91400
 3.2348  11.96230
 3.2328  12.16780
 3.2308  12.29990
 3.2288  12.22480
 3.2268  11.99030
 3.2248  11.53400
 3.2228  11.53030
 3.2208  11.96860
 3.2188  12.13310
 3.2168  12.04860
 3.2148  11.74560
 3.2128  11.60960
 3.2108  12.01990
 3.2088  12.11970
 3.2068  11.98410
 3.2049  11.98360
 3.2029  11.76410
 3.2009  11.76050
 3.1989  11.66550
 3.1970  11.48200
 3.1950  11.44760
 3.1930  11.45870
 3.1911  11.61060
 3.1891  11.71310
 3.1871  11.57110
 3.1852  11.63060
 3.1832  11.91230
 3.1813  11.85020
 3.1793  11.59370
 3.1774  11.33260
 3.1754  11.26670
 3.1735  11.45260
 3.1715  11.73610
 3.1696  11.87780
 3.1677  11.85980
 3.1657  11.60270
 3.1638  11.53450
 3.1619  11.72260
 3.1599  11.64470
 3.1580  11.55550
 3.1561  11.61380
 3.1542  11.63180
 3.1523  11.87820
 3.1503  11.65060
 3.1484  11.28440
 3.1465  11.39750
 3.1446  11.28050
 3.1427  11.31050
 3.1408  11.37700
 3.1389  11.43630
 3.1370  11.29510
 3.1351  11.13930
 3.1332  11.15760
 3.1313  11.28120
 3.1294  11.23270
 3.1275  11.18970
 3.1257  11.22060
 3.1238  11.03190
 3.1219  11.23440
 3.1200  11.24220
 3.1181  11.18910
 3.1163  11.40550
 3.1144  11.35350
 3.1125  11.27180
 3.1107  11.04300
 3.1088  10.82930
 3.1069  10.85580
 3.1051  10.83330
 3.1032  10.97630
 3.1014  11.27350
 3.0995  11.51600
 3.0976  11.30810
 3.0958  11.11010
 3.0940  11.12810
 3.0921  11.28630
 3.0903  11.19110
 3.0884  10.95000
 3.0866  10.98540
 3.0848  10.86600
 3.0829  10.50670
 3.0811  10.53330
 3.0793  10.41840
 3.0774  10.30740
 3.0756  10.82350
 3.0738  11.20610
 3.0720  11.05920
 3.0701  11.13330
 3.0683  10.98830
 3.0665  10.80120
 3.0647  10.87730
 3.0629  10.74850
 3.0611  10.57850
 3.0593  10.73750
 3.0575  10.98200
 3.0557  10.98710
 3.0539  10.79040
 3.0521  10.67500
 3.0503  10.78150
 3.0485  10.71840
 3.0467  10.71210
 3.0449  10.95370
 3.0431  10.90970
 3.0413  10.69480
 3.0396  10.27620
 3.0378  10.40840
 3.0360  10.80630
 3.0342  10.70030
 3.0324  10.78670
 3.0307  10.87850
 3.0289  10.92870
 3.0271  10.92150
 3.0254  10.81690
 3.0236  10.84720
 3.0218  10.86640
 3.0201  10.63210
 3.0183  10.52340
 3.0166  10.69940
 3.0148  10.78190
 3.0130  10.70530
 3.0113  10.73170
 3.0096  10.90130
 3.0078  10.93570
 3.0061  10.94420
 3.0043  10.70800
 3.0026  10.44870
 3.0008  10.46720
 2.9991  10.69920
 2.9974  10.71900
 2.9956  10.67720
 2.9939  10.41780
 2.9922  10.40630
 2.9905  10.57310
 2.9887  10.47540
 2.9870  10.41920
 2.9853  10.35490
 2.9836  10.12690
 2.9819  10.07050
 2.9802  10.60060
 2.9784  10.46930
 2.9767  10.37500
 2.9750  10.46430
 2.9733  10.64180
 2.9716  10.39440
 2.9699  10.18810
 2.9682  10.54490
 2.9665  10.62080
 2.9648  10.31650
 2.9631  10.26740
 2.9614  10.61830
 2.9597  10.72390
 2.9581  10.69790
 2.9564  10.25990
 2.9547  10.18180
 2.9530  10.51430
 2.9513  10.10720
 2.9496   9.99329
 2.9480  10.29370
 2.9463  10.48290
 2.9446  10.46390
 2.9429  10.24210
 2.9413  10.12380
 2.9396  10.38940
 2.9379  10.72120
 2.9363  10.49060
 2.9346  10.22920
 2.9330  10.23030
 2.9313  10.22090
 2.9296  10.48330
 2.9280  10.45400
 2.9263  10.03750
 2.9247  10.06790
 2.9230  10.23050
 2.9214  10.29710
 2.9197  10.37700
 2.9181  10.11830
 2.9165  10.23410
 2.9148  10.34620
 2.9132   9.89219
 2.9116  10.03650
 2.9099  10.52260
 2.9083  10.97570
 2.9067  10.85230
 2.9050  10.05230
 2.9034  10.11980
 2.9018  10.32790
 2.9002  10.74370
 2.8985  10.79130
 2.8969  10.40830
 2.8953  10.47240
 2.8937  10.30560
 2.8921  10.27120
 2.8905   9.96241
 2.8888   9.89252
 2.8872  10.47950
 2.8856  11.01990
 2.8840  11.14900
 2.8824  10.87830
 2.8808  10.44040
 2.8792  10.39630
 2.8776  10.41000
 2.8760  10.46100
 2.8744  10.44830
 2.8728  10.40440
 2.8712  10.28270
 2.8697  10.29330
 2.8681  10.05810
 2.8665   9.81592
 2.8649  10.15740
 2.8633  10.33960
 2.8617  10.52880
 2.8602  10.41610
 2.8586  10.00740
 2.8570  10.35060
 2.8554  10.75420
 2.8539  10.10330
 2.8523   9.97682
 2.8507  10.34100
 2.8492  10.49260
 2.8476  10.44040
 2.8460  10.35720
 2.8445  10.54650
 2.8429  10.70970
 2.8413  10.75820
 2.8398  11.03390
 2.8382  11.12320
 2.8367  11.08670
 2.8351  11.09120
 2.8336  11.02220
 2.8320  10.88030
 2.8305  10.81180
 2.8289  11.03520
 2.8274  11.03850
 2.8259  10.82720
 2.8243  10.99630
 2.8228  11.17430
 2.8213  10.81040
 2.8197  10.70280
 2.8182  11.06620
 2.8167  10.83830
 2.8151  11.02010
 2.8136  11.25730
 2.8121  11.03980
 2.8106  10.95580
 2.8090  11.02020
 2.8075  10.85090
 2.8060  10.46830
 2.8045  10.52270
 2.8030  10.45740
 2.8014  10.19800
 2.7999  10.41720
 2.7984  10.69920
 2.7969  10.40430
 2.7954   9.97683
 2.7939  10.63920
 2.7924  11.51570
 2.7909  11.13200
 2.7894  10.51150
 2.7879  10.37130
 2.7864   9.80625
 2.7849  10.12570
 2.7834  10.13670
 2.7819   9.98844
 2.7804  10.21870
 2.7789   9.64812
 2.7774   9.57425
 2.7759   9.58481
 2.7745   9.20842
 2.7730   9.38250
 2.7715   9.95796
 2.7700   9.38793
 2.7685   9.03240
 2.7671   8.96692
 2.7656   8.74863
 2.7641   8.18396
 2.7626   8.07012
 2.7612   8.28901
 2.7597   8.18957
 2.7582   8.05520
 2.7568   8.44211
 2.7553   8.78206
 2.7538   8.85694
 2.7524   8.72202
 2.7509   8.37393
 2.7494   8.07758
 2.7480   8.08860
 2.7465   7.96883
 2.7451   7.29842
 2.7436   6.96355
 2.7422   7.16780
 2.7407   7.49618
 2.7393   7.47668
 2.7378   7.18758
 2.7364   7.13299
 2.7350   7.24257
 2.7335   7.13621
 2.7321   7.00155
 2.7306   7.05078
 2.7292   7.12634
 2.7278   6.94208
 2.7263   6.63196
 2.7249   6.52192
 2.7235   6.69191
 2.7220   7.42576
 2.7206   8.07649
 2.7192   7.48607
 2.7178   6.26779
 2.7163   5.74182
 2.7149   5.71587
 2.7135   5.90846
 2.7121   6.52053
 2.7106   6.80832
 2.7092   6.67091
 2.7078   6.92518
 2.7064   7.21350
 2.7050   7.18338
 2.7036   7.43440
 2.7022   7.97110
 2.7008   7.97453
 2.6994   8.13846
 2.6980   8.46328
 2.6965   9.03648
 2.6951   9.47753
 2.6938   9.91402
 2.6923  10.33130
 2.6910  10.60190
 2.6896  11.11710
 2.6882  11.64230
 2.6868  11.95610
 2.6854  11.89380
 2.6840  11.76930
 2.6826  12.02820
 2.6812  12.23940
 2.6798  12.39700
 2.6784  12.45410
 2.6771  12.45390
 2.6757  12.59400
 2.6743  12.65310
 2.6729  13.19370
 2.6715  13.59860
 2.6702  13.42020
 2.6688  13.13940
 2.6674  13.24260
 2.6660  13.47760
 2.6647  13.42850
 2.6633  13.58420
 2.6619  13.68440
 2.6606  13.81520
 2.6592  14.04650
 2.6578  13.87580
 2.6565  13.57010
 2.6551  13.60710
 2.6538  13.86520
 2.6524  13.87490
 2.6511  13.85140
 2.6497  13.94930
 2.6484  13.73290
 2.6470  13.63330
 2.6456  13.75660
 2.6443  13.75940
 2.6429  13.81360
 2.6416  13.98920
 2.6403  13.95760
 2.6389  13.61940
 2.6376  13.83360
 2.6362  14.27360
 2.6349  14.18030
 2.6336  13.97040
 2.6322  13.79540
 2.6309  13.64350
 2.6296  13.61780
 2.6282  14.17660
 2.6269  14.35190
 2.6256  14.09040
 2.6242  13.65420
 2.6229  13.77420
 2.6216  13.92650
 2.6203  13.93690
 2.6189  13.95330
 2.6176  13.87110
 2.6163  13.34900
 2.6150  12.96490
 2.6136  13.18450
 2.6123  13.19630
 2.6110  13.15150
 2.6097  13.09420
 2.6084  12.46640
 2.6071  12.61630
 2.6058  12.89600
 2.6044  12.97070
 2.6031  13.10670
 2.6018  12.88940
 2.6005  12.80240
 2.5992  12.92630
 2.5979  13.01750
 2.5966  13.22890
 2.5953  13.25780
 2.5940  12.67570
 2.5927  12.95170
 2.5914  13.79260
 2.5901  13.88840
 2.5888  13.88460
 2.5876  13.83960
 2.5863  14.00120
 2.5850  14.10300
 2.5837  14.19260
 2.5824  13.98630
 2.5811  14.21390
 2.5798  14.49770
 2.5785  14.45760
 2.5773  14.51050
 2.5760  14.53950
 2.5747  14.61330
 2.5734  14.54060
 2.5722  14.19140
 2.5709  13.86690
 2.5696  13.97560
 2.5683  14.56930
 2.5671  14.73250
 2.5658  14.32950
 2.5645  14.27060
 2.5633  14.24690
 2.5620  13.95500
 2.5607  13.94270
 2.5595  14.11210
 2.5582  14.58740
 2.5569  14.98480
 2.5557  14.96700
 2.5544  14.65620
 2.5532  14.12140
 2.5519  13.88380
 2.5507  14.05960
 2.5494  14.37460
 2.5481  14.34080
 2.5469  13.95670
 2.5456  14.23240
 2.5444  14.62490
 2.5431  14.42440
 2.5419  14.61220
 2.5406  14.82050
 2.5394  15.09650
 2.5382  15.20340
 2.5369  15.18750
 2.5357  15.25440
 2.5344  15.45090
 2.5332  15.01090
 2.5320  14.45880
 2.5307  14.56220
 2.5295  14.83710
 2.5283  14.73630
 2.5270  14.42920
 2.5258  14.52430
 2.5246  14.47630
 2.5233  14.26000
 2.5221  14.34060
 2.5209  14.52730
 2.5197  14.36690
 2.5184  13.82690
 2.5172  13.56520
 2.5160  13.99020
 2.5148  14.20550
 2.5136  13.88580
 2.5123  13.49850
 2.5111  13.42950
 2.5099  13.36150
 2.5087  13.46680
 2.5075  14.02680
 2.5063  14.20260
 2.5051  13.94900
 2.5038  13.53780
 2.5026  13.68470
 2.5014  13.68710
 2.5002  13.69560
 2.4990  14.08910
 2.4978  14.40650
 2.4966  14.00890
 2.4954  14.09670
 2.4942  14.38310
 2.4930  14.36840
 2.4918  14.11030
 2.4906  14.05940
 2.4894  14.10830
 2.4882  14.19730
 2.4870  14.63390
 2.4858  14.62180
 2.4846  14.31100
 2.4835  14.28830
 2.4823  14.59410
 2.4811  14.42110
 2.4799  13.86590
 2.4787  14.01460
 2.4775  14.65010
 2.4764  14.89070
 2.4752  14.99790
 2.4740  14.54780
 2.4728  14.50450
 2.4716  14.64490
 2.4705  14.65160
 2.4693  14.67400
 2.4681  14.35820
 2.4669  14.27960
 2.4657  14.54140
 2.4646  14.62980
 2.4634  14.49090
 2.4622  14.80960
 2.4611  15.33460
 2.4599  14.73690
 2.4587  14.13770
 2.4576  14.53180
 2.4564  14.85370
 2.4552  14.85360
 2.4541  15.00050
 2.4529  14.83750
 2.4518  14.73900
 2.4506  14.86180
 2.4494  14.74920
 2.4483  14.38580
 2.4471  14.05600
 2.4460  14.00410
 2.4448  14.64440
 2.4437  14.69530
 2.4425  14.59530
 2.4414  14.39090
 2.4402  14.53380
 2.4391  14.97150
 2.4379  14.90080
 2.4368  14.45640
 2.4356  14.32800
 2.4345  14.59060
 2.4333  15.26590
 2.4322  15.18610
 2.4311  14.22570
 2.4299  14.27420
 2.4288  14.47680
 2.4276  14.20660
 2.4265  14.59750
 2.4254  15.10490
 2.4242  14.88130
 2.4231  14.52880
 2.4220  14.63790
 2.4209  14.60020
 2.4197  14.67200
 2.4186  14.90990
 2.4175  15.27330
 2.4163  15.25700
 2.4152  15.40980
 2.4141  15.18910
 2.4130  14.85630
 2.4118  15.13210
 2.4107  15.27980
 2.4096  15.62720
 2.4085  15.65030
 2.4074  15.38720
 2.4063  14.91200
 2.4051  14.70430
 2.4040  14.75840
 2.4029  14.14910
 2.4018  14.43340
 2.4007  15.09600
 2.3996  14.96410
 2.3985  14.54110
 2.3973  14.65340
 2.3962  14.84910
 2.3951  15.06990
 2.3940  15.05120
 2.3929  14.74810
 2.3918  14.87190
 2.3907  14.93870
 2.3896  14.67200
 2.3885  14.83220
 2.3874  15.06680
 2.3863  15.40430
 2.3852  15.11200
 2.3841  15.01650
 2.3830  15.07980
 2.3819  14.99590
 2.3808  14.93860
 2.3798  14.93330
 2.3786  14.87930
 2.3776  14.99820
 2.3765  15.14940
 2.3754  15.36150
 2.3743  15.96700
 2.3732  16.33270
 2.3721  15.84920
 2.3710  15.37640
 2.3700  15.23690
 2.3689  15.25890
 2.3678  15.12570
 2.3667  15.15980
 2.3656  15.26800
 2.3645  14.88470
 2.3635  15.10690
 2.3624  15.19620
 2.3613  15.35570
 2.3603  15.24450
 2.3592  14.66600
 2.3581  15.05840
 2.3570  15.90940
 2.3560  15.70150
 2.3549  15.13610
 2.3538  15.20850
 2.3527  15.61950
 2.3517  15.96350
 2.3506  15.65500
 2.3495  14.47630
 2.3485  14.60800
 2.3474  15.51550
 2.3464  15.73640
 2.3453  15.58360
 2.3442  15.34820
 2.3432  15.48000
 2.3421  15.44770
 2.3411  15.67060
 2.3400  15.83050
 2.3390  15.53150
 2.3379  15.65470
 2.3369  15.96180
 2.3358  15.72200
 2.3347  15.63280
 2.3337  15.83720
 2.3326  15.58070
 2.3316  14.99850
 2.3306  14.85060
 2.3295  14.77420
 2.3285  14.71620
 2.3274  15.27790
 2.3264  14.93510
 2.3253  14.59370
 2.3243  14.80340
 2.3232  14.69020
 2.3222  14.88430
 2.3212  15.00940
 2.3201  14.55180
 2.3191  14.47030
 2.3180  14.77990
 2.3170  15.44560
 2.3160  15.79620
 2.3149  15.60130
 2.3139  15.28000
 2.3129  15.31860
 2.3118  15.29980
 2.3108  15.17770
 2.3098  15.05480
 2.3088  14.65480
 2.3077  14.92320
 2.3067  15.41310
 2.3057  15.44740
 2.3047  15.30440
 2.3036  15.08510
 2.3026  15.22660
 2.3016  15.39320
 2.3006  14.94310
 2.2995  15.06200
 2.2985  15.33210
 2.2975  15.60550
 2.2965  15.43510
 2.2955  15.48870
 2.2944  15.39760
 2.2934  14.97350
 2.2924  14.89930
 2.2914  15.16680
 2.2904  15.59640
 2.2894  15.83150
 2.2884  15.53520
 2.2874  15.46530
 2.2864  15.40080
 2.2854  15.63620
 2.2843  15.87580
 2.2833  15.65100
 2.2823  15.77280
 2.2813  16.07400
 2.2803  15.82100
 2.2793  15.35090
 2.2783  15.74240
 2.2773  16.16380
 2.2763  16.25260
 2.2753  15.99090
 2.2743  16.08650
 2.2733  16.53470
 2.2723  16.32540
 2.2713  15.97090
 2.2703  16.01800
 2.2694  15.75000
 2.2684  15.74300
 2.2674  16.22160
 2.2664  15.99790
 2.2654  15.61960
 2.2644  15.74970
 2.2634  16.51860
 2.2624  16.59200
 2.2614  16.57440
 2.2605  16.64170
 2.2595  16.03260
 2.2585  15.67680
 2.2575  15.81410
 2.2565  15.92240
 2.2555  15.87580
 2.2546  16.12520
 2.2536  16.12960
 2.2526  16.32620
 2.2516  16.46750
 2.2506  16.12500
 2.2497  15.98760
 2.2487  16.60670
 2.2477  16.75100
 2.2467  16.17840
 2.2458  15.78540
 2.2448  15.84250
 2.2438  16.69210
 2.2428  16.83310
 2.2419  16.30960
 2.2409  16.35510
 2.2399  16.15550
 2.2390  16.36910
 2.2380  16.73790
 2.2370  16.45410
 2.2361  15.80350
 2.2351  16.36300
 2.2342  16.51570
 2.2332  15.55990
 2.2322  15.42350
 2.2313  15.78390
 2.2303  16.13170
 2.2294  16.42910
 2.2284  16.47310
 2.2274  16.09400
 2.2265  16.08620
 2.2255  16.26160
 2.2246  16.42650
 2.2236  16.45910
 2.2227  15.75000
 2.2217  15.69540
 2.2208  15.62660
 2.2198  15.39620
 2.2189  15.75690
 2.2179  16.18320
 2.2170  16.37670
 2.2160  15.94320
 2.2151  15.98420
 2.2141  16.13010
 2.2132  15.94350
 2.2122  15.71530
 2.2113  16.17020
 2.2103  16.44500
 2.2094  16.10940
 2.2085  16.08110
 2.2075  15.98650
 2.2066  15.56910
 2.2056  15.25930
 2.2047  15.03470
 2.2038  15.61870
 2.2028  16.09530
 2.2019  16.27630
 2.2010  16.25640
 2.2000  15.52660
 2.1991  15.48860
 2.1982  15.97220
 2.1972  16.28450
 2.1963  16.32980
 2.1954  16.63470
 2.1944  16.50450
 2.1935  16.40050
 2.1926  16.81930
 2.1917  16.70560
 2.1907  15.72180
 2.1898  15.58980
 2.1889  15.68060
 2.1880  15.49210
 2.1870  15.52850
 2.1861  15.63120
 2.1852  16.39790
 2.1843  16.68350
 2.1833  15.63110
 2.1824  15.35730
 2.1815  15.58190
 2.1806  15.67570
 2.1797  15.15530
 2.1788  14.85330
 2.1778  15.67500
 2.1769  15.88850
 2.1760  14.94180
 2.1751  14.34820
 2.1742  14.26720
 2.1733  14.60100
 2.1724  14.31690
 2.1715  13.73930
 2.1706  13.21800
 2.1696  12.91280
 2.1687  12.21140
 2.1678  12.23050
 2.1669  13.05070
 2.1660  13.36820
 2.1651  13.32670
 2.1642  13.16310
 2.1633  13.39520
 2.1624  14.24890
 2.1615  14.91200
 2.1606  14.92290
 2.1597  14.96430
 2.1588  14.73860
 2.1579  14.28180
 2.1570  14.84890
 2.1561  16.23770
 2.1552  16.72210
 2.1543  16.26800
 2.1534  16.07260
 2.1525  15.90900
 2.1517  15.20730
 2.1507  15.39280
 2.1499  15.78550
 2.1490  15.48720
 2.1481  15.60200
 2.1472  16.06660
 2.1463  15.93530
 2.1454  15.59470
 2.1445  16.08880
 2.1436  16.38750
 2.1428  15.87880
 2.1419  15.96880
 2.1410  16.13380
 2.1401  16.12960
 2.1392  16.33200
 2.1383  16.41510
 2.1375  15.82030
 2.1366  15.58040
 2.1357  15.96610
 2.1348  16.06110
 2.1339  16.21840
 2.1331  16.33890
 2.1322  16.62440
 2.1313  16.85970
 2.1304  16.89970
 2.1296  16.85290
 2.1287  16.45570
 2.1278  16.19100
 2.1269  16.17450
 2.1261  15.61450
 2.1252  15.33560
 2.1243  15.79900
 2.1235  16.21270
 2.1226  16.31730
 2.1217  17.01780
 2.1208  17.26020
 2.1200  16.80040
 2.1191  16.14160
 2.1183  16.13540
 2.1174  16.81730
 2.1165  16.86620
 2.1157  16.26320
 2.1148  16.18860
 2.1139  15.99370
 2.1131  15.92910
 2.1122  16.20440
 2.1113  15.97050
 2.1105  16.24920
 2.1096  16.64290
 2.1088  17.01140
 2.1079  16.69440
 2.1071  16.59160
 2.1062  16.36900
 2.1054  15.46690
 2.1045  15.99080
 2.1036  17.63880
 2.1028  17.42630
 2.1019  17.06520
 2.1011  16.66090
 2.1002  16.40970
 2.0994  16.64210
 2.0985  17.10490
 2.0977  15.93020
 2.0968  16.11170
 2.0960  16.53710
 2.0951  15.91820
 2.0943  16.02270
 2.0934  16.08940
 2.0926  15.31870
 2.0918  15.17240
 2.0909  15.33070
 2.0901  16.38580
 2.0892  16.71930
 2.0884  16.36370
 2.0875  15.98540
 2.0867  15.87040
 2.0859  16.15860
 2.0850  15.67470
 2.0842  16.13380
 2.0833  17.60740
 2.0825  16.88790
 2.0817  16.15560
 2.0808  16.38730
 2.0800  16.42130
 2.0792  16.26010
 2.0783  16.30690
 2.0775  17.10640
 2.0767  18.23100
 2.0759  17.81890
 2.0750  16.47610
 2.0742  16.49850
 2.0734  16.66740
 2.0725  15.97250
 2.0717  15.78900
 2.0709  17.29570
 2.0701  17.01510
 2.0692  15.37120
 2.0684  14.17190
 2.0676  15.54480
 2.0667  15.55130
 2.0659  14.09970
 2.0651  15.57260
 2.0643  16.84390
 2.0635  17.50530
 2.0626  18.25920
 2.0618  16.58990
 2.0610  15.77980
 2.0602  15.50620
 2.0594  15.58790
 2.0585  16.44800
 2.0577  16.34740
 2.0569  16.40270
 2.0561  16.45640
 2.0553  14.84050
 2.0545  14.61790
 2.0537  15.27790
 2.0528  15.30140
 2.0520  16.96810
 2.0512  19.39590
 2.0504  17.69570
 2.0496  14.98780
 2.0488  17.68170
 2.0480  19.55750
 2.0472  20.22070
 2.0464  19.95700
 2.0456  15.68290
 2.0447  12.98650
 2.0439  14.66280
 2.0431  16.76900
 2.0423  17.55780
 2.0415  16.60710
 2.0407  15.66310
 2.0399  15.54410
 2.0391  16.41560
 2.0383  16.96490
 2.0375  17.83420
 2.0367  17.63790
 2.0359  16.04100
 2.0351  15.45060
 2.0343  16.57060
 2.0335  16.87020
 2.0327  16.34120
 2.0319  16.05610
 2.0311  17.19300
 2.0303  16.67210
 2.0295  15.37800
 2.0287  14.79250
 2.0280  16.14000
 2.0272  17.12430
 2.0264  16.66350
 2.0256  16.39240
 2.0248  16.08940
 2.0240  16.16450
 2.0232  15.83480
 2.0224  15.20360
 2.0216  15.44140
 2.0208  14.77220
 2.0200  15.42400
 2.0193  17.46810
 2.0185  18.15670
 2.0177  16.85880
 2.0169  16.44170
 2.0161  16.04340
 2.0153  16.18530
 2.0146  16.59890
 2.0138  16.86910
 2.0130  16.36170
 2.0122  16.54110
 2.0114  17.27980
 2.0107  16.75350
 2.0099  16.36460
 2.0091  15.87930
 2.0083  16.33380
 2.0075  17.35500
 2.0068  17.61700
 2.0060  18.08820
 2.0052  18.73110
 2.0044  18.62570
 2.0037  16.89060
 2.0029  15.83520
 2.0021  17.03870
 2.0013  17.10360
 2.0006  16.70000
 1.9998  16.31770
