Name: Molybdenite MoS_2
Type: Mineral
Class: Sulfides
Subclass: 
Particle Size: 0-45um
Sample No.: S-11A
Owner: JPL
Wavelength range: IR
Origin: Norway, Arendal, Froland
Collected by JPL
Description: 





Measurement: Hemispherical reflectance
First Column: X
Second Column: Y
X Units:  Wavelength (micrometers)
Y Units:  Reflectance (percent)
First X Value: 15.3853
Last X Value: 2.00032
Number of X Values: 2256
Additional information: s11aa.txt
 
15.3853	31.3967
15.3397	31.6051
15.2945	31.5913
15.2495	31.3191
15.2048	31.0391
15.1603	31.0625
15.1161	31.3027
15.0722	31.4611
15.0285	31.5958
14.9851	31.1909
14.9419	31.2451
14.8989	31.4214
14.8563	31.2026
14.8138	31.1065
14.7716	31.0447
14.7296	31.1059
14.6879	31.3035
14.6464	31.6
14.6052	32.0936
14.5641	32.5301
14.5233	32.7651
14.4828	32.7394
14.4424	32.5238
14.4023	32.2206
14.3624	31.8528
14.3227	31.4498
14.2833	30.8695
14.244	30.5037
14.205	30.5327
14.1662	30.5606
14.1276	30.8929
14.0892	31.4292
14.051	31.828
14.0131	32.0478
13.9753	32.1008
13.9377	31.8293
13.9004	31.3436
13.8632	30.7632
13.8262	30.5033
13.7895	30.7825
13.7529	31.0227
13.7165	31.1262
13.6803	31.1183
13.6443	30.9545
13.6085	30.6458
13.5729	30.2393
13.5374	29.9666
13.5022	29.8865
13.4671	29.48
13.4322	29.0253
13.3975	29.0935
13.363	28.9935
13.3286	28.5677
13.2944	28.0426
13.2604	27.7186
13.2266	27.6242
13.193	27.5753
13.1595	27.4161
13.1262	27.2699
13.093	27.2232
13.06	27.0774
13.0272	27.349
12.9946	27.8975
12.9621	28.1922
12.9298	28.2382
12.8976	28.0321
12.8656	27.3409
12.8337	26.5069
12.8021	26.2275
12.7705	26.6453
12.7391	27.1409
12.7079	27.4516
12.6769	27.6593
12.6459	27.9907
12.6152	28.3939
12.5845	28.8123
12.5541	29.1707
12.5238	29.4529
12.4936	29.5864
12.4635	29.6946
12.4337	29.8907
12.4039	30.1017
12.3743	30.2827
12.3448	30.5266
12.3155	30.6838
12.2863	30.826
12.2573	30.7845
12.2284	30.6307
12.1996	30.5706
12.171	30.4484
12.1425	30.47
12.1141	31.0639
12.0859	32.0265
12.0578	32.8056
12.0298	33.3576
12.0019	33.5977
11.9742	33.727
11.9466	33.9115
11.9192	33.9799
11.8918	34.0932
11.8646	34.2966
11.8375	34.4417
11.8106	34.5242
11.7837	34.6249
11.757	34.655
11.7304	34.6653
11.7039	34.6051
11.6776	34.5378
11.6513	34.5712
11.6252	34.5098
11.5992	34.3471
11.5733	34.3248
11.5475	34.2851
11.5219	34.2545
11.4963	34.3051
11.4709	34.3897
11.4455	34.3196
11.4203	34.2207
11.3952	34.1782
11.3702	34.109
11.3454	34.0698
11.3206	34.0009
11.2959	33.7672
11.2714	33.5704
11.2469	33.4028
11.2226	33.1952
11.1983	32.8954
11.1742	32.5312
11.1502	32.3678
11.1263	32.1995
11.1024	32.0057
11.0787	31.9244
11.0551	31.8537
11.0316	31.7494
11.0081	31.7426
10.9848	31.8056
10.9616	31.7778
10.9385	31.7337
10.9154	31.8827
10.8925	32.0971
10.8697	32.3087
10.8469	32.4996
10.8243	32.7091
10.8017	32.8206
10.7793	32.893
10.7569	32.9126
10.7346	32.9381
10.7125	32.9211
10.6904	32.8724
10.6684	32.6918
10.6465	32.6907
10.6247	32.7883
10.6029	32.7728
10.5813	32.8545
10.5597	32.9474
10.5383	32.9483
10.5169	33.1051
10.4956	33.2678
10.4744	33.2537
10.4533	33.311
10.4323	33.4203
10.4113	33.5003
10.3904	33.5727
10.3697	33.727
10.349	33.923
10.3284	34.0391
10.3078	34.0718
10.2874	34.0675
10.267	34.1692
10.2467	34.1225
10.2265	34.0513
10.2064	34.0266
10.1863	33.892
10.1663	33.6529
10.1464	33.3593
10.1266	33.1131
10.1069	32.9394
10.0872	32.8275
10.0676	32.6873
10.0481	32.5662
10.0287	32.4217
10.0093	32.1936
9.99005	31.9994
9.97084	31.9813
9.95169	31.9259
9.93263	31.8454
9.91364	31.7894
9.89472	31.7532
9.87587	31.6755
9.8571	31.5117
9.83839	31.4174
9.81976	31.3343
9.80119	31.2475
9.78271	31.1204
9.76428	31.1036
9.74592	31.0932
9.72764	31.0079
9.70943	30.8591
9.69128	30.7455
9.6732	30.6495
9.65518	30.7019
9.63724	30.8145
9.61935	30.7578
9.60155	30.7705
9.5838	30.9178
9.56611	30.9332
9.5485	30.9755
9.53094	31.1819
9.51345	31.2851
9.49604	31.2575
9.47867	31.2695
9.46137	31.3115
9.44414	31.4268
9.42697	31.5507
9.40986	31.504
9.39281	31.5274
9.37583	31.7742
9.35891	32.0164
9.34204	32.2214
9.32524	32.329
9.3085	32.3376
9.29182	32.3534
9.27519	32.347
9.25863	32.2823
9.24213	32.2651
9.22568	32.2647
9.2093	32.266
9.19297	32.3279
9.17669	32.3232
9.16048	32.23
9.14433	32.3524
9.12823	32.4869
9.11218	32.5277
9.0962	32.5765
9.08027	32.5098
9.06439	32.4293
9.04858	32.5348
9.03281	32.6314
9.0171	32.5973
9.00145	32.6291
8.98585	32.6636
8.9703	32.7072
8.9548	32.7993
8.93937	32.874
8.92398	33.0184
8.90865	33.2136
8.89337	33.2892
8.87814	33.3941
8.86296	33.6448
8.84784	33.8918
8.83277	34.0131
8.81774	34.0825
8.80277	34.1484
8.78786	34.3127
8.77298	34.4784
8.75816	34.6346
8.7434	34.7071
8.72868	34.8611
8.714	35.0046
8.69938	35.1397
8.68481	35.2839
8.67029	35.419
8.65581	35.4423
8.64139	35.3902
8.62701	35.3347
8.61268	35.3514
8.5984	35.5185
8.58416	35.8254
8.56997	36.1895
8.55583	36.3202
8.54174	36.3986
8.52769	36.5907
8.51368	36.819
8.49973	37.0193
8.48582	37.1648
8.47195	37.2084
8.45813	37.2914
8.44436	37.3712
8.43062	37.4849
8.41693	37.658
8.4033	37.8632
8.3897	37.9786
8.37614	38.0394
8.36264	38.1958
8.34917	38.4011
8.33574	38.5374
8.32236	38.7778
8.30903	39.0077
8.29573	39.1831
8.28248	39.3911
8.26927	39.566
8.2561	39.7093
8.24298	39.9662
8.2299	40.2401
8.21685	40.5542
8.20385	40.7969
8.19089	41.0859
8.17797	41.4673
8.16509	41.8499
8.15225	42.1692
8.13946	42.4034
8.1267	42.6714
8.11398	42.9925
8.10131	43.251
8.08867	43.5733
8.07606	43.9355
8.0635	44.2507
8.05099	44.5347
8.0385	44.868
8.02606	45.2143
8.01366	45.4999
8.00129	45.8189
7.98896	46.1511
7.97667	46.4457
7.96442	46.7385
7.9522	47.011
7.94002	47.2654
7.92788	47.5352
7.91578	47.8165
7.90371	48.0381
7.89168	48.2684
7.87969	48.3888
7.86773	48.5649
7.85581	48.7175
7.84392	48.8544
7.83207	48.9881
7.82026	49.0834
7.80849	49.1897
7.79674	49.3592
7.78503	49.5483
7.77337	49.7333
7.76173	49.9006
7.75012	50.015
7.73856	50.1388
7.72703	50.3182
7.71553	50.3878
7.70406	50.4469
7.69263	50.604
7.68123	50.7197
7.66987	50.7613
7.65855	50.8633
7.64725	50.9621
7.63598	51.0428
7.62475	51.125
7.61356	51.1973
7.60239	51.1951
7.59126	51.2782
7.58017	51.4015
7.5691	51.5554
7.55806	51.6431
7.54707	51.7618
7.5361	51.9359
7.52516	52.0943
7.51425	52.1483
7.50338	52.1742
7.49253	52.1825
7.48172	52.3392
7.47094	52.4961
7.46019	52.4993
7.44947	52.2645
7.43879	52.1181
7.42813	52.0572
7.4175	52.0596
7.4069	52.068
7.39634	52.054
7.3858	51.9786
7.37529	51.964
7.36482	51.9695
7.35437	52.032
7.34396	52.1581
7.33357	52.0752
7.32321	51.7595
7.31288	51.682
7.30258	51.5936
7.29231	51.487
7.28207	51.5758
7.27185	51.5426
7.26167	51.2503
7.25152	51.081
7.24139	51.01
7.23129	51.0331
7.22122	51.0386
7.21117	51.2794
7.20116	51.0902
7.19117	50.6701
7.18121	50.6527
7.17128	50.8265
7.16137	50.4239
7.1515	50.1783
7.14164	49.8196
7.13182	49.1861
7.12203	48.9237
7.11225	48.64
7.10251	48.1023
7.0928	47.6567
7.08311	47.2742
7.07344	46.9609
7.06381	46.8702
7.0542	47.2941
7.04461	47.4529
7.03506	46.5508
7.02552	46.2174
7.01601	46.1412
7.00653	45.9277
6.99708	46.1207
6.98765	46.1892
6.97824	46.1544
6.96886	46.6708
6.95951	47.3102
6.95018	46.6789
6.94087	46.4359
6.9316	46.5739
6.92234	46.6717
6.91311	46.957
6.90391	47.1918
6.89473	47.0542
6.88557	47.1458
6.87644	47.7036
6.86733	49.3257
6.85824	49.4841
6.84918	48.3065
6.84015	47.9982
6.83114	48.6431
6.82215	48.9744
6.81319	48.9543
6.80424	49.6718
6.79532	51.2449
6.78643	52.1493
6.77756	51.9736
6.76871	51.8148
6.75989	51.7913
6.75109	52.1701
6.74231	52.2895
6.73355	52.5169
6.72482	52.9647
6.71611	53.4787
6.70742	53.5345
6.69875	53.056
6.69011	53.4641
6.68149	54.2102
6.67289	53.8774
6.66431	53.3204
6.65576	53.1231
6.64722	54.2295
6.63871	55.9133
6.63022	55.045
6.62175	53.6267
6.61331	53.2052
6.60488	52.9327
6.59648	53.2861
6.5881	53.4378
6.57974	53.8438
6.5714	54.3367
6.56308	53.3941
6.55478	53.0618
6.54651	52.7427
6.53825	52.3462
6.53001	52.4691
6.5218	53.1529
6.51361	52.7784
6.50544	53.1228
6.49729	55.0228
6.48915	55.1501
6.48104	53.8946
6.47295	53.1245
6.46488	52.3823
6.45683	52.1748
6.4488	52.196
6.44079	52.2765
6.4328	52.6327
6.42482	53.1528
6.41687	54.9026
6.40894	54.1303
6.40103	51.5887
6.39314	50.9124
6.38526	50.7438
6.37741	50.778
6.36957	50.8046
6.36176	49.9612
6.35396	49.93
6.34618	50.8998
6.33843	50.0637
6.33069	48.798
6.32297	48.4427
6.31527	48.1734
6.30758	47.8925
6.29992	47.611
6.29227	47.3961
6.28465	47.1544
6.27704	46.915
6.26945	46.6823
6.26188	46.3844
6.25432	46.0242
6.24679	45.7717
6.23927	45.6096
6.23177	45.4209
6.22429	45.23
6.21683	45.0556
6.20938	44.7769
6.20195	44.6298
6.19454	44.882
6.18715	45.6553
6.17978	45.0877
6.17242	44.3128
6.16508	44.6851
6.15776	44.8596
6.15045	44.5772
6.14317	44.6164
6.1359	44.4629
6.12864	44.3599
6.12141	45.1084
6.11419	46.2116
6.10699	45.5068
6.0998	44.6783
6.09263	44.5677
6.08549	44.7334
6.07835	45.6429
6.07123	46.122
6.06413	45.4669
6.05705	46.1635
6.04998	48.2182
6.04293	46.9755
6.0359	45.2632
6.02888	44.9163
6.02187	45.1452
6.01489	45.5601
6.00792	45.2333
6.00096	45.061
5.99403	45.7657
5.98711	46.0532
5.9802	45.5554
5.97331	45.8263
5.96644	46.0566
5.95958	45.4143
5.95274	45.3884
5.94591	45.9139
5.9391	47.4107
5.9323	47.0218
5.92552	45.8024
5.91876	45.7205
5.91201	45.7191
5.90528	46.1464
5.89856	47.5153
5.89186	47.4484
5.88517	47.9672
5.8785	48.2305
5.87184	46.7458
5.8652	46.66
5.85857	46.5852
5.85196	46.3959
5.84536	46.4082
5.83878	46.839
5.83221	47.6349
5.82566	48.8501
5.81912	49.1471
5.81259	48.2391
5.80608	48.0436
5.79959	48.2977
5.79311	48.4884
5.78665	48.9344
5.78019	49.3959
5.77376	50.3159
5.76734	51.7118
5.76093	51.0491
5.75453	50.4971
5.74815	51.1006
5.74179	51.0351
5.73543	51.1584
5.7291	51.4107
5.72277	51.8233
5.71646	52.4295
5.71017	52.8968
5.70389	52.5106
5.69762	52.5148
5.69136	52.9547
5.68513	53.0305
5.6789	53.4618
5.67268	53.6693
5.66648	53.4784
5.6603	53.9332
5.65413	54.3266
5.64797	54.7416
5.64182	55.3614
5.63569	54.8161
5.62957	54.3587
5.62347	54.3863
5.61737	54.6089
5.61129	54.7417
5.60522	54.9091
5.59917	54.9546
5.59313	54.8925
5.5871	55.3829
5.58109	56.163
5.57509	56.1527
5.5691	55.7375
5.56312	55.8304
5.55716	56.1495
5.55121	56.3497
5.54528	56.2706
5.53935	56.3286
5.53344	56.497
5.52754	56.7738
5.52166	56.9906
5.51578	57.0849
5.50992	57.1294
5.50407	57.3241
5.49823	57.3701
5.49241	57.4754
5.4866	57.7338
5.4808	58.1346
5.47501	58.1537
5.46923	58.3596
5.46347	58.5589
5.45772	58.2541
5.45198	58.1298
5.44625	58.1791
5.44054	58.1819
5.43484	58.1908
5.42914	58.4836
5.42347	59.079
5.4178	58.6875
5.41214	58.0947
5.4065	57.8871
5.40087	57.7133
5.39525	57.5546
5.38964	57.3454
5.38404	57.1928
5.37846	57.0794
5.37288	56.9502
5.36732	56.9111
5.36177	56.963
5.35623	57.1481
5.35071	57.4151
5.34519	57.1507
5.33968	56.8182
5.33419	56.8571
5.32871	56.9518
5.32324	57.0235
5.31778	57.0761
5.31233	57.0596
5.30689	57.0408
5.30147	57.1593
5.29605	57.3861
5.29065	57.5262
5.28525	57.4265
5.27987	57.5191
5.2745	57.7019
5.26914	57.7778
5.26379	57.9178
5.25845	58.0869
5.25312	58.1907
5.24781	58.2865
5.2425	58.4271
5.23721	58.6475
5.23192	58.7631
5.22665	58.8614
5.22138	59.0406
5.21613	59.3642
5.21089	59.3823
5.20566	59.2851
5.20044	59.3239
5.19522	59.2485
5.19002	59.2424
5.18483	59.2873
5.17965	59.3153
5.17448	59.2996
5.16933	59.2368
5.16418	59.2116
5.15904	59.2209
5.15391	59.287
5.14879	59.4594
5.14368	59.451
5.13859	59.3155
5.1335	59.2809
5.12842	59.278
5.12335	59.3016
5.1183	59.3465
5.11325	59.3379
5.10821	59.2423
5.10318	59.2607
5.09817	59.2278
5.09316	59.2221
5.08816	59.2945
5.08317	59.3134
5.07819	59.1945
5.07322	59.1067
5.06826	59.0742
5.06331	59.0926
5.05837	59.0904
5.05344	59.0851
5.04852	59.0772
5.04361	59.0668
5.03871	59.0689
5.03382	59.084
5.02894	59.0666
5.02406	59.1358
5.0192	59.2279
5.01435	59.1743
5.0095	59.1321
5.00467	59.1273
4.99984	59.0946
4.99502	59.0968
4.99021	59.1367
4.98542	59.2186
4.98063	59.3168
4.97585	59.4282
4.97108	59.5154
4.96632	59.5755
4.96156	59.698
4.95682	59.8601
4.95209	59.8649
4.94736	59.8575
4.94264	59.8788
4.93794	59.8566
4.93324	59.8395
4.92855	59.9401
4.92387	60.0487
4.9192	60.0937
4.91453	60.1565
4.90988	60.2405
4.90524	60.3344
4.9006	60.4355
4.89597	60.5223
4.89135	60.6599
4.88674	60.6713
4.88214	60.6606
4.87755	60.7113
4.87296	60.8417
4.86839	60.8819
4.86382	60.886
4.85926	60.8752
4.85471	60.8807
4.85017	60.886
4.84564	60.9608
4.84111	60.9862
4.8366	61.0109
4.83209	61.0651
4.82759	61.0719
4.8231	61.0181
4.81862	61.0205
4.81415	61.0244
4.80968	61.0292
4.80522	61.0676
4.80077	61.1014
4.79633	61.0923
4.7919	61.091
4.78747	61.1029
4.78306	61.0746
4.77865	61.0414
4.77425	61.0853
4.76986	61.1385
4.76547	61.125
4.7611	61.0839
4.75673	61.096
4.75237	61.1443
4.74802	61.1173
4.74367	61.0784
4.73934	61.0883
4.73501	61.1261
4.73069	61.0909
4.72638	61.0289
4.72207	61.0404
4.71777	61.0715
4.71348	61.0982
4.7092	61.0625
4.70493	61.0512
4.70066	61.0658
4.69641	61.0592
4.69216	61.0408
4.68791	61.0404
4.68368	61.0218
4.67945	61.0499
4.67523	61.0814
4.67102	61.113
4.66682	61.1028
4.66262	61.0665
4.65843	61.0403
4.65425	61.0363
4.65007	61.0329
4.64591	61.0368
4.64175	61.044
4.6376	61.0466
4.63345	61.1021
4.62932	61.132
4.62519	61.1017
4.62106	61.0501
4.61695	61.0545
4.61284	61.0977
4.60874	61.0999
4.60465	61.0765
4.60056	61.0771
4.59648	61.054
4.59241	61.013
4.58835	60.9872
4.58429	61.0134
4.58024	61.0237
4.5762	61.0282
4.57216	61.0211
4.56814	60.961
4.56411	60.9173
4.5601	60.9211
4.55609	60.9768
4.55209	60.9591
4.5481	60.9085
4.54411	60.8938
4.54013	60.8836
4.53616	60.8958
4.5322	60.924
4.52824	60.8906
4.52429	60.8546
4.52034	60.828
4.51641	60.7497
4.51247	60.6611
4.50855	60.6837
4.50463	60.7009
4.50072	60.6416
4.49682	60.5911
4.49292	60.6688
4.48903	60.6452
4.48515	60.5381
4.48127	60.5487
4.4774	60.5675
4.47354	60.561
4.46968	60.5344
4.46584	60.5503
4.46199	60.5611
4.45815	60.5033
4.45432	60.4925
4.4505	60.479
4.44668	60.4625
4.44287	60.4085
4.43907	60.3561
4.43527	60.3523
4.43148	60.4004
4.4277	60.4385
4.42392	60.3921
4.42015	60.3425
4.41638	60.313
4.41262	60.2716
4.40887	60.3392
4.40513	60.3814
4.40139	60.3126
4.39765	60.2867
4.39393	60.2978
4.39021	60.2861
4.38649	60.2499
4.38278	60.2406
4.37908	60.2938
4.37539	60.3286
4.3717	60.3211
4.36801	60.2263
4.36434	60.1953
4.36067	60.1325
4.357	60.1096
4.35335	60.1038
4.34969	60.0572
4.34605	59.9735
4.34241	59.9408
4.33877	59.9281
4.33514	59.8726
4.33152	59.7938
4.32791	59.7149
4.3243	59.6441
4.32069	59.476
4.3171	59.3252
4.31351	59.1916
4.30992	58.9663
4.30634	58.7732
4.30277	58.6787
4.2992	58.6335
4.29564	58.532
4.29208	58.3616
4.28853	58.2397
4.28499	58.1358
4.28145	58.0182
4.27792	57.9703
4.27439	57.9373
4.27087	57.9737
4.26735	58.1895
4.26384	58.4852
4.26034	58.8064
4.25684	58.9853
4.25335	58.7234
4.24986	58.2386
4.24638	57.8493
4.24291	57.5193
4.23944	57.2313
4.23598	57.1196
4.23252	57.0632
4.22906	57.0397
4.22562	57.162
4.22218	57.4576
4.21874	57.7865
4.21531	58.1167
4.21189	58.3313
4.20847	58.5481
4.20506	58.7982
4.20165	58.9438
4.19825	59.0056
4.19485	59.0263
4.19146	58.9603
4.18807	58.9343
4.18469	58.9487
4.18132	58.9512
4.17795	58.9004
4.17458	58.8764
4.17123	58.8375
4.16787	58.8229
4.16453	58.7941
4.16118	58.7605
4.15785	58.7425
4.15451	58.7335
4.15119	58.696
4.14787	58.6813
4.14455	58.6388
4.14124	58.5903
4.13794	58.5103
4.13464	58.454
4.13134	58.4056
4.12805	58.3577
4.12477	58.321
4.12149	58.2996
4.11822	58.3308
4.11495	58.3304
4.11168	58.2749
4.10843	58.2298
4.10517	58.1809
4.10192	58.1171
4.09868	58.0929
4.09545	58.0872
4.09221	58.0578
4.08899	58.0154
4.08576	57.9216
4.08255	57.8579
4.07933	57.9525
4.07613	57.9854
4.07292	57.9121
4.06973	57.8055
4.06654	57.7467
4.06335	57.7392
4.06017	57.7004
4.05699	57.6082
4.05382	57.5969
4.05065	57.6374
4.04749	57.5867
4.04433	57.544
4.04118	57.5346
4.03803	57.4523
4.03489	57.4154
4.03175	57.408
4.02862	57.4062
4.02549	57.3848
4.02237	57.3534
4.01925	57.3544
4.01614	57.2526
4.01303	57.1594
4.00993	57.1094
4.00683	57.1182
4.00373	57.1132
4.00064	57.1195
3.99756	57.1203
3.99448	57.01
3.9914	56.8939
3.98833	56.886
3.98527	56.9696
3.98221	56.9702
3.97915	56.8667
3.9761	56.8085
3.97305	56.8101
3.97001	56.7957
3.96697	56.7346
3.96394	56.6658
3.96091	56.645
3.95789	56.6275
3.95487	56.5968
3.95186	56.5882
3.94885	56.5527
3.94584	56.5119
3.94284	56.4894
3.93984	56.4554
3.93685	56.4424
3.93386	56.4268
3.93088	56.3662
3.9279	56.306
3.92493	56.2892
3.92196	56.2743
3.919	56.2755
3.91604	56.2272
3.91308	56.149
3.91013	56.0845
3.90718	56.0423
3.90424	56.0731
3.9013	56.0353
3.89837	55.9924
3.89544	55.9596
3.89252	55.9355
3.8896	55.9468
3.88668	55.8591
3.88377	55.7941
3.88086	55.7957
3.87796	55.767
3.87506	55.7099
3.87217	55.6525
3.86928	55.6373
3.86639	55.6332
3.86351	55.5748
3.86064	55.5319
3.85776	55.5013
3.8549	55.4613
3.85203	55.365
3.84917	55.3515
3.84631	55.3759
3.84346	55.302
3.84062	55.2057
3.83777	55.1747
3.83494	55.1335
3.8321	55.0862
3.82927	55.0642
3.82644	54.9785
3.82362	54.9553
3.82081	54.9543
3.81799	54.9351
3.81518	54.8992
3.81238	54.8335
3.80958	54.7843
3.80678	54.727
3.80399	54.633
3.8012	54.6118
3.79841	54.5847
3.79563	54.5033
3.79286	54.4896
3.79008	54.4532
3.78731	54.3798
3.78455	54.3425
3.78179	54.2444
3.77903	54.1362
3.77628	54.1022
3.77353	54.1349
3.77079	54.129
3.76805	54.0359
3.76531	53.9695
3.76258	53.9791
3.75985	53.9423
3.75713	53.8204
3.7544	53.7412
3.75169	53.7403
3.74898	53.7178
3.74627	53.6452
3.74356	53.6031
3.74086	53.6278
3.73816	53.5147
3.73547	53.4119
3.73278	53.4011
3.7301	53.3527
3.72741	53.3476
3.72474	53.2692
3.72206	53.1875
3.71939	53.2018
3.71673	53.1864
3.71406	53.1331
3.71141	53.0146
3.70875	52.9264
3.7061	52.933
3.70345	52.9647
3.70081	52.866
3.69817	52.7511
3.69553	52.644
3.6929	52.5914
3.69027	52.5674
3.68765	52.5394
3.68503	52.4779
3.68241	52.3741
3.6798	52.2732
3.67719	52.2372
3.67458	52.234
3.67198	52.1726
3.66938	52.0723
3.66678	51.9494
3.66419	51.8108
3.66161	51.7968
3.65902	51.8537
3.65644	51.7711
3.65387	51.6473
3.65129	51.5873
3.64872	51.5117
3.64616	51.4303
3.64359	51.3348
3.64103	51.2609
3.63848	51.2209
3.63593	51.1325
3.63338	51.0489
3.63084	50.9814
3.6283	50.9682
3.62576	50.8913
3.62322	50.8259
3.62069	50.8055
3.61817	50.7115
3.61564	50.5872
3.61312	50.519
3.61061	50.4971
3.6081	50.4185
3.60559	50.265
3.60308	50.2636
3.60058	50.3012
3.59808	50.1851
3.59558	50.0432
3.59309	49.981
3.59061	49.8954
3.58812	49.8185
3.58564	49.7243
3.58316	49.581
3.58069	49.4851
3.57822	49.4795
3.57575	49.4042
3.57328	49.279
3.57082	49.2169
3.56836	49.1124
3.56591	48.9707
3.56346	48.8968
3.56101	48.9056
3.55857	48.809
3.55613	48.6815
3.55369	48.5787
3.55126	48.5021
3.54883	48.3998
3.5464	48.3174
3.54397	48.2098
3.54155	48.0345
3.53914	47.9067
3.53672	47.7538
3.53431	47.5377
3.5319	47.3429
3.5295	47.1873
3.5271	46.892
3.5247	46.5203
3.52231	46.1605
3.51991	45.6918
3.51753	45.1894
3.51514	44.8322
3.51276	44.5791
3.51038	44.4468
3.50801	44.3818
3.50563	44.4025
3.50327	44.4011
3.5009	44.4482
3.49854	44.643
3.49618	44.7762
3.49382	44.7529
3.49147	44.7867
3.48912	44.8241
3.48677	44.8379
3.48443	44.812
3.48209	44.8662
3.47975	44.8425
3.47742	44.8145
3.47509	44.7932
3.47276	44.648
3.47044	44.5303
3.46812	44.5363
3.4658	44.4727
3.46348	44.341
3.46117	44.2603
3.45886	44.147
3.45656	43.913
3.45425	43.6324
3.45195	43.4515
3.44966	43.1997
3.44736	42.8689
3.44507	42.5452
3.44279	42.1884
3.4405	41.8235
3.43822	41.4609
3.43594	41.0199
3.43367	40.5189
3.43139	39.9644
3.42912	39.4391
3.42686	39.0716
3.42459	38.9726
3.42233	39.1303
3.42007	39.4552
3.41782	39.798
3.41557	40.1144
3.41332	40.442
3.41108	40.7442
3.40883	40.9374
3.40659	41.0492
3.40435	41.1876
3.40212	41.2731
3.39989	41.2814
3.39766	41.2728
3.39544	41.2489
3.39322	41.2127
3.391	41.1061
3.38878	41.0583
3.38657	41.0693
3.38436	41.1049
3.38215	41.2151
3.37994	41.2991
3.37774	41.4222
3.37554	41.5139
3.37335	41.5508
3.37115	41.7012
3.36896	41.9517
3.36678	42.1487
3.36459	42.2547
3.36241	42.3636
3.36023	42.3523
3.35805	42.4286
3.35588	42.4937
3.35371	42.5493
3.35154	42.5283
3.34938	42.5004
3.34721	42.5594
3.34505	42.5306
3.3429	42.3865
3.34074	42.3309
3.33859	42.3714
3.33644	42.3669
3.3343	42.287
3.33215	42.1777
3.33001	42.0919
3.32788	41.988
3.32574	41.9468
3.32361	41.9051
3.32148	41.8704
3.31936	41.8362
3.31723	41.7879
3.31511	41.6944
3.31299	41.5898
3.31088	41.4482
3.30876	41.3855
3.30665	41.4766
3.30455	41.4782
3.30244	41.4016
3.30034	41.2637
3.29824	41.1676
3.29614	41.0843
3.29405	40.9705
3.29196	40.8846
3.28987	40.9465
3.28778	40.9206
3.2857	40.8585
3.28362	40.7801
3.28154	40.6848
3.27946	40.6055
3.27739	40.484
3.27532	40.3666
3.27325	40.2771
3.27119	40.2855
3.26913	40.346
3.26707	40.3261
3.26501	40.1696
3.26295	40.0707
3.2609	40.0897
3.25885	40.065
3.2568	39.9882
3.25476	39.8926
3.25272	39.8139
3.25068	39.7734
3.24864	39.7985
3.24661	39.7358
3.24458	39.6537
3.24255	39.5806
3.24052	39.5473
3.2385	39.6212
3.23648	39.6226
3.23446	39.5499
3.23244	39.4551
3.23043	39.3762
3.22841	39.3645
3.2264	39.3661
3.2244	39.2953
3.22239	39.2554
3.22039	39.1762
3.21839	39.068
3.2164	38.9527
3.2144	38.8936
3.21241	38.9063
3.21042	38.9408
3.20844	38.9264
3.20645	38.9115
3.20447	38.8663
3.20249	38.8002
3.20051	38.6927
3.19854	38.6953
3.19657	38.6689
3.1946	38.6265
3.19263	38.6179
3.19067	38.6156
3.1887	38.4843
3.18674	38.4456
3.18479	38.4739
3.18283	38.4546
3.18088	38.3831
3.17893	38.2446
3.17698	38.1569
3.17504	38.0579
3.17309	38.0123
3.17115	38.0276
3.16921	37.9565
3.16728	37.9557
3.16534	37.9825
3.16341	37.8892
3.16148	37.8508
3.15956	37.862
3.15763	37.7217
3.15571	37.6944
3.15379	37.7101
3.15187	37.5908
3.14996	37.5038
3.14805	37.5345
3.14614	37.552
3.14423	37.4444
3.14232	37.4249
3.14042	37.4303
3.13852	37.3648
3.13662	37.3448
3.13472	37.3212
3.13283	37.3419
3.13094	37.3778
3.12905	37.3469
3.12716	37.2979
3.12528	37.2859
3.12339	37.2509
3.12151	37.215
3.11964	37.2321
3.11776	37.2265
3.11589	37.2082
3.11401	37.1081
3.11214	37.0768
3.11028	37.0412
3.10841	37.0234
3.10655	37.0737
3.10469	37.0365
3.10283	37.0671
3.10098	37.1675
3.09912	37.1042
3.09727	37.1284
3.09542	37.2733
3.09358	37.2874
3.09173	37.1372
3.08989	37.0365
3.08805	37.0132
3.08621	37.1668
3.08437	37.2374
3.08254	37.218
3.08071	37.3145
3.07888	37.332
3.07705	37.2098
3.07523	37.2321
3.0734	37.2426
3.07158	37.2297
3.06977	37.2528
3.06795	37.2955
3.06613	37.2832
3.06432	37.3541
3.06251	37.3805
3.0607	37.3916
3.0589	37.3921
3.0571	37.3721
3.05529	37.3612
3.05349	37.5344
3.0517	37.676
3.0499	37.6394
3.04811	37.6629
3.04632	37.6923
3.04453	37.7609
3.04274	37.7824
3.04096	37.7351
3.03918	37.8142
3.0374	37.9302
3.03562	37.9512
3.03384	37.9383
3.03207	38.0089
3.03029	38.1273
3.02852	38.1735
3.02676	38.0977
3.02499	38.1236
3.02323	38.2191
3.02146	38.2774
3.0197	38.2254
3.01795	38.3016
3.01619	38.4509
3.01444	38.4428
3.01269	38.4306
3.01094	38.3799
3.00919	38.3445
3.00744	38.3319
3.0057	38.4478
3.00396	38.6752
3.00222	38.695
3.00048	38.6213
2.99875	38.599
2.99701	38.7155
2.99528	38.7669
2.99355	38.6586
2.99183	38.682
2.9901	38.7256
2.98838	38.7171
2.98666	38.7391
2.98494	38.804
2.98322	38.9045
2.9815	38.7445
2.97979	38.7699
2.97808	38.8865
2.97637	38.8332
2.97466	38.7555
2.97295	38.6558
2.97125	38.7372
2.96955	38.8502
2.96785	38.8178
2.96615	38.8248
2.96446	38.8367
2.96276	38.8806
2.96107	38.9049
2.95938	38.9583
2.95769	38.9729
2.95601	38.8571
2.95432	38.8606
2.95264	38.8567
2.95096	38.7393
2.94928	38.7071
2.9476	38.793
2.94593	38.8692
2.94425	38.8613
2.94258	38.9274
2.94092	38.919
2.93925	38.8723
2.93758	38.8761
2.93592	38.9947
2.93426	39.0776
2.9326	39.034
2.93094	38.9802
2.92928	39.0635
2.92763	39.1881
2.92598	39.2448
2.92433	39.2874
2.92268	39.3351
2.92103	39.4189
2.91939	39.362
2.91775	39.3616
2.9161	39.376
2.91447	39.4326
2.91283	39.5525
2.91119	39.6843
2.90956	39.7697
2.90793	39.6626
2.9063	39.6501
2.90467	39.8025
2.90304	39.7981
2.90142	39.8455
2.89979	39.843
2.89817	39.9521
2.89656	40.1449
2.89494	40.1597
2.89332	40.1001
2.89171	40.0575
2.8901	40.0999
2.88849	40.17
2.88688	40.1676
2.88527	40.2643
2.88367	40.4343
2.88206	40.4449
2.88046	40.5027
2.87886	40.5914
2.87727	40.5985
2.87567	40.6326
2.87408	40.6398
2.87248	40.6982
2.87089	40.8032
2.8693	40.7797
2.86772	40.91
2.86613	41.0366
2.86455	41.0384
2.86297	41.043
2.86139	41.1066
2.85981	41.1329
2.85823	41.1956
2.85666	41.3778
2.85508	41.5441
2.85351	41.6227
2.85194	41.5757
2.85038	41.6325
2.84881	41.7298
2.84724	41.8034
2.84568	41.754
2.84412	41.7685
2.84256	41.9034
2.841	42.0292
2.83945	42.0059
2.83789	42.1258
2.83634	42.3624
2.83479	42.5695
2.83324	42.6001
2.83169	42.522
2.83015	42.5769
2.82861	42.6769
2.82706	42.7263
2.82552	42.7803
2.82398	42.8768
2.82245	43.0551
2.82091	43.2998
2.81938	43.3492
2.81784	43.2894
2.81631	43.4307
2.81479	43.4179
2.81326	43.3563
2.81173	43.5035
2.81021	43.7514
2.80869	43.9226
2.80716	44.0949
2.80565	44.2927
2.80413	44.714
2.80261	44.9103
2.8011	44.6058
2.79959	44.5167
2.79808	44.5498
2.79657	44.6285
2.79506	44.744
2.79355	44.8951
2.79205	45.0156
2.79055	45.1358
2.78904	45.4667
2.78754	45.9959
2.78605	45.9809
2.78455	45.6512
2.78306	45.6875
2.78156	45.8189
2.78007	45.8229
2.77858	45.9961
2.77709	46.2872
2.77561	46.3276
2.77412	46.3157
2.77264	46.546
2.77116	47.0339
2.76968	47.0581
2.7682	47.0402
2.76672	47.0254
2.76524	47.012
2.76377	47.3386
2.7623	47.3259
2.76083	47.1211
2.75936	47.3208
2.75789	47.7646
2.75642	49.0511
2.75496	49.6134
2.7535	48.726
2.75203	48.5764
2.75057	48.7027
2.74912	48.7685
2.74766	49.0033
2.7462	49.3233
2.74475	49.6386
2.7433	50.0697
2.74185	51.0315
2.7404	51.9537
2.73895	51.815
2.7375	51.1203
2.73606	51.3951
2.73462	51.92
2.73318	51.7754
2.73174	51.921
2.7303	52.1266
2.72886	52.3433
2.72742	52.9067
2.72599	53.9674
2.72456	54.8749
2.72313	54.6299
2.7217	55.4558
2.72027	56.5257
2.71884	55.6243
2.71742	55.2418
2.71599	55.2277
2.71457	55.5374
2.71315	56.0398
2.71173	57.2552
2.71032	57.5879
2.7089	57.047
2.70748	56.7071
2.70607	56.5605
2.70466	56.5888
2.70325	56.8982
2.70184	57.6186
2.70043	57.9178
2.69903	57.8475
2.69762	58.126
2.69622	58.8114
2.69482	59.7378
2.69342	60.0014
2.69202	59.3543
2.69062	59.2533
2.68923	59.5448
2.68783	59.8373
2.68644	60.016
2.68505	60.1584
2.68366	60.4119
2.68227	60.1823
2.68089	60.2248
2.6795	61.0737
2.67812	61.4318
2.67673	61.8695
2.67535	61.3412
2.67397	60.6955
2.6726	60.8815
2.67122	62.6852
2.66984	62.9175
2.66847	61.7823
2.6671	62.734
2.66572	62.9684
2.66435	62.0587
2.66299	60.9661
2.66162	61.0064
2.66025	61.0977
2.65889	61.014
2.65753	60.6464
2.65616	61.0174
2.65481	61.0212
2.65345	61.1753
2.65209	61.2726
2.65073	60.8547
2.64938	60.7064
2.64803	60.8909
2.64667	61.0758
2.64532	61.0523
2.64397	60.7492
2.64263	60.8626
2.64128	60.8353
2.63994	60.6519
2.63859	60.5714
2.63725	60.6046
2.63591	60.7277
2.63457	61.1151
2.63323	61.157
2.6319	61.6054
2.63056	62.5108
2.62923	61.7108
2.62789	61.5128
2.62656	62.0613
2.62523	61.2359
2.6239	60.7092
2.62258	60.7989
2.62125	61.89
2.61993	62.121
2.6186	61.4678
2.61728	62.2372
2.61596	61.9482
2.61464	60.9582
2.61332	60.9777
2.61201	61.0003
2.61069	61.2576
2.60938	61.5141
2.60807	61.6715
2.60675	62.3227
2.60544	62.8491
2.60414	62.1582
2.60283	61.6363
2.60152	61.407
2.60022	60.9919
2.59891	60.7273
2.59761	61.2116
2.59631	62.7541
2.59501	64.4517
2.59371	63.0249
2.59242	61.2513
2.59112	60.9122
2.58983	61.1544
2.58853	61.4435
2.58724	61.7139
2.58595	61.4713
2.58466	62.054
2.58338	62.138
2.58209	61.4166
2.5808	61.2729
2.57952	60.7382
2.57824	60.9698
2.57695	61.4572
2.57567	61.145
2.5744	61.4289
2.57312	61.7566
2.57184	60.9823
2.57057	61.1962
2.56929	61.4263
2.56802	60.9739
2.56675	60.7106
2.56548	61.0901
2.56421	61.6174
2.56294	61.8143
2.56168	61.8778
2.56041	61.4844
2.55915	60.9028
2.55789	60.6628
2.55662	60.6696
2.55536	60.592
2.5541	60.7188
2.55285	61.1011
2.55159	61.0666
2.55034	60.8843
2.54908	60.8808
2.54783	61.0528
2.54658	60.9464
2.54533	60.9158
2.54408	60.9617
2.54283	60.9259
2.54159	60.7793
2.54034	60.6983
2.5391	60.6831
2.53785	60.6761
2.53661	60.7792
2.53537	60.7312
2.53413	60.7306
2.53289	60.8078
2.53166	60.7969
2.53042	60.7006
2.52919	60.6142
2.52795	60.6165
2.52672	60.7454
2.52549	60.7902
2.52426	60.6658
2.52303	60.4671
2.52181	60.4552
2.52058	60.471
2.51936	60.419
2.51813	60.4579
2.51691	60.5484
2.51569	60.6516
2.51447	60.5878
2.51325	60.5512
2.51203	60.5395
2.51082	60.569
2.5096	60.6421
2.50839	60.6161
2.50717	60.4513
2.50596	60.3428
2.50475	60.3299
2.50354	60.3804
2.50233	60.4598
2.50113	60.5291
2.49992	60.4875
2.49872	60.4196
2.49751	60.3719
2.49631	60.3352
2.49511	60.3974
2.49391	60.4762
2.49271	60.3839
2.49151	60.3746
2.49031	60.489
2.48912	60.5182
2.48792	60.4913
2.48673	60.4201
2.48554	60.4215
2.48435	60.4916
2.48316	60.4695
2.48197	60.3689
2.48078	60.4385
2.4796	60.5248
2.47841	60.4587
2.47723	60.3148
2.47604	60.3113
2.47486	60.3571
2.47368	60.404
2.4725	60.4754
2.47132	60.4374
2.47014	60.3818
2.46897	60.4822
2.46779	60.5041
2.46662	60.4271
2.46545	60.4002
2.46427	60.414
2.4631	60.3735
2.46193	60.311
2.46077	60.365
2.4596	60.403
2.45843	60.3025
2.45727	60.3149
2.4561	60.3946
2.45494	60.3636
2.45378	60.2797
2.45262	60.2876
2.45146	60.3756
2.4503	60.4
2.44914	60.438
2.44799	60.5333
2.44683	60.4254
2.44568	60.4058
2.44452	60.4223
2.44337	60.3509
2.44222	60.3338
2.44107	60.3936
2.43992	60.3759
2.43877	60.3396
2.43763	60.31
2.43648	60.3995
2.43534	60.3872
2.43419	60.3213
2.43305	60.3085
2.43191	60.3073
2.43077	60.3176
2.42963	60.3917
2.42849	60.4079
2.42736	60.4142
2.42622	60.3159
2.42509	60.2639
2.42395	60.2334
2.42282	60.2668
2.42169	60.3996
2.42056	60.4804
2.41943	60.5558
2.4183	60.548
2.41717	60.5108
2.41605	60.4467
2.41492	60.3503
2.4138	60.2805
2.41267	60.3158
2.41155	60.2401
2.41043	60.26
2.40931	60.2342
2.40819	60.2198
2.40707	60.294
2.40595	60.3145
2.40484	60.3276
2.40372	60.3469
2.40261	60.3039
2.4015	60.3309
2.40039	60.288
2.39928	60.2153
2.39817	60.3296
2.39706	60.4641
2.39595	60.3455
2.39484	60.2862
2.39374	60.3437
2.39263	60.3213
2.39153	60.4143
2.39043	60.4645
2.38932	60.3955
2.38822	60.4282
2.38712	60.4153
2.38603	60.4237
2.38493	60.3934
2.38383	60.4163
2.38274	60.4703
2.38164	60.4044
2.38055	60.2167
2.37946	60.2045
2.37836	60.2187
2.37727	60.1638
2.37618	60.1987
2.3751	60.2169
2.37401	60.26
2.37292	60.4422
2.37184	60.4969
2.37075	60.3736
2.36967	60.223
2.36859	60.2519
2.3675	60.2797
2.36642	60.2873
2.36534	60.2714
2.36427	60.2567
2.36319	60.2384
2.36211	60.2379
2.36104	60.2617
2.35996	60.2402
2.35889	60.2778
2.35781	60.2446
2.35674	60.2662
2.35567	60.3639
2.3546	60.3566
2.35353	60.2949
2.35247	60.3463
2.3514	60.3023
2.35033	60.1891
2.34927	60.234
2.3482	60.2113
2.34714	60.1944
2.34608	60.1596
2.34502	60.1478
2.34396	60.2266
2.3429	60.3076
2.34184	60.2953
2.34078	60.3258
2.33973	60.2711
2.33867	60.2679
2.33762	60.3132
2.33656	60.3539
2.33551	60.2809
2.33446	60.2059
2.33341	60.2365
2.33236	60.2538
2.33131	60.2096
2.33026	60.2242
2.32922	60.2589
2.32817	60.3382
2.32712	60.3085
2.32608	60.2664
2.32504	60.3814
2.324	60.2488
2.32295	60.0998
2.32191	60.1816
2.32087	60.2338
2.31984	60.3374
2.3188	60.2966
2.31776	60.1701
2.31673	60.171
2.31569	60.274
2.31466	60.2444
2.31362	60.1393
2.31259	60.1129
2.31156	60.1903
2.31053	60.2538
2.3095	60.1327
2.30847	60.0033
2.30745	60.1279
2.30642	60.3008
2.3054	60.1991
2.30437	60.2142
2.30335	60.1799
2.30232	60.0524
2.3013	59.9958
2.30028	60.0548
2.29926	60.2421
2.29824	60.2852
2.29722	60.275
2.29621	60.2145
2.29519	60.2511
2.29417	60.2463
2.29316	60.1471
2.29215	60.1764
2.29113	60.206
2.29012	60.208
2.28911	60.186
2.2881	60.2212
2.28709	60.2409
2.28608	60.2341
2.28507	60.215
2.28407	60.2891
2.28306	60.2463
2.28206	60.1992
2.28105	60.1704
2.28005	60.1569
2.27905	60.1367
2.27805	60.0627
2.27705	60.1176
2.27605	60.186
2.27505	60.2413
2.27405	60.2912
2.27305	60.2462
2.27206	60.2139
2.27106	60.203
2.27007	60.2168
2.26907	60.1347
2.26808	60.0661
2.26709	60.1936
2.2661	60.2531
2.26511	60.1825
2.26412	60.1159
2.26313	60.1088
2.26214	60.1351
2.26116	60.0799
2.26017	60.0518
2.25919	60.0971
2.2582	60.1668
2.25722	60.1879
2.25624	60.0945
2.25526	60.1071
2.25428	60.2147
2.2533	60.2221
2.25232	60.1185
2.25134	60.0353
2.25036	60.0062
2.24939	60.0598
2.24841	60.0932
2.24744	60.068
2.24646	59.9888
2.24549	59.957
2.24452	60.1358
2.24355	60.1415
2.24257	60.0208
2.24161	59.9326
2.24064	59.9999
2.23967	60.0604
2.2387	60.0925
2.23774	60.1868
2.23677	60.1469
2.23581	59.9912
2.23484	59.9647
2.23388	60.1011
2.23292	60.1464
2.23196	60.146
2.231	59.985
2.23004	59.847
2.22908	60.0229
2.22812	60.1115
2.22716	59.9467
2.22621	59.8401
2.22525	59.9848
2.2243	60.0478
2.22334	59.9722
2.22239	60.0091
2.22144	60.0031
2.22049	59.9931
2.21953	60.0962
2.21859	60.0172
2.21764	59.8624
2.21669	59.9232
2.21574	59.9869
2.21479	59.876
2.21385	59.847
2.2129	59.8423
2.21196	59.8536
2.21102	59.9011
2.21007	59.9178
2.20913	59.8708
2.20819	59.7907
2.20725	59.8023
2.20631	59.8912
2.20537	59.8276
2.20444	59.7703
2.2035	59.8131
2.20256	59.6049
2.20163	59.5922
2.20069	59.8761
2.19976	59.995
2.19883	59.8965
2.19789	59.9287
2.19696	59.9324
2.19603	59.8032
2.1951	59.7509
2.19417	59.7625
2.19325	59.9275
2.19232	59.9334
2.19139	59.8346
2.19047	59.6632
2.18954	59.6927
2.18862	59.8636
2.18769	59.84
2.18677	59.789
2.18585	59.6943
2.18493	59.6237
2.18401	59.711
2.18309	59.7294
2.18217	59.7792
2.18125	59.8751
2.18033	59.8337
2.17942	59.7039
2.1785	59.6544
2.17759	59.6594
2.17667	59.6882
2.17576	59.7112
2.17485	59.6138
2.17393	59.5165
2.17302	59.5449
2.17211	59.5958
2.1712	59.6463
2.17029	59.6635
2.16939	59.6911
2.16848	59.6234
2.16757	59.5182
2.16667	59.5318
2.16576	59.6361
2.16486	59.6483
2.16395	59.6036
2.16305	59.5625
2.16215	59.5494
2.16125	59.6191
2.16035	59.6653
2.15945	59.7418
2.15855	59.6444
2.15765	59.4913
2.15675	59.5769
2.15586	59.6702
2.15496	59.6471
2.15406	59.4874
2.15317	59.4457
2.15228	59.5592
2.15138	59.6361
2.15049	59.5693
2.1496	59.4898
2.14871	59.3872
2.14782	59.2843
2.14693	59.2206
2.14604	59.3253
2.14515	59.4827
2.14427	59.4819
2.14338	59.5674
2.14249	59.4783
2.14161	59.3351
2.14072	59.3794
2.13984	59.3741
2.13896	59.2731
2.13808	59.2374
2.13719	59.2481
2.13631	59.3554
2.13543	59.4676
2.13455	59.562
2.13368	59.4789
2.1328	59.2715
2.13192	59.2636
2.13105	59.3726
2.13017	59.4286
2.1293	59.4677
2.12842	59.4227
2.12755	59.3682
2.12668	59.4414
2.1258	59.4184
2.12493	59.4261
2.12406	59.2328
2.12319	59.2044
2.12232	59.3246
2.12145	59.4035
2.12059	59.3826
2.11972	59.2814
2.11885	59.3195
2.11799	59.3579
2.11712	59.338
2.11626	59.2417
2.1154	59.201
2.11453	59.2824
2.11367	59.2133
2.11281	59.1311
2.11195	59.0543
2.11109	59.0797
2.11023	59.1786
2.10937	59.1897
2.10851	58.9979
2.10766	59.0012
2.1068	59.1182
2.10594	59.045
2.10509	59.1401
2.10423	59.1965
2.10338	59.0905
2.10253	59.1508
2.10168	59.3644
2.10082	59.42
2.09997	59.4543
2.09912	59.2456
2.09827	58.9832
2.09742	59.0303
2.09658	59.2064
2.09573	59.2552
2.09488	59.2384
2.09404	59.2125
2.09319	59.0649
2.09235	59.1188
2.0915	59.0771
2.09066	59.0636
2.08982	58.9142
2.08897	58.6325
2.08813	58.7995
2.08729	59.1295
2.08645	59.384
2.08561	59.2454
2.08477	58.874
2.08394	58.9255
2.0831	58.9585
2.08226	58.6826
2.08143	58.7353
2.08059	59.0934
2.07976	59.1709
2.07892	59.072
2.07809	58.9031
2.07726	58.8111
2.07643	59.0132
2.07559	59.2707
2.07476	59.1958
2.07393	59.0645
2.0731	59.0455
2.07228	59.0892
2.07145	58.9825
2.07062	58.9132
2.06979	58.8666
2.06897	58.7773
2.06814	58.8407
2.06732	58.8513
2.06649	58.7714
2.06567	58.8749
2.06485	58.9334
2.06403	58.9239
2.0632	59.1003
2.06238	59.0425
2.06156	58.776
2.06074	58.8175
2.05993	58.9223
2.05911	58.9708
2.05829	58.9236
2.05747	58.7381
2.05666	58.5802
2.05584	58.6384
2.05503	58.8532
2.05421	58.9302
2.0534	58.7139
2.05259	58.5865
2.05177	58.6138
2.05096	58.7799
2.05015	58.8227
2.04934	58.7279
2.04853	58.7139
2.04772	58.6991
2.04691	58.549
2.04611	58.4355
2.0453	58.5301
2.04449	58.7063
2.04369	58.6913
2.04288	58.5677
2.04208	58.5671
2.04127	58.3866
2.04047	58.2266
2.03967	58.3153
2.03886	58.5735
2.03806	58.6571
2.03726	58.5864
2.03646	58.5282
2.03566	58.7289
2.03486	58.9552
2.03407	58.7325
2.03327	58.5673
2.03247	58.5762
2.03167	58.4849
2.03088	58.242
2.03008	58.0652
2.02929	58.1461
2.0285	58.2515
2.0277	58.611
2.02691	58.6763
2.02612	58.4876
2.02533	58.5062
2.02453	58.4285
2.02374	58.3645
2.02295	58.3576
2.02217	58.3341
2.02138	58.314
2.02059	58.2694
2.0198	58.3547
2.01902	58.2377
2.01823	58.1531
2.01744	58.2391
2.01666	58.3451
2.01588	58.3323
2.01509	58.2812
2.01431	58.296
2.01353	58.2436
2.01275	58.1094
2.01196	58.1491
2.01118	58.1471
2.0104	58.1286
2.00963	58.2569
2.00885	58.1557
2.00807	57.9133
2.00729	58.0047
2.00651	58.137
2.00574	58.1335
2.00496	58.052
2.00419	57.9351
2.00341	57.9316
2.00264	58.0465
2.00187	58.1661
2.00109	58.1517
2.00032	58.0596
