Name: Antlerite Cu_3(SO_4)(OH)_4
Type: Mineral
Class: Sulfates
Subclass: 
Particle Size: 0-45um
Sample No.: SO-11A
Owner: JPL
Wavelength range: IR
Origin: USA, Arizona, Greenlee County, Morenci
Collected by Burminco
Description: 





Measurement: Hemispherical reflectance
First Column: X
Second Column: Y
X Units:  Wavelength (micrometers)
Y Units:  Reflectance (percent)
First X Value: 15.3853
Last X Value: 2.00032
Number of X Values: 2256
Additional information: so11aa.txt
 
15.3853	2.69902
15.3397	1.92698
15.2945	1.56602
15.2495	1.55816
15.2048	1.80111
15.1603	1.71914
15.1161	1.71947
15.0722	2.09579
15.0285	2.29849
14.9851	2.48663
14.9419	2.66524
14.8989	2.53776
14.8563	2.40308
14.8138	2.42197
14.7716	2.33521
14.7296	2.45798
14.6879	2.5869
14.6464	2.46856
14.6052	2.58664
14.5641	2.77329
14.5233	3.05429
14.4828	3.26959
14.4424	3.06365
14.4023	2.85788
14.3624	3.10855
14.3227	3.35197
14.2833	3.45304
14.244	3.59826
14.205	3.73854
14.1662	3.8101
14.1276	3.88284
14.0892	4.07971
14.051	4.28133
14.0131	4.52703
13.9753	4.49793
13.9377	4.45541
13.9004	4.54551
13.8632	4.45772
13.8262	4.35471
13.7895	4.34722
13.7529	4.34586
13.7165	4.40593
13.6803	4.37631
13.6443	4.35336
13.6085	4.33647
13.5729	4.4322
13.5374	4.44086
13.5022	4.21007
13.4671	4.08835
13.4322	3.98454
13.3975	3.8773
13.363	3.85496
13.3286	3.81025
13.2944	4.01981
13.2604	4.05073
13.2266	4.02456
13.193	4.13284
13.1595	4.1485
13.1262	4.02355
13.093	3.8356
13.06	3.84237
13.0272	3.8827
12.9946	3.75545
12.9621	3.58767
12.9298	3.55301
12.8976	3.69295
12.8656	3.76332
12.8337	3.76455
12.8021	3.78718
12.7705	3.82814
12.7391	4.09702
12.7079	4.24753
12.6769	4.27496
12.6459	4.40846
12.6152	4.50835
12.5845	4.51506
12.5541	4.53185
12.5238	4.68309
12.4936	4.63368
12.4635	4.34403
12.4337	4.10852
12.4039	4.02228
12.3743	3.83837
12.3448	3.42101
12.3155	3.09621
12.2863	2.95967
12.2573	2.73466
12.2284	2.42484
12.1996	2.38925
12.171	2.43544
12.1425	2.34897
12.1141	2.33947
12.0859	2.36749
12.0578	2.37159
12.0298	2.38039
12.0019	2.57452
11.9742	2.76825
11.9466	2.79123
11.9192	2.8513
11.8918	2.89718
11.8646	2.94791
11.8375	2.99222
11.8106	3.02666
11.7837	3.04534
11.757	3.07038
11.7304	3.11982
11.7039	3.08939
11.6776	2.93156
11.6513	2.83113
11.6252	2.85808
11.5992	2.80474
11.5733	2.85647
11.5475	3.06495
11.5219	3.25469
11.4963	3.59751
11.4709	3.83318
11.4455	3.85142
11.4203	4.19056
11.3952	4.57542
11.3702	4.67379
11.3454	4.65342
11.3206	4.74423
11.2959	4.79135
11.2714	4.80249
11.2469	4.77373
11.2226	4.72649
11.1983	4.7019
11.1742	4.5858
11.1502	4.41816
11.1263	4.24203
11.1024	4.03992
11.0787	3.92129
11.0551	3.8384
11.0316	3.65113
11.0081	3.38203
10.9848	3.22816
10.9616	3.12916
10.9385	3.09075
10.9154	3.07622
10.8925	3.09811
10.8697	3.16355
10.8469	3.21425
10.8243	3.30648
10.8017	3.36571
10.7793	3.35488
10.7569	3.51658
10.7346	3.7272
10.7125	3.9505
10.6904	4.00593
10.6684	3.96655
10.6465	4.0901
10.6247	4.38924
10.6029	4.66483
10.5813	4.79556
10.5597	4.84014
10.5383	4.92299
10.5169	4.97974
10.4956	5.10113
10.4744	5.26865
10.4533	5.37444
10.4323	5.50756
10.4113	5.5533
10.3904	5.71948
10.3697	5.85015
10.349	5.80284
10.3284	5.80397
10.3078	5.74662
10.2874	5.77827
10.267	5.70541
10.2467	5.45285
10.2265	5.25615
10.2064	5.04709
10.1863	4.78763
10.1663	4.47495
10.1464	4.15007
10.1266	3.83547
10.1069	3.65233
10.0872	3.66506
10.0676	3.93724
10.0481	4.26521
10.0287	4.572
10.0093	4.79148
9.99005	5.02981
9.97084	5.18876
9.95169	5.17329
9.93263	5.13211
9.91364	5.14609
9.89472	5.12907
9.87587	5.22244
9.8571	5.34284
9.83839	5.31971
9.81976	5.2283
9.80119	5.1844
9.78271	5.10434
9.76428	5.09197
9.74592	5.10282
9.72764	5.03483
9.70943	5.02207
9.69128	5.12203
9.6732	5.32209
9.65518	5.43214
9.63724	5.46464
9.61935	5.40238
9.60155	5.47145
9.5838	5.65156
9.56611	5.71018
9.5485	5.69661
9.53094	5.61223
9.51345	5.64273
9.49604	5.6417
9.47867	5.59912
9.46137	5.64559
9.44414	5.66846
9.42697	5.67531
9.40986	5.88077
9.39281	6.1333
9.37583	6.42537
9.35891	6.91718
9.34204	7.51
9.32524	7.89396
9.3085	8.30915
9.29182	8.68239
9.27519	8.75297
9.25863	8.77641
9.24213	8.80108
9.22568	8.80762
9.2093	8.65863
9.19297	8.51312
9.17669	8.408
9.16048	8.29245
9.14433	8.06243
9.12823	7.89364
9.11218	7.80987
9.0962	7.85727
9.08027	8.05609
9.06439	8.36143
9.04858	8.43036
9.03281	8.16338
9.0171	7.9243
9.00145	7.79847
8.98585	7.71998
8.9703	7.53737
8.9548	7.55167
8.93937	7.57398
8.92398	7.42971
8.90865	7.28522
8.89337	7.10065
8.87814	7.00773
8.86296	6.70478
8.84784	6.18397
8.83277	5.87306
8.81774	5.84311
8.80277	6.01637
8.78786	6.20861
8.77298	6.26524
8.75816	6.38457
8.7434	6.47079
8.72868	6.44981
8.714	6.397
8.69938	6.38576
8.68481	6.39155
8.67029	6.55479
8.65581	6.60657
8.64139	6.49902
8.62701	6.59739
8.61268	6.79559
8.5984	7.07899
8.58416	7.38891
8.56997	7.65336
8.55583	7.84431
8.54174	7.72417
8.52769	7.35896
8.51368	6.9468
8.49973	6.43949
8.48582	5.74139
8.47195	5.11527
8.45813	4.88858
8.44436	4.81727
8.43062	4.61668
8.41693	4.52855
8.4033	4.48855
8.3897	4.5543
8.37614	4.63581
8.36264	4.65629
8.34917	4.6175
8.33574	4.72092
8.32236	4.8457
8.30903	4.95764
8.29573	5.02875
8.28248	5.14526
8.26927	5.23315
8.2561	5.2677
8.24298	5.31869
8.2299	5.47499
8.21685	5.51025
8.20385	5.44479
8.19089	5.52671
8.17797	5.48252
8.16509	5.33196
8.15225	5.27852
8.13946	5.1208
8.1267	5.08814
8.11398	5.15856
8.10131	5.15641
8.08867	5.14183
8.07606	5.19013
8.0635	5.33503
8.05099	5.54676
8.0385	5.8002
8.02606	6.03701
8.01366	6.18528
8.00129	6.39448
7.98896	6.72275
7.97667	6.9409
7.96442	7.15024
7.9522	7.48319
7.94002	7.83022
7.92788	8.17945
7.91578	8.53448
7.90371	9.00404
7.89168	9.35099
7.87969	9.67772
7.86773	10.0783
7.85581	10.5085
7.84392	10.8358
7.83207	11.187
7.82026	11.4586
7.80849	11.6378
7.79674	11.934
7.78503	12.2482
7.77337	12.5514
7.76173	12.9451
7.75012	13.313
7.73856	13.623
7.72703	13.9305
7.71553	14.2206
7.70406	14.5435
7.69263	14.9224
7.68123	15.2752
7.66987	15.4998
7.65855	15.733
7.64725	15.9778
7.63598	16.12
7.62475	16.3251
7.61356	16.513
7.60239	16.6981
7.59126	16.9494
7.58017	17.1201
7.5691	17.3384
7.55806	17.5428
7.54707	17.7274
7.5361	17.8577
7.52516	18.0382
7.51425	18.1602
7.50338	18.2038
7.49253	18.2339
7.48172	18.3014
7.47094	18.4529
7.46019	18.4762
7.44947	18.4821
7.43879	18.6194
7.42813	18.7987
7.4175	19.0769
7.4069	19.2959
7.39634	19.4607
7.3858	19.7253
7.37529	20.1364
7.36482	20.4253
7.35437	20.7572
7.34396	21.1411
7.33357	21.3932
7.32321	21.6049
7.31288	21.7448
7.30258	21.8503
7.29231	21.9947
7.28207	22.0633
7.27185	22.0612
7.26167	22.1017
7.25152	22.1464
7.24139	22.0393
7.23129	21.9602
7.22122	21.9911
7.21117	22.0263
7.20116	21.9112
7.19117	21.7804
7.18121	21.671
7.17128	21.6693
7.16137	21.5912
7.1515	21.6099
7.14164	21.6412
7.13182	21.6214
7.12203	21.7044
7.11225	21.8454
7.10251	21.9746
7.0928	22.1756
7.08311	22.3563
7.07344	22.479
7.06381	22.6152
7.0542	22.9518
7.04461	23.2414
7.03506	23.2311
7.02552	23.3766
7.01601	23.5972
7.00653	23.7752
6.99708	24.0857
6.98765	24.3706
6.97824	24.547
6.96886	24.7508
6.95951	24.9382
6.95018	24.7965
6.94087	24.7918
6.9316	24.8309
6.92234	24.7811
6.91311	24.8229
6.90391	24.8252
6.89473	24.6634
6.88557	24.568
6.87644	24.5522
6.86733	24.7405
6.85824	24.5634
6.84918	24.0555
6.84015	23.7706
6.83114	23.7271
6.82215	23.4883
6.81319	23.0535
6.80424	22.7703
6.79532	22.6967
6.78643	22.4219
6.77756	21.9885
6.76871	21.6071
6.75989	21.2389
6.75109	21.0041
6.74231	20.7425
6.73355	20.5817
6.72482	20.5736
6.71611	20.6137
6.70742	20.6753
6.69875	20.6795
6.69011	20.8616
6.68149	21.1258
6.67289	21.1841
6.66431	21.1945
6.65576	21.2507
6.64722	21.5938
6.63871	22.0792
6.63022	21.8821
6.62175	21.4408
6.61331	21.2801
6.60488	21.2198
6.59648	21.179
6.5881	20.924
6.57974	20.7213
6.5714	20.5194
6.56308	19.9416
6.55478	19.4567
6.54651	18.9979
6.53825	18.5643
6.53001	18.2784
6.5218	18.0115
6.51361	17.5515
6.50544	17.3465
6.49729	17.5168
6.48915	17.438
6.48104	17.1563
6.47295	16.9104
6.46488	16.6674
6.45683	16.6748
6.4488	16.6606
6.44079	16.5605
6.4328	16.6707
6.42482	16.8999
6.41687	17.4293
6.40894	17.4599
6.40103	17.184
6.39314	17.1603
6.38526	17.2054
6.37741	17.4062
6.36957	17.6619
6.36176	17.6914
6.35396	17.9041
6.34618	18.2404
6.33843	18.2107
6.33069	18.0908
6.32297	18.1572
6.31527	18.1549
6.30758	18.0846
6.29992	18.0207
6.29227	18.0533
6.28465	18.0988
6.27704	18.208
6.26945	18.4713
6.26188	18.8185
6.25432	19.2328
6.24679	19.5421
6.23927	19.737
6.23177	19.9621
6.22429	20.1274
6.21683	20.2793
6.20938	20.4342
6.20195	20.5278
6.19454	20.7494
6.18715	21.0767
6.17978	21.0517
6.17242	20.9184
6.16508	21.0966
6.15776	21.2048
6.15045	21.149
6.14317	21.2659
6.1359	21.3424
6.12864	21.3219
6.12141	21.48
6.11419	21.7977
6.10699	21.6675
6.0998	21.3849
6.09263	21.2377
6.08549	21.1412
6.07835	21.3557
6.07123	21.5541
6.06413	21.3824
6.05705	21.5909
6.04998	22.0735
6.04293	21.7134
6.0359	21.3381
6.02888	21.4015
6.02187	21.5175
6.01489	21.6513
6.00792	21.5288
6.00096	21.4119
5.99403	21.4877
5.98711	21.4593
5.9802	21.2405
5.97331	21.1828
5.96644	21.1491
5.95958	21.0304
5.95274	20.9975
5.94591	21.123
5.9391	21.5542
5.9323	21.5911
5.92552	21.4311
5.91876	21.5513
5.91201	21.79
5.90528	22.079
5.89856	22.6752
5.89186	22.9994
5.88517	23.4514
5.8785	23.8764
5.87184	23.7059
5.8652	23.915
5.85857	24.1475
5.85196	24.3161
5.84536	24.4825
5.83878	24.7862
5.83221	25.2021
5.82566	25.6594
5.81912	25.8317
5.81259	25.6364
5.80608	25.5527
5.79959	25.6093
5.79311	25.6256
5.78665	25.6635
5.78019	25.6797
5.77376	25.908
5.76734	26.1741
5.76093	25.953
5.75453	25.7519
5.74815	25.8462
5.74179	25.732
5.73543	25.7084
5.7291	25.7375
5.72277	25.8387
5.71646	25.961
5.71017	26.0456
5.70389	25.8164
5.69762	25.7051
5.69136	25.7449
5.68513	25.7126
5.6789	25.7613
5.67268	25.7346
5.66648	25.6201
5.6603	25.7052
5.65413	25.7151
5.64797	25.7294
5.64182	25.9124
5.63569	25.8167
5.62957	25.6592
5.62347	25.6857
5.61737	25.7977
5.61129	25.9608
5.60522	26.2241
5.59917	26.3791
5.59313	26.4988
5.5871	26.8336
5.58109	27.2583
5.57509	27.4484
5.5691	27.5985
5.56312	27.8995
5.55716	28.225
5.55121	28.593
5.54528	28.8294
5.53935	29.0485
5.53344	29.2363
5.52754	29.5212
5.52166	29.8178
5.51578	30.031
5.50992	30.242
5.50407	30.4936
5.49823	30.7069
5.49241	30.935
5.4866	31.2255
5.4808	31.5924
5.47501	31.8194
5.46923	32.0779
5.46347	32.3622
5.45772	32.5025
5.45198	32.6033
5.44625	32.7944
5.44054	32.877
5.43484	32.8779
5.42914	32.9722
5.42347	33.0539
5.4178	32.7592
5.41214	32.4403
5.4065	32.0863
5.40087	31.7075
5.39525	31.3576
5.38964	31.014
5.38404	30.795
5.37846	30.6063
5.37288	30.482
5.36732	30.4769
5.36177	30.5074
5.35623	30.6168
5.35071	30.8541
5.34519	30.9695
5.33968	31.03
5.33419	31.1817
5.32871	31.3981
5.32324	31.66
5.31778	31.9425
5.31233	32.2523
5.30689	32.4837
5.30147	32.7308
5.29605	33.0076
5.29065	33.3036
5.28525	33.5805
5.27987	33.8077
5.2745	34.0248
5.26914	34.2235
5.26379	34.4672
5.25845	34.7425
5.25312	35.0045
5.24781	35.2919
5.2425	35.599
5.23721	35.8646
5.23192	36.122
5.22665	36.3482
5.22138	36.5706
5.21613	36.8951
5.21089	37.1173
5.20566	37.1901
5.20044	37.2743
5.19522	37.2678
5.19002	37.3071
5.18483	37.4498
5.17965	37.5434
5.17448	37.6567
5.16933	37.7722
5.16418	37.8333
5.15904	37.8389
5.15391	37.8601
5.14879	37.9094
5.14368	37.8011
5.13859	37.5543
5.1335	37.3596
5.12842	37.2275
5.12335	37.0737
5.1183	36.8746
5.11325	36.7235
5.10821	36.5242
5.10318	36.2617
5.09817	36.0415
5.09316	35.8151
5.08816	35.5123
5.08317	35.1687
5.07819	34.8816
5.07322	34.8883
5.06826	35.2987
5.06331	35.9322
5.05837	36.5229
5.05344	37.0346
5.04852	37.4036
5.04361	37.671
5.03871	37.9241
5.03382	38.1844
5.02894	38.3008
5.02406	38.4485
5.0192	38.6503
5.01435	38.7431
5.0095	38.9115
5.00467	39.1422
4.99984	39.306
4.99502	39.4306
4.99021	39.6356
4.98542	39.869
4.98063	40.085
4.97585	40.3234
4.97108	40.5511
4.96632	40.7505
4.96156	40.9119
4.95682	41.003
4.95209	40.9339
4.94736	40.8859
4.94264	40.6914
4.93794	40.4453
4.93324	40.2017
4.92855	39.8475
4.92387	39.3215
4.9192	38.6863
4.91453	37.8827
4.90988	36.8653
4.90524	35.6045
4.9006	34.1279
4.89597	32.4484
4.89135	30.6617
4.88674	28.5944
4.88214	26.1053
4.87755	23.6688
4.87296	21.9037
4.86839	20.9848
4.86382	20.7933
4.85926	21.2135
4.85471	22.1403
4.85017	23.3206
4.84564	24.6569
4.84111	26.2046
4.8366	27.7057
4.83209	29.0696
4.82759	30.2899
4.8231	31.2767
4.81862	32.2007
4.81415	33.0913
4.80968	33.9446
4.80522	34.8314
4.80077	35.4741
4.79633	35.686
4.7919	35.4639
4.78747	34.793
4.78306	33.9339
4.77865	33.2446
4.77425	32.8595
4.76986	32.9263
4.76547	33.4687
4.7611	34.4091
4.75673	35.683
4.75237	36.959
4.74802	38.0378
4.74367	38.9173
4.73934	39.6349
4.73501	39.9445
4.73069	39.6426
4.72638	38.8529
4.72207	37.6236
4.71777	36.0292
4.71348	34.304
4.7092	32.6047
4.70493	31.1083
4.70066	29.9309
4.69641	29.0822
4.69216	28.4745
4.68791	28.2355
4.68368	28.236
4.67945	28.359
4.67523	28.6693
4.67102	29.1593
4.66682	29.5231
4.66262	29.9196
4.65843	30.5206
4.65425	31.2787
4.65007	32.1184
4.64591	33.0026
4.64175	33.8814
4.6376	34.7952
4.63345	35.876
4.62932	37.0336
4.62519	38.0563
4.62106	38.8185
4.61695	39.3248
4.61284	39.5208
4.60874	39.5556
4.60465	39.3546
4.60056	38.9858
4.59648	38.489
4.59241	37.9731
4.58835	37.5741
4.58429	37.3949
4.58024	37.3067
4.5762	37.2731
4.57216	37.3347
4.56814	37.4621
4.56411	37.7207
4.5601	38.147
4.55609	38.7197
4.55209	39.4218
4.5481	40.1856
4.54411	41.0748
4.54013	41.9945
4.53616	42.6982
4.5322	43.2809
4.52824	43.8141
4.52429	44.1111
4.52034	44.1572
4.51641	44.1108
4.51247	43.8905
4.50855	43.5968
4.50463	43.2328
4.50072	42.7669
4.49682	42.2635
4.49292	41.8335
4.48903	41.4649
4.48515	41.1096
4.48127	40.8035
4.4774	40.5728
4.47354	40.3103
4.46968	40.0989
4.46584	40.0767
4.46199	40.2331
4.45815	40.5692
4.45432	41.0095
4.4505	41.4484
4.44668	41.8557
4.44287	42.3526
4.43907	42.7868
4.43527	43.0081
4.43148	43.0549
4.4277	42.9546
4.42392	42.8286
4.42015	42.7046
4.41638	42.4646
4.41262	42.259
4.40887	42.1213
4.40513	41.8889
4.40139	41.5194
4.39765	41.1027
4.39393	40.7515
4.39021	40.5783
4.38649	40.6433
4.38278	40.9636
4.37908	41.4182
4.37539	41.8241
4.3717	42.2272
4.36801	42.5925
4.36434	42.8882
4.36067	43.1997
4.357	43.6244
4.35335	44.0668
4.34969	44.4934
4.34605	44.9425
4.34241	45.4078
4.33877	45.8507
4.33514	46.3157
4.33152	46.7899
4.32791	47.2182
4.3243	47.5217
4.32069	47.8455
4.3171	48.2147
4.31351	48.6485
4.30992	49.164
4.30634	49.7176
4.30277	50.2156
4.2992	50.6486
4.29564	51.0379
4.29208	51.3949
4.28853	51.6751
4.28499	51.9447
4.28145	52.2078
4.27792	52.2922
4.27439	52.4052
4.27087	52.6009
4.26735	52.7507
4.26384	53.0476
4.26034	53.3935
4.25684	53.672
4.25335	53.809
4.24986	53.8537
4.24638	53.825
4.24291	53.7793
4.23944	53.778
4.23598	53.8741
4.23252	53.9461
4.22906	54.0905
4.22562	54.2109
4.22218	54.3039
4.21874	54.4807
4.21531	54.6969
4.21189	54.8325
4.20847	54.9012
4.20506	55.0384
4.20165	55.2301
4.19825	55.3535
4.19485	55.4116
4.19146	55.4295
4.18807	55.5155
4.18469	55.5523
4.18132	55.5345
4.17795	55.5043
4.17458	55.5073
4.17123	55.5759
4.16787	55.6626
4.16453	55.6939
4.16118	55.7261
4.15785	55.7518
4.15451	55.7867
4.15119	55.8161
4.14787	55.8908
4.14455	55.936
4.14124	55.9266
4.13794	55.9323
4.13464	56.0126
4.13134	56.1508
4.12805	56.1917
4.12477	56.1853
4.12149	56.1272
4.11822	56.1477
4.11495	56.2295
4.11168	56.2456
4.10843	56.2954
4.10517	56.3857
4.10192	56.3502
4.09868	56.3404
4.09545	56.3541
4.09221	56.3761
4.08899	56.4246
4.08576	56.467
4.08255	56.4144
4.07933	56.4148
4.07613	56.4298
4.07292	56.5008
4.06973	56.5865
4.06654	56.5404
4.06335	56.4667
4.06017	56.4705
4.05699	56.4439
4.05382	56.431
4.05065	56.4571
4.04749	56.4148
4.04433	56.4456
4.04118	56.4792
4.03803	56.5053
4.03489	56.4995
4.03175	56.4967
4.02862	56.5096
4.02549	56.5164
4.02237	56.5269
4.01925	56.5776
4.01614	56.6311
4.01303	56.6186
4.00993	56.6055
4.00683	56.6696
4.00373	56.6159
4.00064	56.6411
3.99756	56.6506
3.99448	56.5523
3.9914	56.5871
3.98833	56.6984
3.98527	56.723
3.98221	56.7091
3.97915	56.7158
3.9761	56.7614
3.97305	56.7392
3.97001	56.7561
3.96697	56.8668
3.96394	56.8944
3.96091	56.872
3.95789	56.8406
3.95487	56.7786
3.95186	56.7535
3.94885	56.7867
3.94584	56.8326
3.94284	56.8302
3.93984	56.7897
3.93685	56.8595
3.93386	56.8897
3.93088	56.7925
3.9279	56.6912
3.92493	56.6717
3.92196	56.6974
3.919	56.7326
3.91604	56.7408
3.91308	56.6854
3.91013	56.6785
3.90718	56.6134
3.90424	56.5128
3.9013	56.4564
3.89837	56.3714
3.89544	56.2767
3.89252	56.162
3.8896	55.8797
3.88668	55.1983
3.88377	53.9499
3.88086	52.9759
3.87796	53.8104
3.87506	55.1957
3.87217	55.8453
3.86928	56.0787
3.86639	56.1941
3.86351	56.1859
3.86064	56.1927
3.85776	56.2721
3.8549	56.2981
3.85203	56.2378
3.84917	56.1844
3.84631	56.1544
3.84346	56.1568
3.84062	56.2416
3.83777	56.2838
3.83494	56.3173
3.8321	56.3439
3.82927	56.2849
3.82644	56.209
3.82362	56.2188
3.82081	56.2715
3.81799	56.2061
3.81518	56.108
3.81238	56.0909
3.80958	56.0773
3.80678	56.021
3.80399	55.9341
3.8012	55.8884
3.79841	55.7706
3.79563	55.6112
3.79286	55.23
3.79008	54.239
3.78731	53.663
3.78455	54.2815
3.78179	54.9142
3.77903	55.0358
3.77628	54.9391
3.77353	54.8741
3.77079	54.8391
3.76805	54.7975
3.76531	54.7977
3.76258	54.8759
3.75985	54.8688
3.75713	54.7952
3.7544	54.7213
3.75169	54.6725
3.74898	54.6168
3.74627	54.5439
3.74356	54.4277
3.74086	54.3759
3.73816	54.3088
3.73547	54.1238
3.73278	53.8925
3.7301	53.7534
3.72741	53.6625
3.72474	53.5566
3.72206	53.5099
3.71939	53.4498
3.71673	53.4281
3.71406	53.3961
3.71141	53.3131
3.70875	53.2681
3.7061	53.2751
3.70345	53.2886
3.70081	53.2664
3.69817	53.2702
3.69553	53.3138
3.6929	53.4302
3.69027	53.6219
3.68765	53.801
3.68503	54.0381
3.68241	54.2751
3.6798	54.3844
3.67719	54.5419
3.67458	54.7188
3.67198	54.8013
3.66938	54.8193
3.66678	54.8971
3.66419	54.8857
3.66161	54.8258
3.65902	54.851
3.65644	54.856
3.65387	54.845
3.65129	54.8584
3.64872	54.8675
3.64616	54.9196
3.64359	54.9653
3.64103	54.9315
3.63848	54.8895
3.63593	54.8567
3.63338	54.8044
3.63084	54.767
3.6283	54.7055
3.62576	54.6683
3.62322	54.6023
3.62069	54.5534
3.61817	54.5177
3.61564	54.4047
3.61312	54.2742
3.61061	54.0451
3.6081	53.818
3.60559	53.6739
3.60308	53.4683
3.60058	53.2
3.59808	52.9584
3.59558	52.697
3.59309	52.3373
3.59061	52.0355
3.58812	51.8179
3.58564	51.6384
3.58316	51.4908
3.58069	51.2837
3.57822	51.1936
3.57575	51.186
3.57328	51.1319
3.57082	51.1378
3.56836	51.2341
3.56591	51.3874
3.56346	51.5203
3.56101	51.6481
3.55857	51.7146
3.55613	51.7248
3.55369	51.7986
3.55126	51.8783
3.54883	51.8513
3.5464	51.7783
3.54397	51.7172
3.54155	51.5906
3.53914	51.454
3.53672	51.4153
3.53431	51.4153
3.5319	51.4239
3.5295	51.4551
3.5271	51.4246
3.5247	51.382
3.52231	51.3627
3.51991	51.3727
3.51753	51.4289
3.51514	51.3466
3.51276	51.2691
3.51038	51.2701
3.50801	51.3269
3.50563	51.3023
3.50327	51.2247
3.5009	51.2188
3.49854	51.1968
3.49618	51.142
3.49382	51.1077
3.49147	51.1126
3.48912	51.1046
3.48677	51.0686
3.48443	51.023
3.48209	50.8366
3.47975	50.6544
3.47742	50.5226
3.47509	50.4687
3.47276	50.3725
3.47044	50.2774
3.46812	50.2056
3.4658	50.0974
3.46348	50.0902
3.46117	50.052
3.45886	49.9287
3.45656	49.9327
3.45425	49.9329
3.45195	49.8348
3.44966	49.7024
3.44736	49.641
3.44507	49.5558
3.44279	49.408
3.4405	49.2363
3.43822	49.0912
3.43594	48.9466
3.43367	48.7709
3.43139	48.5692
3.42912	48.3917
3.42686	48.2981
3.42459	48.1538
3.42233	48.0164
3.42007	47.9645
3.41782	47.889
3.41557	47.7802
3.41332	47.7099
3.41108	47.6467
3.40883	47.5914
3.40659	47.5156
3.40435	47.4064
3.40212	47.2963
3.39989	47.1605
3.39766	47.0083
3.39544	46.9611
3.39322	46.9841
3.391	46.8833
3.38878	46.8116
3.38657	46.7552
3.38436	46.6051
3.38215	46.5185
3.37994	46.4455
3.37774	46.2197
3.37554	46.0291
3.37335	45.8961
3.37115	45.7519
3.36896	45.5442
3.36678	45.3321
3.36459	45.0873
3.36241	44.9314
3.36023	44.8025
3.35805	44.58
3.35588	44.4789
3.35371	44.4827
3.35154	44.3587
3.34938	44.2963
3.34721	44.3732
3.34505	44.4507
3.3429	44.4961
3.34074	44.4764
3.33859	44.406
3.33644	44.3223
3.3343	44.2275
3.33215	44.159
3.33001	44.0784
3.32788	43.9431
3.32574	43.8618
3.32361	43.7253
3.32148	43.653
3.31936	43.676
3.31723	43.5856
3.31511	43.418
3.31299	43.1853
3.31088	43.1105
3.30876	43.0116
3.30665	42.8489
3.30455	42.8004
3.30244	42.8603
3.30034	42.7998
3.29824	42.5515
3.29614	42.407
3.29405	42.3962
3.29196	42.3867
3.28987	42.2937
3.28778	42.1824
3.2857	41.9246
3.28362	41.7542
3.28154	41.7738
3.27946	41.6642
3.27739	41.4685
3.27532	41.339
3.27325	41.2685
3.27119	41.2066
3.26913	41.0554
3.26707	40.9353
3.26501	40.827
3.26295	40.6845
3.2609	40.5283
3.25885	40.4326
3.2568	40.3053
3.25476	40.277
3.25272	40.2638
3.25068	40.2036
3.24864	40.1544
3.24661	40.0933
3.24458	40.0737
3.24255	39.961
3.24052	39.8544
3.2385	39.7703
3.23648	39.6869
3.23446	39.5537
3.23244	39.3542
3.23043	39.2589
3.22841	39.1437
3.2264	38.9761
3.2244	38.7193
3.22239	38.5732
3.22039	38.5585
3.21839	38.4901
3.2164	38.4249
3.2144	38.2517
3.21241	38.0847
3.21042	38.0076
3.20844	37.9017
3.20645	37.8305
3.20447	37.7082
3.20249	37.5238
3.20051	37.4317
3.19854	37.4096
3.19657	37.2817
3.1946	37.2183
3.19263	37.0991
3.19067	36.9043
3.1887	36.7093
3.18674	36.627
3.18479	36.6014
3.18283	36.5509
3.18088	36.4446
3.17893	36.2959
3.17698	36.1721
3.17504	36.0602
3.17309	35.9637
3.17115	35.8695
3.16921	35.7887
3.16728	35.6018
3.16534	35.4761
3.16341	35.4201
3.16148	35.3371
3.15956	35.2755
3.15763	35.1186
3.15571	34.9566
3.15379	34.9131
3.15187	34.829
3.14996	34.6545
3.14805	34.5469
3.14614	34.4145
3.14423	34.1905
3.14232	34.0037
3.14042	33.959
3.13852	33.9581
3.13662	33.8266
3.13472	33.5378
3.13283	33.3944
3.13094	33.3251
3.12905	33.1911
3.12716	33.0561
3.12528	32.8209
3.12339	32.5798
3.12151	32.3752
3.11964	32.1457
3.11776	31.9537
3.11589	31.7141
3.11401	31.4517
3.11214	31.2842
3.11028	31.0237
3.10841	30.7934
3.10655	30.6834
3.10469	30.6055
3.10283	30.5443
3.10098	30.3547
3.09912	30.21
3.09727	30.0772
3.09542	29.7833
3.09358	29.469
3.09173	29.4177
3.08989	29.3786
3.08805	29.3192
3.08621	29.2773
3.08437	29.239
3.08254	29.1472
3.08071	28.9507
3.07888	28.7638
3.07705	28.6288
3.07523	28.4867
3.0734	28.3453
3.07158	28.2651
3.06977	28.2695
3.06795	28.2152
3.06613	28.1134
3.06432	28.1965
3.06251	28.2951
3.0607	28.1754
3.0589	28.0989
3.0571	27.9679
3.05529	27.807
3.05349	27.6538
3.0517	27.4118
3.0499	27.1374
3.04811	27.0242
3.04632	26.8204
3.04453	26.4617
3.04274	25.9526
3.04096	25.4681
3.03918	25.0026
3.0374	24.5445
3.03562	24.2025
3.03384	24.0515
3.03207	23.6759
3.03029	23.1613
3.02852	22.7123
3.02676	22.291
3.02499	22.0395
3.02323	22.0776
3.02146	22.1094
3.0197	22.0185
3.01795	21.9548
3.01619	21.8321
3.01444	21.6685
3.01269	21.4464
3.01094	21.3838
3.00919	21.2547
3.00744	20.956
3.0057	20.642
3.00396	20.3455
3.00222	20.1473
3.00048	19.9723
2.99875	19.8099
2.99701	19.7742
2.99528	19.6717
2.99355	19.5172
2.99183	19.5833
2.9901	19.5016
2.98838	19.348
2.98666	19.3678
2.98494	19.0789
2.98322	18.624
2.9815	18.3278
2.97979	18.001
2.97808	17.5833
2.97637	17.2507
2.97466	17.0564
2.97295	16.7288
2.97125	16.3265
2.96955	16.1233
2.96785	16.0567
2.96615	16.035
2.96446	15.9956
2.96276	16.0729
2.96107	16.283
2.95938	16.3163
2.95769	16.3114
2.95601	16.0759
2.95432	15.7648
2.95264	15.5625
2.95096	15.2927
2.94928	14.9591
2.9476	14.6978
2.94593	14.4309
2.94425	14.2996
2.94258	14.5003
2.94092	14.688
2.93925	14.7431
2.93758	14.7728
2.93592	14.8905
2.93426	14.7747
2.9326	14.5306
2.93094	14.2843
2.92928	13.8714
2.92763	13.5193
2.92598	13.2661
2.92433	12.8685
2.92268	12.5799
2.92103	12.3033
2.91939	12.0403
2.91775	11.8053
2.9161	11.5943
2.91447	11.4279
2.91283	11.2326
2.91119	10.9928
2.90956	10.7667
2.90793	10.5763
2.9063	10.3022
2.90467	9.96866
2.90304	9.57539
2.90142	9.2616
2.89979	8.86855
2.89817	8.56428
2.89656	8.48872
2.89494	8.19259
2.89332	7.89289
2.89171	7.67305
2.8901	7.25004
2.88849	6.94896
2.88688	6.60879
2.88527	6.10641
2.88367	5.77755
2.88206	5.51003
2.88046	5.19501
2.87886	4.83858
2.87727	4.53451
2.87567	4.41195
2.87408	4.31654
2.87248	4.30211
2.87089	4.41825
2.8693	4.38828
2.86772	4.20002
2.86613	4.19815
2.86455	4.27878
2.86297	4.42261
2.86139	4.58133
2.85981	4.53992
2.85823	4.31131
2.85666	4.25677
2.85508	4.19938
2.85351	4.26915
2.85194	4.68481
2.85038	4.99623
2.84881	5.32475
2.84724	5.7867
2.84568	6.32466
2.84412	6.6474
2.84256	7.04071
2.841	7.60275
2.83945	8.03185
2.83789	8.44513
2.83634	8.88681
2.83479	9.18366
2.83324	9.50616
2.83169	9.90682
2.83015	10.0762
2.82861	10.1003
2.82706	10.3554
2.82552	10.56
2.82398	10.6933
2.82245	10.8611
2.82091	10.7135
2.81938	10.3682
2.81784	10.2233
2.81631	10.4304
2.81479	10.6343
2.81326	10.6425
2.81173	10.4755
2.81021	9.89594
2.80869	9.06825
2.80716	8.24501
2.80565	7.52627
2.80413	6.89901
2.80261	6.38696
2.8011	6.17113
2.79959	6.16344
2.79808	5.9429
2.79657	5.65843
2.79506	4.94354
2.79355	4.04982
2.79205	3.65654
2.79055	3.67883
2.78904	3.93988
2.78754	4.85197
2.78605	6.14913
2.78455	7.46958
2.78306	8.99838
2.78156	10.4648
2.78007	11.3521
2.77858	12.0987
2.77709	12.8469
2.77561	13.5936
2.77412	14.0378
2.77264	14.1914
2.77116	14.4806
2.76968	14.8771
2.7682	14.9677
2.76672	14.8421
2.76524	14.6925
2.76377	14.2889
2.7623	13.8375
2.76083	13.6317
2.75936	13.5955
2.75789	13.7122
2.75642	14.1901
2.75496	14.5313
2.7535	14.6064
2.75203	14.7559
2.75057	15.0925
2.74912	15.3724
2.74766	15.8994
2.7462	16.722
2.74475	17.4736
2.7433	18.126
2.74185	18.7358
2.7404	19.1802
2.73895	19.0097
2.7375	18.6221
2.73606	18.5246
2.73462	18.5106
2.73318	18.605
2.73174	18.8889
2.7303	19.1018
2.72886	19.0448
2.72742	19.1662
2.72599	19.692
2.72456	20.2018
2.72313	20.1068
2.7217	20.2701
2.72027	20.7559
2.71884	20.8395
2.71742	21.0542
2.71599	21.2785
2.71457	21.3575
2.71315	21.2889
2.71173	21.5805
2.71032	21.9086
2.7089	21.8859
2.70748	21.7802
2.70607	21.6521
2.70466	21.4209
2.70325	21.3523
2.70184	21.7979
2.70043	22.4875
2.69903	23.3531
2.69762	24.8518
2.69622	26.6762
2.69482	28.526
2.69342	30.2802
2.69202	32.0179
2.69062	33.7744
2.68923	35.3168
2.68783	36.6165
2.68644	37.8559
2.68505	39.072
2.68366	40.1548
2.68227	40.9312
2.68089	41.9083
2.6795	43.0751
2.67812	43.7932
2.67673	44.4248
2.67535	44.796
2.67397	44.9479
2.6726	45.1654
2.67122	46.0779
2.66984	46.4577
2.66847	46.3632
2.6671	47.022
2.66572	47.5281
2.66435	47.6636
2.66299	47.6525
2.66162	48.1535
2.66025	48.9239
2.65889	49.7893
2.65753	50.5015
2.65616	51.3471
2.65481	52.0035
2.65345	52.5268
2.65209	52.8809
2.65073	53.1442
2.64938	53.4308
2.64803	53.6372
2.64667	53.8399
2.64532	53.8903
2.64397	53.5722
2.64263	53.4084
2.64128	53.1918
2.63994	52.8807
2.63859	52.6489
2.63725	52.4154
2.63591	52.1957
2.63457	52.1105
2.63323	51.9122
2.6319	51.8779
2.63056	52
2.62923	51.3535
2.62789	50.8288
2.62656	50.6062
2.62523	49.7213
2.6239	49.0056
2.62258	48.6204
2.62125	48.5839
2.61993	48.1764
2.6186	47.4543
2.61728	46.9987
2.61596	45.8858
2.61464	44.6106
2.61332	43.6798
2.61201	42.7486
2.61069	41.9798
2.60938	41.3815
2.60807	40.7556
2.60675	40.2654
2.60544	39.8882
2.60414	39.4904
2.60283	39.4947
2.60152	39.8882
2.60022	40.4844
2.59891	41.2244
2.59761	42.298
2.59631	43.9414
2.59501	45.5878
2.59371	45.9957
2.59242	46.1516
2.59112	46.8563
2.58983	47.8608
2.58853	48.9049
2.58724	49.6972
2.58595	50.3028
2.58466	51.3365
2.58338	52.0741
2.58209	52.3619
2.5808	52.8174
2.57952	52.88
2.57824	53.0921
2.57695	53.2412
2.57567	52.9201
2.5744	52.6786
2.57312	52.3089
2.57184	51.5616
2.57057	51.1456
2.56929	50.6326
2.56802	49.8865
2.56675	49.2829
2.56548	49.0185
2.56421	48.8758
2.56294	48.6262
2.56168	48.3755
2.56041	47.9356
2.55915	47.4583
2.55789	47.0567
2.55662	46.678
2.55536	46.3015
2.5541	46.2247
2.55285	46.3815
2.55159	46.6474
2.55034	46.9013
2.54908	47.1791
2.54783	47.5073
2.54658	47.6189
2.54533	47.6664
2.54408	47.7351
2.54283	47.7395
2.54159	47.5737
2.54034	47.5114
2.5391	47.5516
2.53785	47.6444
2.53661	47.8349
2.53537	47.7832
2.53413	47.7501
2.53289	47.6852
2.53166	47.5867
2.53042	47.4222
2.52919	47.3867
2.52795	47.479
2.52672	47.6098
2.52549	47.8729
2.52426	48.115
2.52303	48.3264
2.52181	48.4806
2.52058	48.4768
2.51936	48.4694
2.51813	48.2876
2.51691	48.0412
2.51569	47.713
2.51447	47.151
2.51325	46.7794
2.51203	46.6663
2.51082	46.685
2.5096	46.8243
2.50839	47.054
2.50717	47.2528
2.50596	47.5804
2.50475	48.181
2.50354	48.8086
2.50233	49.4092
2.50113	49.9413
2.49992	50.4256
2.49872	50.8461
2.49751	51.3099
2.49631	51.7017
2.49511	52.0162
2.49391	52.4262
2.49271	52.7909
2.49151	53.0927
2.49031	53.5487
2.48912	53.8815
2.48792	53.998
2.48673	54.003
2.48554	53.9869
2.48435	53.8491
2.48316	53.7292
2.48197	53.7549
2.48078	53.589
2.4796	53.348
2.47841	53.2078
2.47723	53.0104
2.47604	52.6357
2.47486	52.2383
2.47368	51.8576
2.4725	51.4361
2.47132	51.0889
2.47014	50.71
2.46897	50.5063
2.46779	50.1105
2.46662	49.7482
2.46545	49.6229
2.46427	49.5627
2.4631	49.5158
2.46193	49.5
2.46077	49.4234
2.4596	49.0518
2.45843	48.6124
2.45727	48.1824
2.4561	47.5723
2.45494	46.8351
2.45378	46.3334
2.45262	45.9321
2.45146	45.7739
2.4503	45.7136
2.44914	45.6513
2.44799	45.6255
2.44683	45.9201
2.44568	46.4347
2.44452	46.8798
2.44337	47.2923
2.44222	47.4655
2.44107	47.7255
2.43992	48.3004
2.43877	48.8295
2.43763	49.3846
2.43648	50.1731
2.43534	50.976
2.43419	51.6705
2.43305	52.0368
2.43191	52.1849
2.43077	52.2942
2.42963	52.2455
2.42849	52.1171
2.42736	52.3269
2.42622	52.6582
2.42509	52.8377
2.42395	53.1051
2.42282	53.4409
2.42169	53.6236
2.42056	53.8493
2.41943	53.9477
2.4183	53.8998
2.41717	53.7323
2.41605	53.5642
2.41492	53.4428
2.4138	53.603
2.41267	53.8626
2.41155	53.9919
2.41043	54.0507
2.40931	54.167
2.40819	54.1872
2.40707	54.0699
2.40595	54.0389
2.40484	54.0541
2.40372	53.8755
2.40261	53.6055
2.4015	53.2427
2.40039	52.7197
2.39928	52.0675
2.39817	51.2321
2.39706	50.5877
2.39595	49.9337
2.39484	49.1132
2.39374	48.4915
2.39263	47.8711
2.39153	47.0872
2.39043	46.357
2.38932	46.0028
2.38822	45.937
2.38712	46.344
2.38603	47.2022
2.38493	48.1516
2.38383	48.7558
2.38274	48.9266
2.38164	48.8608
2.38055	48.5228
2.37946	47.9306
2.37836	46.9082
2.37727	45.5922
2.37618	44.135
2.3751	42.6389
2.37401	41.225
2.37292	40.1646
2.37184	39.8743
2.37075	40.2348
2.36967	40.5318
2.36859	40.3424
2.3675	39.5903
2.36642	38.4695
2.36534	37.2406
2.36427	35.822
2.36319	34.4527
2.36211	33.4559
2.36104	32.5607
2.35996	31.7076
2.35889	31.2115
2.35781	30.9432
2.35674	30.5572
2.35567	30.093
2.3546	30.0116
2.35353	30.0788
2.35247	30.0278
2.3514	30.1027
2.35033	30.397
2.34927	30.6995
2.3482	30.8179
2.34714	31.0029
2.34608	31.3185
2.34502	31.4949
2.34396	31.5333
2.3429	31.7317
2.34184	32.0332
2.34078	32.4566
2.33973	33.0683
2.33867	33.7109
2.33762	34.3658
2.33656	35.0267
2.33551	35.5901
2.33446	36.2403
2.33341	36.7632
2.33236	37.1139
2.33131	37.6492
2.33026	37.9415
2.32922	37.8841
2.32817	37.8233
2.32712	37.8823
2.32608	37.6354
2.32504	37.1127
2.324	36.5943
2.32295	36.1629
2.32191	35.6271
2.32087	34.8595
2.31984	34.1585
2.3188	33.4358
2.31776	32.4842
2.31673	31.386
2.31569	30.3791
2.31466	29.4546
2.31362	28.3635
2.31259	27.3623
2.31156	26.6897
2.31053	26.1499
2.3095	25.3863
2.30847	24.6751
2.30745	24.2562
2.30642	24.2878
2.3054	24.6146
2.30437	25.5075
2.30335	26.8289
2.30232	28.0824
2.3013	29.2879
2.30028	30.3914
2.29926	31.4366
2.29824	32.4145
2.29722	33.5762
2.29621	34.7249
2.29519	35.7288
2.29417	36.8638
2.29316	38.0638
2.29215	39.2245
2.29113	40.196
2.29012	41.1395
2.28911	42.023
2.2881	42.8346
2.28709	43.5627
2.28608	44.3747
2.28507	45.3961
2.28407	46.3603
2.28306	47.211
2.28206	48.1712
2.28105	48.9853
2.28005	49.6107
2.27905	50.269
2.27805	50.8463
2.27705	51.3812
2.27605	51.8171
2.27505	52.1046
2.27405	52.3301
2.27305	52.6661
2.27206	52.8267
2.27106	53.1226
2.27007	53.4096
2.26907	53.5119
2.26808	53.7253
2.26709	53.9481
2.2661	54.1645
2.26511	54.4597
2.26412	54.6034
2.26313	54.5246
2.26214	54.514
2.26116	54.4806
2.26017	54.2881
2.25919	54.2403
2.2582	53.965
2.25722	53.4084
2.25624	52.8053
2.25526	52.0423
2.25428	51.0596
2.2533	49.7626
2.25232	48.2694
2.25134	46.8799
2.25036	45.7692
2.24939	45.1265
2.24841	45.1604
2.24744	45.6471
2.24646	46.2006
2.24549	46.6186
2.24452	47.072
2.24355	47.7036
2.24257	48.3368
2.24161	48.9292
2.24064	49.5165
2.23967	49.7753
2.2387	50.0532
2.23774	50.4112
2.23677	50.8234
2.23581	51.4362
2.23484	51.9628
2.23388	52.5928
2.23292	53.3384
2.23196	53.9901
2.231	54.5662
2.23004	55.1539
2.22908	55.5842
2.22812	56.125
2.22716	56.8158
2.22621	57.3438
2.22525	57.9091
2.2243	58.3196
2.22334	58.6603
2.22239	59.0232
2.22144	59.4928
2.22049	59.9804
2.21953	60.3051
2.21859	60.8002
2.21764	61.2914
2.21669	61.6361
2.21574	61.8621
2.21479	62.0872
2.21385	62.4281
2.2129	62.7537
2.21196	62.9199
2.21102	62.8861
2.21007	62.8928
2.20913	62.854
2.20819	62.9448
2.20725	63.1108
2.20631	63.162
2.20537	63.2512
2.20444	63.3949
2.2035	63.5206
2.20256	63.6481
2.20163	63.6618
2.20069	63.5967
2.19976	63.5066
2.19883	63.4327
2.19789	63.2381
2.19696	63.1085
2.19603	63.0481
2.1951	62.9229
2.19417	62.8335
2.19325	62.6167
2.19232	62.2811
2.19139	61.9953
2.19047	61.7138
2.18954	61.5227
2.18862	61.7007
2.18769	62.4518
2.18677	63.2251
2.18585	63.7266
2.18493	64.0815
2.18401	64.4311
2.18309	64.6743
2.18217	64.7722
2.18125	64.7013
2.18033	64.7523
2.17942	64.7658
2.1785	64.7274
2.17759	64.7381
2.17667	64.7814
2.17576	64.816
2.17485	64.9741
2.17393	65.1222
2.17302	65.2649
2.17211	65.2893
2.1712	65.2375
2.17029	65.2761
2.16939	65.207
2.16848	65.0395
2.16757	65.0454
2.16667	65.2748
2.16576	65.472
2.16486	65.4257
2.16395	65.2974
2.16305	65.2165
2.16215	65.0598
2.16125	64.7562
2.16035	64.5712
2.15945	64.318
2.15855	63.9381
2.15765	63.4288
2.15675	62.9723
2.15586	62.4229
2.15496	61.7836
2.15406	61.28
2.15317	61.0487
2.15228	61.0351
2.15138	61.2507
2.15049	61.4667
2.1496	61.6103
2.14871	61.8686
2.14782	62.4185
2.14693	62.9671
2.14604	63.4291
2.14515	63.8552
2.14427	64.2859
2.14338	64.573
2.14249	64.6664
2.14161	64.6702
2.14072	64.7758
2.13984	64.9462
2.13896	65.0235
2.13808	64.9687
2.13719	64.807
2.13631	64.6631
2.13543	64.684
2.13455	64.8657
2.13368	64.8386
2.1328	64.9108
2.13192	65.1327
2.13105	65.1402
2.13017	65.267
2.1293	65.6394
2.12842	65.7258
2.12755	65.9219
2.12668	66.2619
2.1258	66.3143
2.12493	66.1811
2.12406	66.2025
2.12319	66.2726
2.12232	66.2154
2.12145	65.8686
2.12059	65.5893
2.11972	65.7539
2.11885	65.7194
2.11799	65.4941
2.11712	65.3088
2.11626	65.0711
2.1154	65.1966
2.11453	65.3091
2.11367	65.3337
2.11281	65.2286
2.11195	65.0529
2.11109	65.2439
2.11023	65.5577
2.10937	65.592
2.10851	65.5926
2.10766	65.9351
2.1068	66.1652
2.10594	66.4759
2.10509	66.9297
2.10423	67.0322
2.10338	67.1855
2.10253	67.5633
2.10168	67.7697
2.10082	67.8924
2.09997	67.9621
2.09912	67.9382
2.09827	68.0116
2.09742	68.317
2.09658	68.3824
2.09573	68.1882
2.09488	68.1704
2.09404	68.2664
2.09319	68.2776
2.09235	68.2199
2.0915	68.3614
2.09066	68.4178
2.08982	68.388
2.08897	68.4697
2.08813	68.6714
2.08729	68.5773
2.08645	68.2583
2.08561	68.0712
2.08477	68.1381
2.08394	68.2974
2.0831	68.5421
2.08226	68.6003
2.08143	68.4969
2.08059	68.4332
2.07976	68.5879
2.07892	68.5058
2.07809	68.2692
2.07726	68.2457
2.07643	68.5709
2.07559	68.6815
2.07476	68.4592
2.07393	68.4849
2.0731	68.5563
2.07228	68.642
2.07145	68.7276
2.07062	68.677
2.06979	68.6512
2.06897	68.5735
2.06814	68.5312
2.06732	68.6957
2.06649	68.9615
2.06567	69.02
2.06485	68.7442
2.06403	68.8181
2.0632	69.0516
2.06238	68.9964
2.06156	68.892
2.06074	68.8042
2.05993	68.8816
2.05911	68.9832
2.05829	69.0736
2.05747	69.1259
2.05666	68.9039
2.05584	68.8796
2.05503	69.0521
2.05421	68.8487
2.0534	68.8322
2.05259	69.0605
2.05177	69.2473
2.05096	69.4292
2.05015	69.4708
2.04934	69.3844
2.04853	69.2802
2.04772	69.2481
2.04691	69.2817
2.04611	69.3196
2.0453	69.046
2.04449	69.0993
2.04369	69.1252
2.04288	69.0486
2.04208	69.1628
2.04127	69.2544
2.04047	69.1923
2.03967	68.9048
2.03886	68.9228
2.03806	69.1007
2.03726	69.0074
2.03646	69.026
2.03566	69.1131
2.03486	69.1073
2.03407	69.2619
2.03327	69.2963
2.03247	69.0507
2.03167	69.1905
2.03088	69.0943
2.03008	68.7907
2.02929	68.8608
2.0285	68.8862
2.0277	68.8317
2.02691	69.0546
2.02612	68.9878
2.02533	68.9578
2.02453	68.9753
2.02374	69.0377
2.02295	69.0112
2.02217	68.9342
2.02138	68.8886
2.02059	68.9775
2.0198	68.9233
2.01902	68.8858
2.01823	69.1109
2.01744	69.1826
2.01666	69.0291
2.01588	69.0157
2.01509	68.899
2.01431	68.8992
2.01353	69.0186
2.01275	68.8859
2.01196	68.74
2.01118	68.7636
2.0104	68.8939
2.00963	69.0819
2.00885	69.2061
2.00807	69.1052
2.00729	68.87
2.00651	68.9373
2.00574	69.1398
2.00496	69.0505
2.00419	68.9708
2.00341	69.0219
2.00264	68.9518
2.00187	68.9912
2.00109	68.918
2.00032	68.7571
