Name: Porphyritic Biotite Granite
Type: Rock
Class: Igneous
Subclass:  Felsic 
Particle Size: Solid surface
Sample No.: Ward10.txt
Owner: JPL
Wavelength range:  IR 
Origin: Ward's Collection of American Rocks.  Sample locality - St. Cloud, Stearns County, Minnesota.
Collected by:  Ward's Natural Science
Description: The rock is a very coarse grained granite with large pale
pink feldspar crystals that provide the porphyritic characters.  Small
gray feldspar, quartz and biotite are readily recoginized.
Geologic age - Post-Archean (probably Keweenawan).


Measurement: Hemispherical reflectance
First Column: X
Second Column: Y
X Units: Wavelength (micrometers)
Y Units: Reflectance (percent)
First X Value: 15.3871
Last X Value: 1.9998
Number of X Values: 2257
Additional information: None

15.3871   7.17426
15.3416   6.94577
15.2964   6.35542
15.2514   5.87959
15.2066   5.57869
15.1622   5.03912
15.1180   4.65752
15.0740   4.82976
15.0303   4.99532
14.9869   4.76014
14.9437   4.72857
14.9008   5.14343
14.8581   5.05616
14.8156   4.84174
14.7734   5.03147
14.7314   5.39556
14.6897   5.26232
14.6482   5.40377
14.6069   5.85836
14.5659   5.83777
14.5251   5.69348
14.4845   5.99885
14.4442   6.24607
14.4041   6.28249
14.3642   5.99253
14.3245   5.52625
14.2850   5.34887
14.2458   5.35730
14.2068   5.44818
14.1679   5.75635
14.1293   6.00522
14.0909   6.29059
14.0528   6.43363
14.0148   6.33817
13.9770   6.34625
13.9394   6.54259
13.9021   6.60662
13.8649   6.73878
13.8279   6.71241
13.7911   6.66619
13.7546   6.77776
13.7182   6.88716
13.6820   6.79153
13.6460   6.76983
13.6101   6.97727
13.5745   7.06764
13.5391   7.04817
13.5038   7.09088
13.4687   7.43651
13.4339   7.69181
13.3991   7.39838
13.3646   7.31301
13.3302   7.42287
13.2961   7.60009
13.2621   7.71284
13.2282   7.78386
13.1946   7.85900
13.1611   7.95361
13.1278   7.98142
13.0946   8.12121
13.0616   8.52865
13.0288   8.82992
12.9962   9.01105
12.9637   9.30869
12.9313   9.83638
12.8992  10.59910
12.8672  11.41620
12.8353  11.94930
12.8036  12.15900
12.7721  11.89330
12.7407  11.26520
12.7095  10.27410
12.6784   9.29471
12.6475   8.70701
12.6167   8.72043
12.5861   9.02237
12.5556   9.65188
12.5253  10.12950
12.4951  10.23300
12.4651   9.94575
12.4352   9.29227
12.4054   8.14587
12.3758   6.52138
12.3463   5.29869
12.3170   4.74337
12.2878   4.46484
12.2588   4.47490
12.2299   4.81276
12.2011   5.18362
12.1725   5.44220
12.1439   5.58388
12.1156   5.72664
12.0873   6.06640
12.0592   6.31275
12.0312   6.45978
12.0034   6.59151
11.9757   6.50729
11.9481   6.59813
11.9206   6.86202
11.8933   7.12852
11.8661   7.33551
11.8390   7.48171
11.8120   7.57928
11.7852   7.78466
11.7584   7.90102
11.7318   7.95422
11.7053   8.08000
11.6790   8.25530
11.6527   8.38005
11.6266   8.44963
11.6006   8.47051
11.5747   8.54422
11.5489   8.64702
11.5233   8.71115
11.4977   8.88184
11.4723   9.03569
11.4469   9.18632
11.4217   9.31142
11.3966   9.34954
11.3716   9.49993
11.3468   9.70647
11.3220   9.79069
11.2973   9.91751
11.2728  10.00360
11.2483  10.09340
11.2240  10.20180
11.1997  10.34850
11.1756  10.41150
11.1515  10.49310
11.1276  10.72880
11.1038  10.89720
11.0801  11.10120
11.0564  11.30660
11.0329  11.35000
11.0095  11.53920
10.9862  11.71700
10.9629  11.80160
10.9398  11.96440
10.9168  12.20760
10.8938  12.43570
10.8710  12.58540
10.8483  12.70120
10.8256  12.77800
10.8031  12.90730
10.7806  12.95980
10.7582  13.12360
10.7360  13.40260
10.7138  13.66790
10.6917  13.83970
10.6697  13.97390
10.6478  14.08100
10.6260  14.22490
10.6042  14.44260
10.5826  14.74420
10.5610  14.93350
10.5396  14.95540
10.5182  14.97440
10.4969  15.05150
10.4757  15.24490
10.4546  15.51560
10.4335  15.71510
10.4126  15.87580
10.3917  16.06460
10.3709  16.25000
10.3502  16.57750
10.3296  16.94230
10.3091  17.16310
10.2886  17.33790
10.2683  17.58460
10.2480  18.03180
10.2277  18.39120
10.2076  18.69700
10.1876  19.19830
10.1676  19.66900
10.1477  20.02060
10.1279  20.34520
10.1081  20.67690
10.0885  21.08100
10.0689  21.48680
10.0494  21.81580
10.0299  22.17110
10.0106  22.61630
 9.9913  22.99890
 9.9720  23.43030
 9.9529  23.84920
 9.9338  24.07010
 9.9148  24.13310
 9.8959  24.31390
 9.8771  24.69920
 9.8583  24.90960
 9.8396  24.87510
 9.8210  24.78840
 9.8024  24.62060
 9.7839  24.69970
 9.7655  24.93970
 9.7471  25.27260
 9.7288  25.55470
 9.7106  25.55710
 9.6925  25.68230
 9.6744  25.83210
 9.6564  25.85690
 9.6384  26.12250
 9.6205  26.36530
 9.6027  26.57340
 9.5850  26.76380
 9.5673  26.77110
 9.5497  26.73550
 9.5321  26.90720
 9.5146  27.13750
 9.4972  27.38170
 9.4798  27.62030
 9.4625  27.88190
 9.4453  28.36030
 9.4281  28.97430
 9.4110  29.78100
 9.3940  30.89660
 9.3770  32.07080
 9.3600  33.08230
 9.3432  34.05880
 9.3264  35.01170
 9.3096  35.66970
 9.2930  36.10940
 9.2763  36.33350
 9.2598  36.39370
 9.2432  36.29500
 9.2268  36.13030
 9.2104  36.16660
 9.1941  36.07650
 9.1778  36.06580
 9.1616  36.06950
 9.1454  35.92210
 9.1293  35.88740
 9.1133  35.83450
 9.0973  35.70580
 9.0814  35.69610
 9.0655  35.52500
 9.0497  35.32970
 9.0339  35.35420
 9.0182  35.39590
 9.0025  35.30210
 8.9870  35.31740
 8.9714  35.34450
 8.9559  35.45620
 8.9405  35.66360
 8.9251  35.82120
 8.9097  35.85390
 8.8945  35.88150
 8.8792  35.91990
 8.8641  36.01290
 8.8489  36.17000
 8.8338  36.30150
 8.8188  36.20500
 8.8039  36.11960
 8.7889  36.13300
 8.7741  36.00800
 8.7592  35.78070
 8.7445  35.69890
 8.7297  35.50110
 8.7151  35.11650
 8.7005  34.62470
 8.6859  33.88580
 8.6714  32.70600
 8.6569  31.13370
 8.6425  29.50920
 8.6281  28.89760
 8.6137  29.91640
 8.5994  31.70770
 8.5852  33.33560
 8.5710  34.31850
 8.5569  34.94070
 8.5428  35.33750
 8.5287  35.46420
 8.5147  35.61800
 8.5008  35.68260
 8.4869  35.71290
 8.4730  35.71750
 8.4592  35.53380
 8.4454  35.31950
 8.4316  35.20900
 8.4180  35.02150
 8.4043  34.72250
 8.3907  34.43430
 8.3772  34.26640
 8.3637  33.99960
 8.3502  33.56380
 8.3368  33.05000
 8.3234  32.66330
 8.3100  32.12420
 8.2967  31.48240
 8.2835  30.95360
 8.2703  30.34950
 8.2571  29.49230
 8.2440  28.67960
 8.2309  27.83150
 8.2179  26.91400
 8.2049  26.24520
 8.1919  25.53160
 8.1790  24.37910
 8.1661  23.01340
 8.1532  21.67460
 8.1404  20.27060
 8.1277  18.67240
 8.1150  17.15460
 8.1023  15.80820
 8.0897  14.50800
 8.0770  13.27820
 8.0645  12.10040
 8.0520  11.11240
 8.0395  10.21820
 8.0270   9.32721
 8.0146   8.57975
 8.0023   7.89534
 7.9899   7.25719
 7.9776   6.63643
 7.9654   6.04837
 7.9532   5.60079
 7.9410   5.12036
 7.9288   4.63959
 7.9167   4.20645
 7.9047   3.85636
 7.8926   3.62420
 7.8807   3.38659
 7.8687   3.14125
 7.8568   2.91149
 7.8449   2.76154
 7.8330   2.64338
 7.8212   2.48427
 7.8094   2.30833
 7.7977   2.19385
 7.7860   2.08670
 7.7743   2.03635
 7.7627   2.00906
 7.7511   1.90059
 7.7395   1.70486
 7.7280   1.52688
 7.7165   1.58209
 7.7050   1.61014
 7.6936   1.49361
 7.6822   1.32291
 7.6708   1.30378
 7.6595   1.34600
 7.6482   1.33737
 7.6369   1.26677
 7.6257   1.23255
 7.6145   1.15209
 7.6033   1.12444
 7.5922   1.17863
 7.5811   1.16896
 7.5700   1.10307
 7.5590   1.04646
 7.5480   1.07966
 7.5370   1.11035
 7.5261   1.01136
 7.5152   0.89507
 7.5043   0.94443
 7.4935   1.09269
 7.4826   1.11440
 7.4718   1.15238
 7.4611   1.22837
 7.4504   1.31421
 7.4397   1.24278
 7.4290   1.15893
 7.4184   1.09636
 7.4078   1.05859
 7.3972   1.12799
 7.3867   1.19082
 7.3762   1.22010
 7.3657   1.27906
 7.3553   1.22202
 7.3449   1.17303
 7.3345   1.15925
 7.3241   1.15531
 7.3138   1.18067
 7.3035   1.28403
 7.2932   1.31655
 7.2830   1.25083
 7.2727   1.22036
 7.2626   1.33968
 7.2524   1.39564
 7.2423   1.33024
 7.2322   1.35479
 7.2221   1.36450
 7.2120   1.44124
 7.2020   1.52149
 7.1921   1.45681
 7.1821   1.43511
 7.1722   1.43290
 7.1623   1.46767
 7.1524   1.50966
 7.1425   1.53757
 7.1327   1.57623
 7.1229   1.53605
 7.1131   1.52880
 7.1034   1.62254
 7.0937   1.75149
 7.0840   1.76171
 7.0743   1.73162
 7.0647   1.83810
 7.0551   1.91156
 7.0455   1.80996
 7.0359   1.81306
 7.0264   1.87989
 7.0169   1.93231
 7.0074   1.94390
 6.9979   1.97875
 6.9885   1.95832
 6.9791   1.95146
 6.9697   1.90230
 6.9604   1.87985
 6.9510   1.94362
 6.9417   2.01060
 6.9324   2.01418
 6.9232   2.03954
 6.9140   2.04907
 6.9047   2.11890
 6.8956   2.14204
 6.8864   2.09698
 6.8773   1.99393
 6.8682   1.95188
 6.8591   2.05275
 6.8500   2.15119
 6.8410   2.19298
 6.8320   2.16701
 6.8230   2.07682
 6.8140   2.06808
 6.8051   2.20950
 6.7962   2.22930
 6.7873   2.17996
 6.7784   2.23221
 6.7695   2.32059
 6.7607   2.32664
 6.7519   2.30471
 6.7431   2.28773
 6.7344   2.24372
 6.7256   2.26271
 6.7169   2.28000
 6.7082   2.29694
 6.6996   2.31317
 6.6909   2.30653
 6.6823   2.34563
 6.6737   2.35130
 6.6651   2.36626
 6.6566   2.39550
 6.6480   2.46087
 6.6395   2.52637
 6.6310   2.51226
 6.6226   2.58728
 6.6141   2.59764
 6.6057   2.54972
 6.5973   2.49152
 6.5889   2.46039
 6.5805   2.48933
 6.5722   2.57341
 6.5639   2.56532
 6.5556   2.59089
 6.5473   2.58369
 6.5390   2.54281
 6.5308   2.56082
 6.5226   2.58331
 6.5144   2.58856
 6.5062   2.63758
 6.4981   2.67641
 6.4900   2.68418
 6.4818   2.72818
 6.4737   2.77941
 6.4657   2.65696
 6.4576   2.50945
 6.4496   2.60474
 6.4416   2.74126
 6.4336   2.70754
 6.4256   2.66715
 6.4177   2.77668
 6.4097   2.85885
 6.4018   2.85233
 6.3939   2.80214
 6.3860   2.71970
 6.3782   2.79253
 6.3704   2.93475
 6.3625   2.86996
 6.3547   2.82618
 6.3470   2.85141
 6.3392   2.83401
 6.3315   2.81607
 6.3237   2.81847
 6.3160   2.80801
 6.3083   2.80408
 6.3007   2.75842
 6.2930   2.71007
 6.2854   2.76850
 6.2778   2.87859
 6.2702   2.84478
 6.2626   2.73532
 6.2551   2.68020
 6.2476   2.73717
 6.2400   2.74614
 6.2325   2.73370
 6.2251   2.72956
 6.2176   2.72057
 6.2101   2.75996
 6.2027   2.76708
 6.1953   2.74108
 6.1879   2.79944
 6.1805   2.86542
 6.1732   2.89506
 6.1658   2.93656
 6.1585   2.90954
 6.1512   2.98386
 6.1439   2.95656
 6.1367   2.80199
 6.1294   2.86255
 6.1222   2.96797
 6.1149   3.05115
 6.1077   3.04849
 6.1006   3.05251
 6.0934   3.16957
 6.0862   3.16330
 6.0791   3.11626
 6.0720   3.15870
 6.0649   3.05763
 6.0578   3.00711
 6.0507   3.17536
 6.0437   3.28535
 6.0366   3.19781
 6.0296   3.11077
 6.0226   3.12339
 6.0156   3.13571
 6.0087   3.07968
 6.0017   3.04063
 5.9948   3.08603
 5.9878   3.10268
 5.9809   3.15839
 5.9740   3.24465
 5.9672   3.21464
 5.9603   3.08427
 5.9535   3.08093
 5.9466   3.15330
 5.9398   3.29382
 5.9330   3.33709
 5.9262   3.19843
 5.9195   3.14722
 5.9127   3.18730
 5.9060   3.24136
 5.8993   3.26175
 5.8926   3.33012
 5.8859   3.39988
 5.8792   3.37661
 5.8726   3.30601
 5.8659   3.24514
 5.8593   3.23716
 5.8527   3.27544
 5.8461   3.27929
 5.8395   3.29625
 5.8329   3.36187
 5.8264   3.41004
 5.8198   3.41399
 5.8133   3.41366
 5.8068   3.40503
 5.8003   3.39321
 5.7938   3.36374
 5.7874   3.33999
 5.7809   3.40379
 5.7745   3.49856
 5.7680   3.47582
 5.7616   3.42686
 5.7552   3.51196
 5.7489   3.59627
 5.7425   3.56229
 5.7361   3.53327
 5.7298   3.57521
 5.7235   3.62010
 5.7172   3.58325
 5.7109   3.56567
 5.7046   3.56677
 5.6983   3.58577
 5.6921   3.58359
 5.6858   3.55876
 5.6796   3.61482
 5.6734   3.66379
 5.6672   3.63623
 5.6610   3.61969
 5.6548   3.65789
 5.6487   3.65255
 5.6425   3.64418
 5.6364   3.55585
 5.6303   3.56877
 5.6242   3.65907
 5.6181   3.64393
 5.6120   3.66125
 5.6059   3.68589
 5.5999   3.67239
 5.5938   3.65730
 5.5878   3.64510
 5.5818   3.69177
 5.5758   3.68665
 5.5698   3.68868
 5.5638   3.73735
 5.5578   3.80352
 5.5519   3.81770
 5.5460   3.77334
 5.5400   3.76222
 5.5341   3.79109
 5.5282   3.92843
 5.5223   3.91995
 5.5164   3.93376
 5.5106   4.06766
 5.5047   4.09305
 5.4989   4.00445
 5.4931   3.95915
 5.4873   3.99213
 5.4815   4.04482
 5.4757   4.09679
 5.4699   4.17282
 5.4641   4.15065
 5.4584   4.09860
 5.4527   4.07956
 5.4469   4.15206
 5.4412   4.16140
 5.4355   4.14914
 5.4298   4.23645
 5.4241   4.28751
 5.4185   4.23867
 5.4128   4.19306
 5.4072   4.20165
 5.4015   4.26429
 5.3959   4.25398
 5.3903   4.20166
 5.3847   4.17560
 5.3791   4.20886
 5.3735   4.21863
 5.3680   4.22071
 5.3624   4.23926
 5.3569   4.23143
 5.3514   4.24977
 5.3458   4.27449
 5.3403   4.30749
 5.3348   4.26544
 5.3294   4.26990
 5.3239   4.28278
 5.3184   4.23128
 5.3130   4.27066
 5.3075   4.25766
 5.3021   4.27359
 5.2967   4.27127
 5.2913   4.19931
 5.2859   4.27638
 5.2805   4.39568
 5.2751   4.45480
 5.2698   4.45158
 5.2644   4.41440
 5.2591   4.42007
 5.2538   4.46978
 5.2485   4.54389
 5.2431   4.53238
 5.2378   4.49910
 5.2326   4.52152
 5.2273   4.51725
 5.2220   4.56381
 5.2168   4.65719
 5.2115   4.77961
 5.2063   4.74344
 5.2011   4.68227
 5.1959   4.72146
 5.1907   4.76863
 5.1855   4.76974
 5.1803   4.71837
 5.1751   4.73970
 5.1700   4.79767
 5.1648   4.75440
 5.1597   4.78707
 5.1545   4.82398
 5.1494   4.84865
 5.1443   4.89113
 5.1392   4.92481
 5.1341   5.02281
 5.1291   5.01062
 5.1240   4.98314
 5.1189   5.00781
 5.1139   5.00034
 5.1088   5.01734
 5.1038   5.13702
 5.0988   5.08415
 5.0938   4.99953
 5.0888   5.03697
 5.0838   5.09944
 5.0788   5.06004
 5.0738   5.09455
 5.0689   5.17159
 5.0639   5.10691
 5.0590   5.15722
 5.0541   5.17202
 5.0491   5.10515
 5.0442   5.14090
 5.0393   5.18493
 5.0344   5.19991
 5.0296   5.22803
 5.0247   5.24038
 5.0198   5.23905
 5.0150   5.27067
 5.0101   5.34421
 5.0053   5.35051
 5.0004   5.31486
 4.9956   5.31859
 4.9908   5.32674
 4.9860   5.33787
 4.9812   5.42033
 4.9765   5.45959
 4.9717   5.37158
 4.9669   5.36792
 4.9622   5.50613
 4.9574   5.57891
 4.9527   5.57328
 4.9480   5.56950
 4.9432   5.56501
 4.9385   5.60869
 4.9338   5.65022
 4.9291   5.70032
 4.9245   5.69530
 4.9198   5.62457
 4.9151   5.69357
 4.9105   5.82041
 4.9058   5.91729
 4.9012   6.00542
 4.8966   6.02118
 4.8919   5.95885
 4.8873   6.01465
 4.8827   6.17641
 4.8781   6.26384
 4.8736   6.26593
 4.8690   6.30809
 4.8644   6.28493
 4.8599   6.30466
 4.8553   6.38225
 4.8508   6.41244
 4.8462   6.40690
 4.8417   6.47641
 4.8372   6.52103
 4.8327   6.61057
 4.8282   6.63353
 4.8237   6.67619
 4.8192   6.73002
 4.8147   6.78776
 4.8103   6.80687
 4.8058   6.87908
 4.8014   6.98241
 4.7969   6.91227
 4.7925   6.77730
 4.7881   6.76092
 4.7836   6.82017
 4.7792   6.86390
 4.7748   6.96509
 4.7704   7.00853
 4.7660   7.08653
 4.7617   7.15381
 4.7573   7.17534
 4.7530   7.08966
 4.7486   7.15281
 4.7443   7.32281
 4.7399   7.29068
 4.7356   7.20687
 4.7313   7.25187
 4.7270   7.28788
 4.7226   7.29516
 4.7184   7.34947
 4.7141   7.22526
 4.7098   7.17507
 4.7055   7.20292
 4.7012   7.18740
 4.6970   7.14874
 4.6927   7.21884
 4.6885   7.29858
 4.6842   7.21142
 4.6800   7.14338
 4.6758   7.21301
 4.6716   7.33085
 4.6674   7.46317
 4.6632   7.54031
 4.6590   7.50471
 4.6548   7.51870
 4.6506   7.62600
 4.6465   7.73584
 4.6423   7.83921
 4.6382   7.87471
 4.6340   7.88455
 4.6299   7.85996
 4.6258   7.91133
 4.6216   8.04625
 4.6175   8.13699
 4.6134   8.12026
 4.6093   8.13396
 4.6052   8.30686
 4.6011   8.45974
 4.5971   8.50524
 4.5930   8.47043
 4.5889   8.47307
 4.5849   8.55036
 4.5808   8.55481
 4.5768   8.54369
 4.5727   8.56764
 4.5687   8.66074
 4.5647   8.75279
 4.5607   8.79978
 4.5567   8.75994
 4.5526   8.70950
 4.5487   8.74893
 4.5447   8.75274
 4.5407   8.71796
 4.5367   8.78292
 4.5328   8.81754
 4.5288   8.76656
 4.5248   8.70106
 4.5209   8.61680
 4.5170   8.59903
 4.5130   8.59957
 4.5091   8.60739
 4.5052   8.62749
 4.5013   8.63048
 4.4974   8.61328
 4.4935   8.63580
 4.4896   8.68899
 4.4857   8.66414
 4.4818   8.60673
 4.4779   8.52058
 4.4741   8.61226
 4.4702   8.70724
 4.4664   8.68606
 4.4625   8.80459
 4.4587   8.93774
 4.4549   9.00431
 4.4510   9.05577
 4.4472   9.05320
 4.4434   9.19441
 4.4396   9.26795
 4.4358   9.15081
 4.4320   9.12415
 4.4282   9.33665
 4.4245   9.47871
 4.4207   9.50434
 4.4169   9.50581
 4.4132   9.53529
 4.4094   9.66061
 4.4057   9.73574
 4.4019   9.79775
 4.3982   9.90947
 4.3945  10.05680
 4.3907  10.06250
 4.3870  10.07800
 4.3833  10.20960
 4.3796  10.30040
 4.3759  10.42910
 4.3722  10.60220
 4.3685  10.69600
 4.3649  10.71920
 4.3612  10.77150
 4.3575  10.89620
 4.3539  10.96280
 4.3502  11.09250
 4.3466  11.27580
 4.3429  11.44270
 4.3393  11.51180
 4.3357  11.53360
 4.3320  11.52740
 4.3284  11.60310
 4.3248  11.70110
 4.3212  11.70110
 4.3176  11.75770
 4.3140  11.84770
 4.3105  11.82810
 4.3069  11.74770
 4.3033  11.80660
 4.2997  11.93750
 4.2962  12.00660
 4.2926  12.01480
 4.2890  12.11880
 4.2855  12.16880
 4.2820  12.26050
 4.2784  12.32040
 4.2749  12.24030
 4.2714  12.22130
 4.2679  12.36810
 4.2644  12.41980
 4.2609  12.50660
 4.2574  12.64210
 4.2539  12.71610
 4.2504  12.76480
 4.2469  12.81690
 4.2434  12.98410
 4.2400  13.07300
 4.2365  13.04590
 4.2330  13.13490
 4.2296  13.24940
 4.2261  13.36060
 4.2227  13.41650
 4.2193  13.51250
 4.2158  13.53220
 4.2124  13.52880
 4.2090  13.66160
 4.2056  13.79560
 4.2022  13.78660
 4.1988  13.77570
 4.1954  13.89100
 4.1920  13.97510
 4.1886  13.97080
 4.1852  13.94700
 4.1818  13.98570
 4.1785  14.15160
 4.1751  14.31400
 4.1717  14.39920
 4.1684  14.39140
 4.1650  14.44370
 4.1617  14.45540
 4.1584  14.48910
 4.1550  14.58150
 4.1517  14.58950
 4.1484  14.66480
 4.1451  14.72480
 4.1418  14.80140
 4.1384  14.89890
 4.1351  14.88450
 4.1319  14.87880
 4.1286  14.97250
 4.1253  15.00100
 4.1220  15.05160
 4.1187  15.15440
 4.1155  15.13640
 4.1122  15.22040
 4.1089  15.31230
 4.1057  15.36070
 4.1024  15.51610
 4.0992  15.52980
 4.0959  15.57230
 4.0927  15.70840
 4.0895  15.82170
 4.0863  15.86580
 4.0830  15.75850
 4.0798  15.66540
 4.0766  15.84970
 4.0734  16.04410
 4.0702  16.03360
 4.0670  15.84930
 4.0639  15.81540
 4.0607  15.94380
 4.0575  16.04190
 4.0543  15.96360
 4.0511  15.96600
 4.0480  15.96090
 4.0448  15.87610
 4.0417  15.91050
 4.0385  15.95900
 4.0354  15.96200
 4.0323  15.88120
 4.0291  15.77860
 4.0260  15.86090
 4.0229  15.95330
 4.0197  15.96040
 4.0166  15.91020
 4.0135  15.88030
 4.0104  15.87910
 4.0073  15.77950
 4.0042  15.75100
 4.0011  15.67800
 3.9981  15.66730
 3.9950  15.65590
 3.9919  15.59500
 3.9888  15.65380
 3.9857  15.64690
 3.9827  15.56070
 3.9796  15.63020
 3.9766  15.65180
 3.9735  15.57270
 3.9705  15.53200
 3.9675  15.59180
 3.9644  15.74970
 3.9614  15.89760
 3.9584  16.05020
 3.9554  16.12360
 3.9523  16.23790
 3.9493  16.36300
 3.9463  16.45310
 3.9433  16.66220
 3.9403  16.73880
 3.9373  16.70860
 3.9343  16.74810
 3.9314  16.76070
 3.9284  16.77850
 3.9254  16.91360
 3.9224  17.01880
 3.9195  16.93700
 3.9165  16.87360
 3.9136  17.00500
 3.9106  17.16830
 3.9077  17.14600
 3.9047  17.20280
 3.9018  17.29640
 3.8988  17.14210
 3.8959  17.04410
 3.8930  17.08410
 3.8901  17.09250
 3.8872  16.98110
 3.8842  16.97710
 3.8813  17.16340
 3.8784  17.24080
 3.8755  17.19380
 3.8726  17.10370
 3.8697  17.02730
 3.8669  16.90260
 3.8640  16.83270
 3.8611  16.94030
 3.8582  16.98120
 3.8554  17.02420
 3.8525  17.06950
 3.8496  17.10150
 3.8468  17.17230
 3.8439  17.34590
 3.8411  17.37790
 3.8382  17.32260
 3.8354  17.30980
 3.8326  17.25980
 3.8297  17.33940
 3.8269  17.42590
 3.8241  17.51170
 3.8213  17.54470
 3.8185  17.59470
 3.8157  17.53010
 3.8128  17.50600
 3.8100  17.69120
 3.8072  17.76760
 3.8045  17.83560
 3.8017  17.82070
 3.7989  17.76270
 3.7961  17.94120
 3.7933  18.05840
 3.7906  17.91370
 3.7878  17.83920
 3.7850  17.86560
 3.7822  17.93580
 3.7795  18.03350
 3.7767  17.96370
 3.7740  17.86640
 3.7713  17.80450
 3.7685  17.76630
 3.7658  17.89810
 3.7630  17.91840
 3.7603  17.85670
 3.7576  17.93290
 3.7549  17.99420
 3.7521  17.95520
 3.7494  17.89860
 3.7467  17.95830
 3.7440  18.02030
 3.7413  18.06740
 3.7386  17.87590
 3.7359  17.76820
 3.7332  17.76320
 3.7306  17.83310
 3.7279  17.89240
 3.7252  17.93590
 3.7225  18.05190
 3.7199  18.14860
 3.7172  18.16580
 3.7145  18.15630
 3.7119  18.14740
 3.7092  18.17930
 3.7066  18.22930
 3.7039  18.27090
 3.7013  18.46520
 3.6986  18.59170
 3.6960  18.54440
 3.6934  18.48800
 3.6907  18.55220
 3.6881  18.57300
 3.6855  18.52270
 3.6829  18.52670
 3.6803  18.63660
 3.6776  18.74970
 3.6750  18.79980
 3.6724  18.86300
 3.6698  18.94920
 3.6672  19.01620
 3.6646  18.95300
 3.6620  18.89750
 3.6595  18.89820
 3.6569  18.82690
 3.6543  18.84730
 3.6517  18.90440
 3.6492  18.90120
 3.6466  18.97350
 3.6440  19.00840
 3.6415  19.00090
 3.6389  19.05180
 3.6364  18.95120
 3.6338  18.95350
 3.6313  19.19730
 3.6287  19.27940
 3.6262  19.14090
 3.6237  18.95970
 3.6211  18.79330
 3.6186  18.78590
 3.6161  18.90520
 3.6136  19.02500
 3.6111  19.06480
 3.6085  18.93460
 3.6060  18.87560
 3.6035  18.95900
 3.6010  18.90720
 3.5985  18.85720
 3.5960  18.91900
 3.5935  18.94420
 3.5910  18.81500
 3.5886  18.73940
 3.5861  18.82220
 3.5836  18.92410
 3.5811  18.81050
 3.5787  18.74290
 3.5762  18.75770
 3.5737  18.81260
 3.5713  18.74640
 3.5688  18.76940
 3.5663  18.75660
 3.5639  18.71500
 3.5614  18.63700
 3.5590  18.57100
 3.5566  18.57290
 3.5541  18.67420
 3.5517  18.71560
 3.5493  18.56420
 3.5468  18.39860
 3.5444  18.32740
 3.5420  18.38790
 3.5396  18.39380
 3.5372  18.44340
 3.5347  18.53430
 3.5323  18.51400
 3.5299  18.45740
 3.5275  18.20980
 3.5251  18.12020
 3.5227  18.28700
 3.5203  18.12710
 3.5180  17.87460
 3.5156  17.70300
 3.5132  17.67110
 3.5108  17.65400
 3.5084  17.64460
 3.5061  17.74610
 3.5037  17.62290
 3.5013  17.60180
 3.4990  17.72010
 3.4966  17.55350
 3.4943  17.47890
 3.4919  17.52120
 3.4895  17.55440
 3.4872  17.40790
 3.4849  17.19010
 3.4825  17.26290
 3.4802  17.24980
 3.4778  17.29770
 3.4755  17.35320
 3.4732  17.37330
 3.4709  17.34060
 3.4685  17.30610
 3.4662  17.42340
 3.4639  17.44530
 3.4616  17.28040
 3.4593  17.01260
 3.4570  16.99750
 3.4547  17.06990
 3.4524  17.10140
 3.4501  17.15500
 3.4478  17.17600
 3.4455  17.07850
 3.4432  16.96610
 3.4409  16.85530
 3.4386  16.83840
 3.4364  16.67600
 3.4341  16.47820
 3.4318  16.41400
 3.4295  16.40870
 3.4273  16.48330
 3.4250  16.54990
 3.4228  16.45050
 3.4205  16.25050
 3.4182  16.17940
 3.4160  16.21800
 3.4137  16.29540
 3.4115  16.24880
 3.4093  16.07950
 3.4070  16.17680
 3.4048  16.13450
 3.4025  15.87730
 3.4003  15.79610
 3.3981  15.86030
 3.3958  16.04730
 3.3936  16.05040
 3.3914  16.12200
 3.3892  16.10290
 3.3870  15.79510
 3.3848  15.61740
 3.3826  15.65160
 3.3804  15.63920
 3.3782  15.61340
 3.3760  15.62500
 3.3738  15.67420
 3.3716  15.58220
 3.3694  15.34930
 3.3672  15.23050
 3.3650  15.51510
 3.3628  15.69620
 3.3606  15.58280
 3.3585  15.38730
 3.3563  15.31380
 3.3541  15.40670
 3.3520  15.38130
 3.3498  15.30030
 3.3476  15.17520
 3.3455  15.12950
 3.3433  15.37920
 3.3411  15.33980
 3.3390  15.13130
 3.3369  15.12420
 3.3347  15.33450
 3.3326  15.23090
 3.3304  15.07510
 3.3283  15.19650
 3.3262  15.19650
 3.3240  15.08230
 3.3219  14.96480
 3.3198  15.00520
 3.3176  14.97460
 3.3155  14.75700
 3.3134  14.74820
 3.3113  14.82010
 3.3092  14.67550
 3.3071  14.58940
 3.3049  14.63240
 3.3028  14.71430
 3.3007  14.58380
 3.2986  14.42470
 3.2965  14.61530
 3.2944  14.87040
 3.2924  14.70470
 3.2903  14.25960
 3.2882  14.15240
 3.2861  14.07310
 3.2840  13.98770
 3.2819  14.06720
 3.2799  14.06640
 3.2778  13.84840
 3.2757  13.72180
 3.2736  13.79300
 3.2716  13.82330
 3.2695  13.95680
 3.2675  14.03410
 3.2654  13.85080
 3.2634  13.82170
 3.2613  13.67310
 3.2593  13.49980
 3.2572  13.56250
 3.2552  13.56880
 3.2531  13.58680
 3.2511  13.36720
 3.2490  13.30760
 3.2470  13.36220
 3.2450  13.22160
 3.2429  13.31020
 3.2409  13.30640
 3.2389  13.22490
 3.2369  13.20010
 3.2348  13.25330
 3.2328  13.33150
 3.2308  13.35110
 3.2288  13.25470
 3.2268  13.03040
 3.2248  12.81840
 3.2228  12.81560
 3.2208  12.97800
 3.2188  12.94660
 3.2168  12.84520
 3.2148  12.67540
 3.2128  12.69180
 3.2108  12.89600
 3.2088  12.98280
 3.2068  12.93720
 3.2049  12.87460
 3.2029  12.85960
 3.2009  12.75940
 3.1989  12.62450
 3.1970  12.47160
 3.1950  12.16110
 3.1930  12.25260
 3.1911  12.28230
 3.1891  12.10200
 3.1871  12.22280
 3.1852  12.31900
 3.1832  12.20280
 3.1813  12.12270
 3.1793  11.95020
 3.1774  11.88930
 3.1754  12.04310
 3.1735  11.95640
 3.1715  11.79500
 3.1696  11.52020
 3.1677  11.43270
 3.1657  11.69310
 3.1638  11.73150
 3.1619  11.49710
 3.1599  11.78320
 3.1580  11.94210
 3.1561  11.67020
 3.1542  11.32770
 3.1523  11.36070
 3.1503  11.36550
 3.1484  11.43490
 3.1465  11.56870
 3.1446  11.54600
 3.1427  11.43060
 3.1408  11.23030
 3.1389  11.12080
 3.1370  11.35740
 3.1351  11.42320
 3.1332  11.30390
 3.1313  11.25370
 3.1294  11.16560
 3.1275  11.04770
 3.1257  10.97200
 3.1238  11.04520
 3.1219  11.28920
 3.1200  10.94030
 3.1181  10.72120
 3.1163  10.76580
 3.1144  10.58530
 3.1125  10.57040
 3.1107  10.80450
 3.1088  11.11920
 3.1069  11.28390
 3.1051  11.17400
 3.1032  11.12920
 3.1014  11.00190
 3.0995  10.60900
 3.0976  10.36940
 3.0958  10.81130
 3.0940  11.26240
 3.0921  10.90000
 3.0903  10.65090
 3.0884  10.76730
 3.0866  10.82950
 3.0848  10.53170
 3.0829  10.65890
 3.0811  10.87490
 3.0793  10.85540
 3.0774  10.71280
 3.0756  10.56980
 3.0738  10.42750
 3.0720  10.17950
 3.0701  10.27750
 3.0683  10.43180
 3.0665  10.65570
 3.0647  10.80210
 3.0629  10.84560
 3.0611  10.88650
 3.0593  10.62820
 3.0575  10.61370
 3.0557  10.76040
 3.0539  10.60680
 3.0521  10.59620
 3.0503  10.46980
 3.0485   9.91816
 3.0467   9.85108
 3.0449  10.27330
 3.0431  10.50650
 3.0413  10.41490
 3.0396  10.30620
 3.0378  10.39280
 3.0360  10.40270
 3.0342  10.20510
 3.0324  10.22850
 3.0307  10.14710
 3.0289  10.03350
 3.0271   9.90026
 3.0254  10.00070
 3.0236  10.17330
 3.0218  10.45600
 3.0201  10.42960
 3.0183  10.13540
 3.0166  10.23360
 3.0148  10.27570
 3.0130  10.12200
 3.0113   9.96376
 3.0096  10.00170
 3.0078  10.07460
 3.0061  10.08830
 3.0043  10.06500
 3.0026  10.03770
 3.0008   9.96370
 2.9991   9.98935
 2.9974  10.08390
 2.9956  10.13060
 2.9939  10.13460
 2.9922  10.18860
 2.9905  10.14740
 2.9887   9.99913
 2.9870  10.11250
 2.9853  10.24500
 2.9836  10.24410
 2.9819   9.98563
 2.9802   9.84021
 2.9784  10.03770
 2.9767  10.28290
 2.9750  10.22860
 2.9733  10.19670
 2.9716  10.06310
 2.9699   9.89362
 2.9682   9.65077
 2.9665   9.73612
 2.9648   9.76565
 2.9631   9.91064
 2.9614   9.80454
 2.9597   9.79624
 2.9581   9.74237
 2.9564   9.51271
 2.9547   9.78700
 2.9530   9.86115
 2.9513   9.85824
 2.9496  10.20360
 2.9480  10.34510
 2.9463  10.15880
 2.9446   9.66376
 2.9429   9.74572
 2.9413   9.82001
 2.9396   9.79192
 2.9379   9.79952
 2.9363   9.48960
 2.9346   9.46794
 2.9330   9.67013
 2.9313   9.81352
 2.9296   9.82147
 2.9280   9.80593
 2.9263  10.04850
 2.9247  10.25030
 2.9230  10.23070
 2.9214  10.08770
 2.9197   9.91248
 2.9181   9.85528
 2.9165   9.92476
 2.9148  10.03090
 2.9132  10.39780
 2.9116  10.29650
 2.9099  10.04090
 2.9083  10.17520
 2.9067  10.01200
 2.9050   9.99389
 2.9034  10.06430
 2.9018  10.39420
 2.9002  10.49240
 2.8985  10.13870
 2.8969  10.35280
 2.8953  10.52480
 2.8937  10.30430
 2.8921  10.20140
 2.8905  10.46190
 2.8888  10.35580
 2.8872  10.33010
 2.8856  10.52810
 2.8840  10.49140
 2.8824  10.40910
 2.8808  10.52760
 2.8792  10.57220
 2.8776  10.24730
 2.8760   9.89897
 2.8744  10.39570
 2.8728  10.49280
 2.8712  10.57080
 2.8697  10.98710
 2.8681  10.83350
 2.8665  10.57740
 2.8649  10.91840
 2.8633  10.97690
 2.8617  10.70690
 2.8602  10.66520
 2.8586  10.74180
 2.8570  10.73630
 2.8554  10.77080
 2.8539  10.68100
 2.8523  10.53590
 2.8507  10.64270
 2.8492  10.63510
 2.8476  10.62700
 2.8460  10.48340
 2.8445  10.38340
 2.8429  10.21740
 2.8413  10.35190
 2.8398  10.77840
 2.8382  10.95310
 2.8367  10.77990
 2.8351  10.90390
 2.8336  10.97050
 2.8320  11.00580
 2.8305  11.14640
 2.8289  11.26760
 2.8274  11.15140
 2.8259  11.26130
 2.8243  11.30340
 2.8228  11.44150
 2.8213  11.25300
 2.8197  10.86150
 2.8182  11.26770
 2.8167  11.56370
 2.8151  11.41750
 2.8136  11.51990
 2.8121  12.05050
 2.8106  11.53860
 2.8090  11.24340
 2.8075  11.40390
 2.8060  11.11970
 2.8045  11.38430
 2.8030  12.24720
 2.8014  12.25880
 2.7999  11.65660
 2.7984  11.50870
 2.7969  11.24610
 2.7954  11.79600
 2.7939  12.78370
 2.7924  12.27240
 2.7909  11.20290
 2.7894  10.85930
 2.7879  10.91410
 2.7864  11.51200
 2.7849  12.19380
 2.7834  11.89000
 2.7819  11.48980
 2.7804  11.93190
 2.7789  12.52140
 2.7774  12.34400
 2.7759  12.11860
 2.7745  12.23750
 2.7730  12.42410
 2.7715  12.28810
 2.7700  12.24530
 2.7685  12.30580
 2.7671  12.29530
 2.7656  12.20230
 2.7641  12.24330
 2.7626  12.02640
 2.7612  11.70040
 2.7597  11.70400
 2.7582  12.14450
 2.7568  12.43270
 2.7553  12.49070
 2.7538  12.63180
 2.7524  12.65910
 2.7509  12.80670
 2.7494  12.90360
 2.7480  12.68950
 2.7465  12.60770
 2.7451  13.01930
 2.7436  13.68990
 2.7422  13.79620
 2.7407  13.58560
 2.7393  13.39580
 2.7378  13.78460
 2.7364  14.36800
 2.7350  14.72340
 2.7335  14.74520
 2.7321  14.44860
 2.7306  14.79160
 2.7292  15.43280
 2.7278  15.80140
 2.7263  16.06590
 2.7249  16.11810
 2.7235  16.56460
 2.7220  17.07690
 2.7206  17.31620
 2.7192  17.76730
 2.7178  18.39280
 2.7163  18.91180
 2.7149  19.37680
 2.7135  19.66090
 2.7121  20.20690
 2.7106  20.98700
 2.7092  21.41460
 2.7078  21.67850
 2.7064  21.76420
 2.7050  22.05650
 2.7036  22.50900
 2.7022  22.95070
 2.7008  23.17410
 2.6994  23.39270
 2.6980  23.86010
 2.6965  24.25670
 2.6951  24.31290
 2.6938  24.73900
 2.6923  25.22550
 2.6910  25.33550
 2.6896  25.39670
 2.6882  25.66520
 2.6868  25.85750
 2.6854  26.11640
 2.6840  26.39830
 2.6826  26.66600
 2.6812  26.92180
 2.6798  27.07340
 2.6784  27.18460
 2.6771  27.48640
 2.6757  27.91890
 2.6743  27.80290
 2.6729  27.62300
 2.6715  27.65690
 2.6702  27.64800
 2.6688  27.63800
 2.6674  27.71110
 2.6660  28.04620
 2.6647  28.30540
 2.6633  28.23500
 2.6619  28.61050
 2.6606  28.96250
 2.6592  28.63350
 2.6578  28.20210
 2.6565  28.06620
 2.6551  28.04530
 2.6538  28.13340
 2.6524  28.23030
 2.6511  28.19150
 2.6497  28.07500
 2.6484  28.05650
 2.6470  28.60890
 2.6456  28.96580
 2.6443  28.58520
 2.6429  28.45550
 2.6416  28.67720
 2.6403  28.77360
 2.6389  28.63070
 2.6376  28.69710
 2.6362  28.76040
 2.6349  28.80260
 2.6336  29.16510
 2.6322  29.38680
 2.6309  29.20510
 2.6296  28.76610
 2.6282  28.84660
 2.6269  29.16670
 2.6256  29.21100
 2.6242  29.14940
 2.6229  28.80760
 2.6216  28.89600
 2.6203  29.29970
 2.6189  29.27230
 2.6176  29.36650
 2.6163  29.71150
 2.6150  29.42090
 2.6136  29.16930
 2.6123  29.10300
 2.6110  29.48310
 2.6097  29.65450
 2.6084  29.32880
 2.6071  29.67910
 2.6058  29.96010
 2.6044  29.51260
 2.6031  29.50910
 2.6018  29.96920
 2.6005  30.21290
 2.5992  29.90030
 2.5979  29.56990
 2.5966  29.50570
 2.5953  29.68820
 2.5940  29.85440
 2.5927  30.06320
 2.5914  29.99260
 2.5901  29.89250
 2.5888  29.94040
 2.5876  30.29390
 2.5863  30.23420
 2.5850  29.99390
 2.5837  29.87920
 2.5824  29.67930
 2.5811  29.83280
 2.5798  30.31670
 2.5785  30.32060
 2.5773  29.72690
 2.5760  29.49110
 2.5747  29.62120
 2.5734  29.84680
 2.5722  29.89530
 2.5709  30.09900
 2.5696  30.14570
 2.5683  30.07950
 2.5671  29.98140
 2.5658  30.15060
 2.5645  30.33160
 2.5633  30.29010
 2.5620  29.88120
 2.5607  29.86170
 2.5595  29.61730
 2.5582  29.75960
 2.5569  30.19400
 2.5557  30.24580
 2.5544  30.26270
 2.5532  30.28120
 2.5519  30.18570
 2.5507  30.19520
 2.5494  30.27990
 2.5481  30.01750
 2.5469  30.25610
 2.5456  30.31440
 2.5444  30.05170
 2.5431  30.15760
 2.5419  30.17610
 2.5406  30.26400
 2.5394  30.30480
 2.5382  30.08840
 2.5369  30.26780
 2.5357  30.37000
 2.5344  30.35610
 2.5332  30.52710
 2.5320  30.15440
 2.5307  29.98150
 2.5295  29.98980
 2.5283  29.85420
 2.5270  29.75060
 2.5258  29.82250
 2.5246  30.06670
 2.5233  30.18890
 2.5221  30.36170
 2.5209  30.37650
 2.5197  30.36610
 2.5184  30.47250
 2.5172  30.59840
 2.5160  30.80160
 2.5148  30.45000
 2.5136  29.92140
 2.5123  29.90190
 2.5111  29.93320
 2.5099  29.73710
 2.5087  29.84750
 2.5075  30.24010
 2.5063  30.69440
 2.5051  30.36350
 2.5038  29.96060
 2.5026  29.99950
 2.5014  30.11230
 2.5002  30.16770
 2.4990  30.13210
 2.4978  30.29630
 2.4966  30.35600
 2.4954  30.41710
 2.4942  30.34890
 2.4930  30.06200
 2.4918  30.24440
 2.4906  30.66250
 2.4894  30.86580
 2.4882  30.86150
 2.4870  30.73450
 2.4858  30.42110
 2.4846  30.14090
 2.4835  30.17530
 2.4823  30.50560
 2.4811  30.49660
 2.4799  30.38180
 2.4787  30.59340
 2.4775  30.84360
 2.4764  30.93350
 2.4752  30.77130
 2.4740  30.65440
 2.4728  30.76870
 2.4716  30.72810
 2.4705  30.59610
 2.4693  30.83760
 2.4681  30.98200
 2.4669  30.89480
 2.4657  30.83650
 2.4646  30.76490
 2.4634  30.89380
 2.4622  30.92980
 2.4611  30.67220
 2.4599  30.31840
 2.4587  30.88360
 2.4576  31.29870
 2.4564  31.51380
 2.4552  31.40040
 2.4541  31.26820
 2.4529  31.42240
 2.4518  30.91870
 2.4506  30.82730
 2.4494  31.13150
 2.4483  31.50170
 2.4471  31.77980
 2.4460  31.06940
 2.4448  30.35580
 2.4437  30.31950
 2.4425  30.80740
 2.4414  30.89040
 2.4402  30.41300
 2.4391  30.42290
 2.4379  30.70550
 2.4368  31.09110
 2.4356  31.36670
 2.4345  31.65790
 2.4333  31.84830
 2.4322  31.87560
 2.4311  31.83380
 2.4299  31.18730
 2.4288  30.70250
 2.4276  30.75280
 2.4265  30.98730
 2.4254  30.76520
 2.4242  30.96780
 2.4231  31.78780
 2.4220  31.93330
 2.4209  31.45230
 2.4197  31.05880
 2.4186  31.09580
 2.4175  31.15820
 2.4163  30.99020
 2.4152  31.28450
 2.4141  31.39070
 2.4130  31.23010
 2.4118  31.35190
 2.4107  31.39240
 2.4096  31.41030
 2.4085  31.61300
 2.4074  31.60950
 2.4063  31.21130
 2.4051  31.50460
 2.4040  31.76730
 2.4029  31.15830
 2.4018  31.24480
 2.4007  31.72840
 2.3996  31.62430
 2.3985  31.54700
 2.3973  31.51490
 2.3962  31.07260
 2.3951  31.33350
 2.3940  31.67790
 2.3929  31.83510
 2.3918  32.02000
 2.3907  31.81450
 2.3896  31.54860
 2.3885  31.22860
 2.3874  31.38910
 2.3863  31.31680
 2.3852  31.59980
 2.3841  31.91440
 2.3830  32.08460
 2.3819  31.98870
 2.3808  31.70710
 2.3798  32.01080
 2.3786  31.91580
 2.3776  31.61420
 2.3765  31.56150
 2.3754  31.77930
 2.3743  31.87220
 2.3732  31.49220
 2.3721  31.56750
 2.3710  31.34170
 2.3700  31.24840
 2.3689  31.40400
 2.3678  31.54660
 2.3667  31.58360
 2.3656  31.23910
 2.3645  31.20980
 2.3635  31.92040
 2.3624  31.89150
 2.3613  31.09980
 2.3603  31.03340
 2.3592  31.23700
 2.3581  31.36110
 2.3570  31.14240
 2.3560  31.38120
 2.3549  31.88870
 2.3538  31.62720
 2.3527  31.61670
 2.3517  32.00470
 2.3506  31.90770
 2.3495  31.30480
 2.3485  31.02680
 2.3474  31.07010
 2.3464  30.99230
 2.3453  31.12340
 2.3442  31.34700
 2.3432  31.69940
 2.3421  31.56110
 2.3411  31.14130
 2.3400  31.28210
 2.3390  31.27890
 2.3379  31.47020
 2.3369  31.80030
 2.3358  31.63410
 2.3347  31.51240
 2.3337  31.72500
 2.3326  31.83090
 2.3316  31.85120
 2.3306  31.95530
 2.3295  32.13650
 2.3285  32.40840
 2.3274  32.37200
 2.3264  31.95830
 2.3253  32.16220
 2.3243  31.85860
 2.3232  31.61800
 2.3222  32.50050
 2.3212  32.09620
 2.3201  31.63760
 2.3191  32.04710
 2.3180  31.65200
 2.3170  31.23760
 2.3160  31.94670
 2.3149  32.28650
 2.3139  32.29190
 2.3129  32.42240
 2.3118  32.55860
 2.3108  32.36040
 2.3098  32.57520
 2.3088  32.98100
 2.3077  33.09670
 2.3067  32.73790
 2.3057  33.06550
 2.3047  33.36480
 2.3036  32.82710
 2.3026  32.39110
 2.3016  33.25730
 2.3006  33.34480
 2.2995  32.91530
 2.2985  33.27130
 2.2975  32.83740
 2.2965  32.63130
 2.2955  33.03420
 2.2944  33.32510
 2.2934  32.81790
 2.2924  32.64400
 2.2914  33.32870
 2.2904  33.47330
 2.2894  32.89940
 2.2884  33.03210
 2.2874  33.46370
 2.2864  32.95910
 2.2854  32.84580
 2.2843  32.97760
 2.2833  32.99070
 2.2823  33.32950
 2.2813  33.31340
 2.2803  33.19370
 2.2793  32.77090
 2.2783  32.96820
 2.2773  32.87030
 2.2763  32.95150
 2.2753  33.08080
 2.2743  33.19560
 2.2733  33.20390
 2.2723  33.50460
 2.2713  33.40010
 2.2703  32.34660
 2.2694  32.26380
 2.2684  32.75240
 2.2674  32.87320
 2.2664  32.42970
 2.2654  31.98230
 2.2644  32.38340
 2.2634  32.42670
 2.2624  32.59180
 2.2614  33.14370
 2.2605  33.24960
 2.2595  33.34730
 2.2585  33.21080
 2.2575  32.98680
 2.2565  32.96440
 2.2555  32.86000
 2.2546  32.99870
 2.2536  33.39630
 2.2526  33.28380
 2.2516  32.95820
 2.2506  32.80480
 2.2497  33.02710
 2.2487  33.31410
 2.2477  33.33080
 2.2467  33.22920
 2.2458  33.16450
 2.2448  32.83770
 2.2438  32.58650
 2.2428  33.25830
 2.2419  33.62700
 2.2409  33.91990
 2.2399  33.65420
 2.2390  33.71930
 2.2380  33.79730
 2.2370  33.33300
 2.2361  33.10850
 2.2351  33.26720
 2.2342  33.76060
 2.2332  34.14240
 2.2322  33.81980
 2.2313  33.54620
 2.2303  33.82100
 2.2294  33.82410
 2.2284  33.75920
 2.2274  33.32990
 2.2265  33.19710
 2.2255  33.82480
 2.2246  34.13710
 2.2236  33.45520
 2.2227  33.25310
 2.2217  33.66910
 2.2208  34.09790
 2.2198  33.93110
 2.2189  33.56590
 2.2179  33.90850
 2.2170  34.04070
 2.2160  33.95830
 2.2151  33.56010
 2.2141  33.99320
 2.2132  34.47100
 2.2122  34.09450
 2.2113  33.74850
 2.2103  33.67920
 2.2094  34.00550
 2.2085  33.92240
 2.2075  33.55710
 2.2066  33.52810
 2.2056  33.30270
 2.2047  33.63050
 2.2038  33.91040
 2.2028  33.46090
 2.2019  33.12870
 2.2010  32.96930
 2.2000  33.25310
 2.1991  33.16560
 2.1982  33.49550
 2.1972  33.89560
 2.1963  33.46980
 2.1954  33.25690
 2.1944  33.64500
 2.1935  33.86940
 2.1926  33.26390
 2.1917  32.35630
 2.1907  32.72210
 2.1898  33.75050
 2.1889  33.97030
 2.1880  33.77500
 2.1870  33.90470
 2.1861  34.28080
 2.1852  33.89170
 2.1843  33.81910
 2.1833  34.34920
 2.1824  34.21730
 2.1815  34.83610
 2.1806  34.58050
 2.1797  33.75320
 2.1788  33.92370
 2.1778  34.14220
 2.1769  34.09410
 2.1760  34.18420
 2.1751  34.42110
 2.1742  34.34180
 2.1733  33.84210
 2.1724  33.65000
 2.1715  34.40570
 2.1706  34.62520
 2.1696  34.18430
 2.1687  33.62980
 2.1678  34.27740
 2.1669  34.45130
 2.1660  34.40600
 2.1651  35.01290
 2.1642  34.61400
 2.1633  33.78290
 2.1624  33.97780
 2.1615  34.23730
 2.1606  34.01730
 2.1597  34.17850
 2.1588  34.78020
 2.1579  34.66330
 2.1570  34.38100
 2.1561  34.40890
 2.1552  33.95660
 2.1543  33.80930
 2.1534  34.39730
 2.1525  34.45390
 2.1517  33.70890
 2.1507  33.92460
 2.1499  35.15900
 2.1490  35.42780
 2.1481  34.65080
 2.1472  34.20150
 2.1463  34.23100
 2.1454  34.15900
 2.1445  34.17110
 2.1436  34.31840
 2.1428  34.09250
 2.1419  33.81050
 2.1410  34.09200
 2.1401  34.79350
 2.1392  34.45110
 2.1383  33.72960
 2.1375  33.95090
 2.1366  34.42580
 2.1357  34.31710
 2.1348  34.11400
 2.1339  34.34820
 2.1331  34.26370
 2.1322  34.67110
 2.1313  34.99710
 2.1304  35.11040
 2.1296  34.68940
 2.1287  33.80480
 2.1278  33.37310
 2.1269  34.41360
 2.1261  34.87360
 2.1252  34.31230
 2.1243  34.08160
 2.1235  33.64400
 2.1226  34.04690
 2.1217  34.32770
 2.1208  34.30230
 2.1200  33.96280
 2.1191  34.53220
 2.1183  35.17570
 2.1174  34.47090
 2.1165  34.76730
 2.1157  35.20160
 2.1148  35.37880
 2.1139  35.38560
 2.1131  34.43350
 2.1122  33.46390
 2.1113  34.10650
 2.1105  34.11520
 2.1096  33.84170
 2.1088  34.02950
 2.1079  34.25160
 2.1071  34.51000
 2.1062  35.30340
 2.1054  35.20970
 2.1045  34.18040
 2.1036  33.88830
 2.1028  34.51480
 2.1019  34.43970
 2.1011  34.59400
 2.1002  35.04070
 2.0994  34.36240
 2.0985  33.97770
 2.0977  34.57090
 2.0968  34.98140
 2.0960  34.68450
 2.0951  34.92890
 2.0943  35.42780
 2.0934  34.70050
 2.0926  34.30130
 2.0918  33.32740
 2.0909  33.33140
 2.0901  34.24440
 2.0892  34.01350
 2.0884  34.12380
 2.0875  35.45750
 2.0867  36.05320
 2.0859  35.33040
 2.0850  34.11220
 2.0842  34.24780
 2.0833  34.86470
 2.0825  35.17110
 2.0817  36.13370
 2.0808  36.06060
 2.0800  35.55430
 2.0792  35.16190
 2.0783  34.08760
 2.0775  32.44260
 2.0767  32.48600
 2.0759  33.27660
 2.0750  34.68180
 2.0742  35.26660
 2.0734  35.08050
 2.0725  34.56840
 2.0717  33.69780
 2.0709  33.81270
 2.0701  33.62600
 2.0692  33.11650
 2.0684  33.27380
 2.0676  34.47540
 2.0667  35.49700
 2.0659  34.88860
 2.0651  34.09180
 2.0643  34.80020
 2.0635  33.99930
 2.0626  33.28870
 2.0618  33.05190
 2.0610  33.18250
 2.0602  33.51390
 2.0594  33.59130
 2.0585  34.09700
 2.0577  35.03610
 2.0569  35.76910
 2.0561  35.82870
 2.0553  35.03320
 2.0545  34.32850
 2.0537  34.06620
 2.0528  33.67930
 2.0520  32.61670
 2.0512  33.33320
 2.0504  35.45970
 2.0496  34.98680
 2.0488  34.79920
 2.0480  35.87290
 2.0472  35.69000
 2.0464  34.71910
 2.0456  34.37140
 2.0447  34.07800
 2.0439  33.92440
 2.0431  34.38130
 2.0423  33.83170
 2.0415  34.14360
 2.0407  35.31540
 2.0399  35.09280
 2.0391  34.51370
 2.0383  33.69220
 2.0375  34.01840
 2.0367  33.91690
 2.0359  34.68060
 2.0351  34.85970
 2.0343  35.15100
 2.0335  35.19990
 2.0327  35.32020
 2.0319  34.50700
 2.0311  33.75530
 2.0303  33.61550
 2.0295  33.85960
 2.0287  33.60920
 2.0280  33.40960
 2.0272  34.79500
 2.0264  34.99670
 2.0256  33.57850
 2.0248  35.68430
 2.0240  35.26950
 2.0232  34.28170
 2.0224  32.73630
 2.0216  31.02620
 2.0208  31.60660
 2.0200  34.18830
 2.0193  35.33900
 2.0185  34.93530
 2.0177  33.53750
 2.0169  33.08930
 2.0161  33.72380
 2.0153  34.59480
 2.0146  34.14690
 2.0138  35.28200
 2.0130  35.52730
 2.0122  34.87980
 2.0114  35.39050
 2.0107  35.62070
 2.0099  35.72670
 2.0091  34.87700
 2.0083  34.89590
 2.0075  35.52580
 2.0068  34.31540
 2.0060  32.88160
 2.0052  33.60000
 2.0044  34.49850
 2.0037  33.12580
 2.0029  33.86960
 2.0021  35.61100
 2.0013  36.09040
 2.0006  36.22110
 1.9998  35.91920
