Name: Quartz SiO_2
Type: Mineral
Class: Silicates
Subclass: Tectosilicates
Particle Size: 0-45um
Sample No.: TS-1B
Owner: JPL
Wavelength range: IR
Origin: Brazil, Minas Gerais
Collected by Burminco
Description:  Smoky quartz. 





Measurement: Hemispherical reflectance
First Column: X
Second Column: Y
X Units:  Wavelength (micrometers)
Y Units:  Reflectance (percent)
First X Value: 15.3853
Last X Value: 2.00032
Number of X Values: 2256
Additional information: ts01ba.txt
 
15.3853	19.488
15.3397	19.3478
15.2945	19.2249
15.2495	19.028
15.2048	18.8623
15.1603	18.6675
15.1161	18.3967
15.0722	17.9773
15.0285	17.6303
14.9851	17.1423
14.9419	16.7209
14.8989	16.2574
14.8563	15.6272
14.8138	14.9588
14.7716	14.0568
14.7296	13.1371
14.6879	12.1315
14.6464	10.9064
14.6052	9.76426
14.5641	8.61737
14.5233	7.28778
14.4828	6.09054
14.4424	5.06758
14.4023	4.26437
14.3624	3.7227
14.3227	3.51047
14.2833	3.84413
14.244	4.78145
14.205	6.20246
14.1662	7.82983
14.1276	9.00667
14.0892	9.94369
14.051	11.1186
14.0131	12.1108
13.9753	12.7488
13.9377	13.2454
13.9004	13.8636
13.8632	14.4811
13.8262	14.7709
13.7895	14.9396
13.7529	15.059
13.7165	15.1191
13.6803	15.2326
13.6443	15.0196
13.6085	14.5411
13.5729	14.4487
13.5374	14.4381
13.5022	14.4443
13.4671	14.2019
13.4322	13.8798
13.3975	13.8227
13.363	13.5728
13.3286	13.0082
13.2944	12.3566
13.2604	11.7248
13.2266	11.122
13.193	10.5354
13.1595	10.0479
13.1262	9.48233
13.093	8.49844
13.06	7.76435
13.0272	7.39795
12.9946	6.91349
12.9621	6.71042
12.9298	7.09687
12.8976	7.35036
12.8656	7.52695
12.8337	7.71361
12.8021	7.77716
12.7705	7.61353
12.7391	7.15897
12.7079	6.47766
12.6769	5.6885
12.6459	5.18831
12.6152	5.22157
12.5845	5.58052
12.5541	6.11157
12.5238	6.35834
12.4936	6.322
12.4635	6.05014
12.4337	5.48594
12.4039	4.50954
12.3743	3.23999
12.3448	2.15025
12.3155	1.42291
12.2863	1.32002
12.2573	1.75431
12.2284	2.15562
12.1996	2.67769
12.171	3.41302
12.1425	4.24639
12.1141	5.12965
12.0859	6.05609
12.0578	6.96296
12.0298	7.79658
12.0019	8.47244
11.9742	9.11473
11.9466	9.71653
11.9192	10.27
11.8918	10.8232
11.8646	11.4152
11.8375	12.0163
11.8106	12.6291
11.7837	13.0554
11.757	13.4472
11.7304	13.9181
11.7039	14.3023
11.6776	14.6627
11.6513	14.9537
11.6252	15.1177
11.5992	15.3364
11.5733	15.3712
11.5475	15.3813
11.5219	15.5801
11.4963	15.9182
11.4709	16.0944
11.4455	16.2608
11.4203	16.5862
11.3952	16.8177
11.3702	16.9602
11.3454	17.2387
11.3206	17.3777
11.2959	17.3541
11.2714	17.4467
11.2469	17.5607
11.2226	17.5047
11.1983	17.4467
11.1742	17.4778
11.1502	17.6606
11.1263	17.8414
11.1024	17.9082
11.0787	18.041
11.0551	18.1872
11.0316	18.3092
11.0081	18.3553
10.9848	18.4551
10.9616	18.4456
10.9385	18.3578
10.9154	18.3804
10.8925	18.4226
10.8697	18.2109
10.8469	17.991
10.8243	17.8539
10.8017	17.7481
10.7793	17.6042
10.7569	17.3693
10.7346	17.2711
10.7125	17.2556
10.6904	17.0688
10.6684	16.8048
10.6465	16.5975
10.6247	16.3387
10.6029	16.1281
10.5813	15.9822
10.5597	15.9023
10.5383	15.8294
10.5169	15.7374
10.4956	15.6351
10.4744	15.5248
10.4533	15.3707
10.4323	15.117
10.4113	14.9751
10.3904	15.0045
10.3697	14.8902
10.349	14.6513
10.3284	14.4889
10.3078	14.3785
10.2874	14.276
10.267	14.1866
10.2467	13.9776
10.2265	13.7907
10.2064	13.6393
10.1863	13.3711
10.1663	13.1036
10.1464	12.9175
10.1266	12.7493
10.1069	12.5054
10.0872	12.1466
10.0676	12.027
10.0481	11.9347
10.0287	11.722
10.0093	11.6651
9.99005	11.6895
9.97084	11.6926
9.95169	11.7757
9.93263	11.7738
9.91364	11.6671
9.89472	11.5586
9.87587	11.6537
9.8571	11.7032
9.83839	11.4982
9.81976	11.3434
9.80119	11.3647
9.78271	11.2832
9.76428	11.1514
9.74592	11.0272
9.72764	10.89
9.70943	10.7831
9.69128	10.7033
9.6732	10.4845
9.65518	10.231
9.63724	10.1999
9.61935	10.1903
9.60155	10.1092
9.5838	10.2666
9.56611	10.6177
9.5485	10.9286
9.53094	11.2628
9.51345	11.5655
9.49604	11.8963
9.47867	12.3829
9.46137	13.007
9.44414	13.7868
9.42697	14.8582
9.40986	16.208
9.39281	17.8469
9.37583	19.5452
9.35891	21.0113
9.34204	22.387
9.32524	23.5056
9.3085	24.2533
9.29182	24.7239
9.27519	24.8242
9.25863	24.845
9.24213	24.8307
9.22568	24.8951
9.2093	24.8988
9.19297	24.7783
9.17669	24.7209
9.16048	24.6861
9.14433	24.7053
9.12823	24.6556
9.11218	24.6154
9.0962	24.5241
9.08027	24.4995
9.06439	24.5504
9.04858	24.4914
9.03281	24.4063
9.0171	24.2791
9.00145	24.219
8.98585	24.2415
8.9703	24.2695
8.9548	24.2603
8.93937	24.1414
8.92398	24.1216
8.90865	24.1041
8.89337	24.0124
8.87814	23.9407
8.86296	23.8354
8.84784	23.609
8.83277	23.3407
8.81774	23.0923
8.80277	22.784
8.78786	22.4698
8.77298	22.2261
8.75816	21.9624
8.7434	21.667
8.72868	21.5367
8.714	21.2177
8.69938	20.5157
8.68481	19.7138
8.67029	18.5482
8.65581	16.7923
8.64139	15.0239
8.62701	14.266
8.61268	15.142
8.5984	17.0533
8.58416	18.7391
8.56997	20.0234
8.55583	20.81
8.54174	21.1894
8.52769	21.4203
8.51368	21.5976
8.49973	21.557
8.48582	21.522
8.47195	21.5072
8.45813	21.3619
8.44436	21.1444
8.43062	20.9642
8.41693	20.8411
8.4033	20.7941
8.3897	20.8193
8.37614	20.8255
8.36264	20.8098
8.34917	20.8879
8.33574	21.0226
8.32236	21.1193
8.30903	21.2924
8.29573	21.6976
8.28248	22.1441
8.26927	22.5437
8.2561	22.9687
8.24298	23.5064
8.2299	23.9977
8.21685	24.3563
8.20385	24.5486
8.19089	24.5548
8.17797	24.5017
8.16509	24.3008
8.15225	23.7445
8.13946	22.8299
8.1267	21.721
8.11398	20.5975
8.10131	19.514
8.08867	18.4285
8.07606	17.3852
8.0635	16.4637
8.05099	15.5864
8.0385	14.776
8.02606	14.0574
8.01366	13.3541
8.00129	12.6182
7.98896	11.9006
7.97667	11.2625
7.96442	10.6172
7.9522	9.83513
7.94002	9.17829
7.92788	8.51162
7.91578	7.78494
7.90371	7.14081
7.89168	6.54272
7.87969	5.98902
7.86773	5.58656
7.85581	5.21765
7.84392	4.87555
7.83207	4.49915
7.82026	4.22588
7.80849	4.0667
7.79674	3.97161
7.78503	3.80476
7.77337	3.53217
7.76173	3.43845
7.75012	3.30136
7.73856	3.11887
7.72703	2.94392
7.71553	2.75232
7.70406	2.62761
7.69263	2.48705
7.68123	2.34335
7.66987	2.0815
7.65855	1.8405
7.64725	1.72678
7.63598	1.58989
7.62475	1.41842
7.61356	1.28078
7.60239	1.25844
7.59126	1.21154
7.58017	1.07635
7.5691	1.00407
7.55806	0.887629
7.54707	0.880416
7.5361	0.89549
7.52516	0.791117
7.51425	0.675597
7.50338	0.553169
7.49253	0.433717
7.48172	0.403942
7.47094	0.397822
7.46019	0.423666
7.44947	0.414918
7.43879	0.326383
7.42813	0.375454
7.4175	0.442723
7.4069	0.28702
7.39634	0.228535
7.3858	0.335589
7.37529	0.389355
7.36482	0.427347
7.35437	0.395752
7.34396	0.4366
7.33357	0.49817
7.32321	0.412909
7.31288	0.381086
7.30258	0.485282
7.29231	0.594499
7.28207	0.679509
7.27185	0.763617
7.26167	0.889783
7.25152	1.02951
7.24139	1.12467
7.23129	1.12269
7.22122	1.19499
7.21117	1.29694
7.20116	1.30641
7.19117	1.44252
7.18121	1.5347
7.17128	1.54888
7.16137	1.68034
7.1515	1.76189
7.14164	1.85918
7.13182	2.0152
7.12203	2.21865
7.11225	2.28596
7.10251	2.3255
7.0928	2.46214
7.08311	2.50738
7.07344	2.47115
7.06381	2.54847
7.0542	2.77967
7.04461	2.86852
7.03506	2.92579
7.02552	3.08714
7.01601	3.27863
7.00653	3.47615
6.99708	3.59611
6.98765	3.70208
6.97824	3.90447
6.96886	4.11135
6.95951	4.32866
6.95018	4.50508
6.94087	4.57755
6.9316	4.69845
6.92234	4.87788
6.91311	4.97652
6.90391	5.08068
6.89473	5.1929
6.88557	5.2784
6.87644	5.28966
6.86733	5.30604
6.85824	5.34976
6.84918	5.2758
6.84015	5.22438
6.83114	5.25421
6.82215	5.28259
6.81319	5.24687
6.80424	5.2361
6.79532	5.17591
6.78643	5.15158
6.77756	5.09649
6.76871	4.99228
6.75989	4.85602
6.75109	4.76959
6.74231	4.65973
6.73355	4.58626
6.72482	4.54541
6.71611	4.48934
6.70742	4.46873
6.69875	4.57428
6.69011	4.72942
6.68149	4.96972
6.67289	5.13643
6.66431	5.35947
6.65576	5.60837
6.64722	5.75494
6.63871	5.78831
6.63022	5.70821
6.62175	5.56751
6.61331	5.52747
6.60488	5.53805
6.59648	5.52929
6.5881	5.48287
6.57974	5.41308
6.5714	5.33908
6.56308	5.26341
6.55478	5.20928
6.54651	5.27503
6.53825	5.50358
6.53001	5.90997
6.5218	6.52277
6.51361	7.16371
6.50544	7.87941
6.49729	8.90766
6.48915	9.72583
6.48104	10.3234
6.47295	10.9629
6.46488	11.5105
6.45683	12.0273
6.4488	12.577
6.44079	12.9098
6.4328	13.0548
6.42482	13.2535
6.41687	13.5982
6.40894	13.3746
6.40103	12.8096
6.39314	12.5011
6.38526	12.127
6.37741	11.662
6.36957	11.0849
6.36176	10.3625
6.35396	9.96811
6.34618	9.81109
6.33843	9.41339
6.33069	8.87933
6.32297	8.45739
6.31527	8.01338
6.30758	7.53475
6.29992	7.0952
6.29227	6.76257
6.28465	6.46401
6.27704	6.10729
6.26945	5.7715
6.26188	5.46169
6.25432	5.19381
6.24679	5.00322
6.23927	4.82286
6.23177	4.62349
6.22429	4.54764
6.21683	4.55127
6.20938	4.50022
6.20195	4.53128
6.19454	4.66436
6.18715	4.91147
6.17978	5.16124
6.17242	5.50372
6.16508	6.00435
6.15776	6.51239
6.15045	7.1717
6.14317	7.89672
6.1359	8.63008
6.12864	9.31784
6.12141	10.027
6.11419	10.6923
6.10699	11.1495
6.0998	11.595
6.09263	12.1206
6.08549	12.6457
6.07835	13.18
6.07123	13.4559
6.06413	13.4481
6.05705	13.61
6.04998	13.9133
6.04293	13.7102
6.0359	13.5501
6.02888	13.5312
6.02187	13.4881
6.01489	13.3076
6.00792	12.8881
6.00096	12.4853
5.99403	12.2214
5.98711	11.8546
5.9802	11.2771
5.97331	10.833
5.96644	10.3615
5.95958	9.8752
5.95274	9.65567
5.94591	9.5249
5.9391	9.55667
5.9323	9.47402
5.92552	9.49964
5.91876	9.84517
5.91201	10.2846
5.90528	10.8347
5.89856	11.5517
5.89186	12.2505
5.88517	13.0241
5.8785	13.7274
5.87184	14.1051
5.8652	14.7755
5.85857	15.3897
5.85196	15.9212
5.84536	16.4448
5.83878	17.0843
5.83221	17.8314
5.82566	18.5702
5.81912	19.1227
5.81259	19.519
5.80608	20.0413
5.79959	20.6639
5.79311	21.1388
5.78665	21.6307
5.78019	22.1696
5.77376	22.8043
5.76734	23.5602
5.76093	23.8075
5.75453	23.958
5.74815	24.437
5.74179	24.8192
5.73543	25.1115
5.7291	25.3069
5.72277	25.5254
5.71646	25.7785
5.71017	25.8537
5.70389	25.5574
5.69762	25.2585
5.69136	24.8937
5.68513	24.2583
5.6789	23.516
5.67268	22.5487
5.66648	21.3265
5.6603	20.137
5.65413	18.8671
5.64797	17.7064
5.64182	16.6682
5.63569	15.5516
5.62957	14.5578
5.62347	13.8546
5.61737	13.408
5.61129	12.9572
5.60522	12.5314
5.59917	12.2083
5.59313	12.0287
5.5871	12.0069
5.58109	11.9998
5.57509	11.9683
5.5691	11.9762
5.56312	12.1137
5.55716	12.292
5.55121	12.4583
5.54528	12.7331
5.53935	13.1819
5.53344	13.6083
5.52754	14.0577
5.52166	14.6609
5.51578	15.2345
5.50992	15.7385
5.50407	16.3513
5.49823	16.9446
5.49241	17.5498
5.4866	18.1083
5.4808	18.6102
5.47501	19.0247
5.46923	19.5049
5.46347	19.9311
5.45772	20.0984
5.45198	20.1397
5.44625	20.0162
5.44054	19.5667
5.43484	18.8885
5.42914	18.1851
5.42347	17.3617
5.4178	16.2014
5.41214	14.9895
5.4065	13.7919
5.40087	12.4977
5.39525	11.2746
5.38964	10.1763
5.38404	9.21985
5.37846	8.4027
5.37288	7.74426
5.36732	7.30624
5.36177	6.90522
5.35623	6.67482
5.35071	6.5529
5.34519	6.42797
5.33968	6.4338
5.33419	6.56584
5.32871	6.6192
5.32324	6.74562
5.31778	6.91281
5.31233	6.945
5.30689	7.03434
5.30147	7.2052
5.29605	7.44984
5.29065	7.7156
5.28525	7.97509
5.27987	8.32614
5.2745	8.76513
5.26914	9.27437
5.26379	9.86267
5.25845	10.5322
5.25312	11.2738
5.24781	12.0792
5.2425	12.9753
5.23721	14.0526
5.23192	15.199
5.22665	16.2737
5.22138	17.3272
5.21613	18.3592
5.21089	19.1511
5.20566	19.7096
5.20044	20.0698
5.19522	20.1803
5.19002	20.1933
5.18483	20.1146
5.17965	20.0023
5.17448	19.8918
5.16933	19.7778
5.16418	19.6577
5.15904	19.5326
5.15391	19.4177
5.14879	19.35
5.14368	19.202
5.13859	19.0021
5.1335	18.9219
5.12842	18.8999
5.12335	18.8828
5.1183	18.8815
5.11325	18.8262
5.10821	18.7397
5.10318	18.5898
5.09817	18.3209
5.09316	17.9507
5.08816	17.4814
5.08317	17.0429
5.07819	16.6345
5.07322	16.3185
5.06826	16.1281
5.06331	16.072
5.05837	15.9606
5.05344	15.812
5.04852	15.7602
5.04361	15.7575
5.03871	15.8074
5.03382	15.843
5.02894	15.6944
5.02406	15.508
5.0192	15.4737
5.01435	15.4695
5.0095	15.4315
5.00467	15.5755
4.99984	15.7704
4.99502	15.9569
4.99021	16.2266
4.98542	16.6367
4.98063	17.2692
4.97585	18.0194
4.97108	18.8534
4.96632	19.8658
4.96156	20.9837
4.95682	21.9407
4.95209	22.6712
4.94736	23.2448
4.94264	23.7123
4.93794	24.1074
4.93324	24.5077
4.92855	25.0325
4.92387	25.7189
4.9192	26.6932
4.91453	28.1182
4.90988	29.8261
4.90524	31.6594
4.9006	33.7242
4.89597	35.9111
4.89135	38.0173
4.88674	39.9551
4.88214	41.7928
4.87755	43.4544
4.87296	44.9928
4.86839	46.3383
4.86382	47.5146
4.85926	48.5719
4.85471	49.5742
4.85017	50.5317
4.84564	51.3393
4.84111	52.051
4.8366	52.7384
4.83209	53.3618
4.82759	54.0164
4.8231	54.6809
4.81862	55.2468
4.81415	55.7549
4.80968	56.2635
4.80522	56.7279
4.80077	57.1548
4.79633	57.6347
4.7919	58.1137
4.78747	58.4891
4.78306	58.8884
4.77865	59.2295
4.77425	59.5915
4.76986	59.925
4.76547	60.3146
4.7611	60.6522
4.75673	60.9353
4.75237	61.1369
4.74802	61.3085
4.74367	61.5163
4.73934	61.7188
4.73501	61.8992
4.73069	62.0234
4.72638	62.0285
4.72207	61.9583
4.71777	61.8949
4.71348	61.6486
4.7092	61.2908
4.70493	60.8039
4.70066	60.1004
4.69641	59.2436
4.69216	58.4319
4.68791	57.7621
4.68368	57.4309
4.67945	57.4707
4.67523	57.8327
4.67102	58.5365
4.66682	59.4088
4.66262	60.2515
4.65843	60.943
4.65425	61.6251
4.65007	62.3201
4.64591	63.0485
4.64175	63.6899
4.6376	64.3432
4.63345	64.9565
4.62932	65.4977
4.62519	65.9607
4.62106	66.3169
4.61695	66.6303
4.61284	66.933
4.60874	67.1583
4.60465	67.3508
4.60056	67.5152
4.59648	67.6869
4.59241	67.7769
4.58835	67.8073
4.58429	67.8911
4.58024	67.9449
4.5762	67.9274
4.57216	67.8589
4.56814	67.7301
4.56411	67.553
4.5601	67.2773
4.55609	66.9542
4.55209	66.59
4.5481	66.1422
4.54411	65.5915
4.54013	64.9722
4.53616	64.2439
4.5322	63.4592
4.52824	62.6901
4.52429	61.9117
4.52034	61.0117
4.51641	60.0342
4.51247	59.0219
4.50855	57.9748
4.50463	56.9824
4.50072	56.1141
4.49682	55.4253
4.49292	54.9691
4.48903	54.6325
4.48515	54.3897
4.48127	54.1252
4.4774	53.7576
4.47354	53.4879
4.46968	53.3673
4.46584	53.4143
4.46199	53.6577
4.45815	54.0165
4.45432	54.4828
4.4505	55.0289
4.44668	55.4417
4.44287	55.6805
4.43907	55.9523
4.43527	56.2048
4.43148	56.524
4.4277	56.8652
4.42392	57.2672
4.42015	57.6505
4.41638	57.9566
4.41262	58.3092
4.40887	58.826
4.40513	59.3389
4.40139	59.8167
4.39765	60.2168
4.39393	60.6492
4.39021	61.1685
4.38649	61.7649
4.38278	62.3937
4.37908	62.9934
4.37539	63.5638
4.3717	64.0856
4.36801	64.534
4.36434	64.9901
4.36067	65.5054
4.357	65.991
4.35335	66.3553
4.34969	66.6609
4.34605	66.9849
4.34241	67.2416
4.33877	67.3827
4.33514	67.613
4.33152	67.8588
4.32791	67.9377
4.3243	67.9085
4.32069	67.9265
4.3171	67.8775
4.31351	67.7794
4.30992	67.6857
4.30634	67.6417
4.30277	67.5827
4.2992	67.4806
4.29564	67.4084
4.29208	67.4128
4.28853	67.4838
4.28499	67.5908
4.28145	67.6724
4.27792	67.7924
4.27439	67.9475
4.27087	68.1213
4.26735	68.4323
4.26384	68.7167
4.26034	68.9248
4.25684	69.1338
4.25335	69.1321
4.24986	68.9904
4.24638	68.8478
4.24291	68.8066
4.23944	68.8234
4.23598	68.7451
4.23252	68.6587
4.22906	68.6967
4.22562	68.7355
4.22218	68.7818
4.21874	68.8782
4.21531	68.998
4.21189	69.013
4.20847	68.9761
4.20506	68.9476
4.20165	68.9405
4.19825	68.969
4.19485	69.0435
4.19146	69.1755
4.18807	69.3204
4.18469	69.4573
4.18132	69.6009
4.17795	69.7791
4.17458	70.0271
4.17123	70.138
4.16787	70.2181
4.16453	70.3067
4.16118	70.4204
4.15785	70.5734
4.15451	70.7098
4.15119	70.7998
4.14787	70.8745
4.14455	70.929
4.14124	71.1121
4.13794	71.3301
4.13464	71.485
4.13134	71.5438
4.12805	71.6636
4.12477	71.8421
4.12149	72.0201
4.11822	72.1672
4.11495	72.3693
4.11168	72.5516
4.10843	72.7296
4.10517	72.8905
4.10192	73.0264
4.09868	73.18
4.09545	73.3517
4.09221	73.4874
4.08899	73.5993
4.08576	73.694
4.08255	73.8313
4.07933	73.998
4.07613	74.1224
4.07292	74.1675
4.06973	74.2084
4.06654	74.2608
4.06335	74.2974
4.06017	74.3241
4.05699	74.3599
4.05382	74.3928
4.05065	74.412
4.04749	74.3728
4.04433	74.3387
4.04118	74.3222
4.03803	74.2966
4.03489	74.2788
4.03175	74.2879
4.02862	74.211
4.02549	74.1393
4.02237	74.0915
4.01925	74.0597
4.01614	74.0584
4.01303	74.102
4.00993	74.1442
4.00683	74.1605
4.00373	74.1868
4.00064	74.2229
3.99756	74.2138
3.99448	74.2769
3.9914	74.2937
3.98833	74.3474
3.98527	74.4262
3.98221	74.4915
3.97915	74.5959
3.9761	74.7135
3.97305	74.7445
3.97001	74.7767
3.96697	74.9184
3.96394	75.0428
3.96091	75.0588
3.95789	75.1724
3.95487	75.3033
3.95186	75.4017
3.94885	75.4867
3.94584	75.5826
3.94284	75.6573
3.93984	75.7537
3.93685	75.8474
3.93386	75.887
3.93088	75.9203
3.9279	75.9227
3.92493	75.903
3.92196	75.9966
3.919	76.028
3.91604	76.0378
3.91308	76.0371
3.91013	75.9737
3.90718	75.9231
3.90424	75.8997
3.9013	75.9052
3.89837	75.9064
3.89544	75.8415
3.89252	75.6966
3.8896	75.548
3.88668	75.5014
3.88377	75.4647
3.88086	75.3992
3.87796	75.292
3.87506	75.2735
3.87217	75.2027
3.86928	75.1369
3.86639	75.1275
3.86351	75.0857
3.86064	75.0686
3.85776	75.0952
3.8549	75.0744
3.85203	74.9962
3.84917	74.9216
3.84631	74.9174
3.84346	74.9173
3.84062	74.9982
3.83777	75.1013
3.83494	75.1785
3.8321	75.1841
3.82927	75.16
3.82644	75.1964
3.82362	75.2408
3.82081	75.3089
3.81799	75.3912
3.81518	75.3943
3.81238	75.419
3.80958	75.4465
3.80678	75.4908
3.80399	75.5045
3.8012	75.4829
3.79841	75.4543
3.79563	75.4839
3.79286	75.4696
3.79008	75.4226
3.78731	75.3799
3.78455	75.3299
3.78179	75.2875
3.77903	75.3029
3.77628	75.2328
3.77353	75.1504
3.77079	75.0505
3.76805	74.9445
3.76531	74.8911
3.76258	74.8418
3.75985	74.7817
3.75713	74.6301
3.7544	74.5611
3.75169	74.6253
3.74898	74.6304
3.74627	74.6239
3.74356	74.5913
3.74086	74.6072
3.73816	74.6015
3.73547	74.5947
3.73278	74.6616
3.7301	74.7435
3.72741	74.8213
3.72474	74.9161
3.72206	74.9373
3.71939	74.9276
3.71673	75.0046
3.71406	75.1406
3.71141	75.245
3.70875	75.3318
3.7061	75.4331
3.70345	75.5343
3.70081	75.6758
3.69817	75.7894
3.69553	75.913
3.6929	76.0872
3.69027	76.1719
3.68765	76.2298
3.68503	76.297
3.68241	76.4521
3.6798	76.6095
3.67719	76.7027
3.67458	76.7523
3.67198	76.8953
3.66938	76.9949
3.66678	77.1033
3.66419	77.1527
3.66161	77.1891
3.65902	77.1889
3.65644	77.2322
3.65387	77.278
3.65129	77.3527
3.64872	77.4116
3.64616	77.3964
3.64359	77.3803
3.64103	77.4422
3.63848	77.4735
3.63593	77.5024
3.63338	77.488
3.63084	77.3928
3.6283	77.353
3.62576	77.3731
3.62322	77.4236
3.62069	77.4676
3.61817	77.461
3.61564	77.4127
3.61312	77.4198
3.61061	77.4504
3.6081	77.4463
3.60559	77.458
3.60308	77.4366
3.60058	77.4958
3.59808	77.5507
3.59558	77.5068
3.59309	77.5626
3.59061	77.598
3.58812	77.6181
3.58564	77.6517
3.58316	77.5848
3.58069	77.5924
3.57822	77.6766
3.57575	77.6875
3.57328	77.6627
3.57082	77.643
3.56836	77.7026
3.56591	77.7532
3.56346	77.8328
3.56101	77.9491
3.55857	78.0005
3.55613	77.9109
3.55369	77.8664
3.55126	77.9324
3.54883	77.9477
3.5464	77.9569
3.54397	78.0226
3.54155	78.0613
3.53914	77.9924
3.53672	77.9569
3.53431	78.0086
3.5319	78.0142
3.5295	77.9905
3.5271	77.9844
3.5247	77.9091
3.52231	77.8941
3.51991	77.8664
3.51753	77.7816
3.51514	77.6463
3.51276	77.5113
3.51038	77.2588
3.50801	76.9846
3.50563	76.8196
3.50327	76.7382
3.5009	76.5934
3.49854	76.6367
3.49618	76.8263
3.49382	77.0249
3.49147	77.1539
3.48912	77.3064
3.48677	77.4778
3.48443	77.5783
3.48209	77.5177
3.47975	77.4554
3.47742	77.4962
3.47509	77.5657
3.47276	77.5247
3.47044	77.5126
3.46812	77.5681
3.4658	77.6479
3.46348	77.6508
3.46117	77.62
3.45886	77.6406
3.45656	77.579
3.45425	77.4966
3.45195	77.5002
3.44966	77.4667
3.44736	77.3648
3.44507	77.2803
3.44279	77.1525
3.4405	77.0083
3.43822	77.0093
3.43594	76.8994
3.43367	76.7239
3.43139	76.5837
3.42912	76.2901
3.42686	76.03
3.42459	75.7893
3.42233	75.5419
3.42007	75.3445
3.41782	75.2122
3.41557	75.1977
3.41332	75.2463
3.41108	75.3804
3.40883	75.5826
3.40659	75.725
3.40435	75.7963
3.40212	75.9801
3.39989	76.2847
3.39766	76.3938
3.39544	76.4596
3.39322	76.6253
3.391	76.7202
3.38878	76.759
3.38657	76.7119
3.38436	76.6621
3.38215	76.6437
3.37994	76.6177
3.37774	76.5505
3.37554	76.5738
3.37335	76.6033
3.37115	76.6403
3.36896	76.7925
3.36678	76.9384
3.36459	77.0709
3.36241	77.2472
3.36023	77.3543
3.35805	77.4447
3.35588	77.5123
3.35371	77.5681
3.35154	77.6321
3.34938	77.6728
3.34721	77.6931
3.34505	77.7452
3.3429	77.6764
3.34074	77.7064
3.33859	77.8437
3.33644	77.8617
3.3343	77.8504
3.33215	77.9038
3.33001	77.9621
3.32788	77.9982
3.32574	78.0168
3.32361	78.0735
3.32148	78.1278
3.31936	78.1995
3.31723	78.1807
3.31511	78.1633
3.31299	78.144
3.31088	78.0724
3.30876	78.0092
3.30665	78.037
3.30455	78.0369
3.30244	78.0347
3.30034	77.9993
3.29824	77.9663
3.29614	77.987
3.29405	78.011
3.29196	77.9278
3.28987	77.8373
3.28778	77.8358
3.2857	77.868
3.28362	77.8587
3.28154	77.8901
3.27946	77.9035
3.27739	77.914
3.27532	77.9122
3.27325	77.8162
3.27119	77.8335
3.26913	77.902
3.26707	77.8699
3.26501	77.7476
3.26295	77.7093
3.2609	77.7699
3.25885	77.7321
3.2568	77.6626
3.25476	77.6835
3.25272	77.688
3.25068	77.6515
3.24864	77.6201
3.24661	77.5489
3.24458	77.5136
3.24255	77.49
3.24052	77.5053
3.2385	77.5161
3.23648	77.5153
3.23446	77.4893
3.23244	77.5729
3.23043	77.6066
3.22841	77.546
3.2264	77.5383
3.2244	77.5099
3.22239	77.4255
3.22039	77.4029
3.21839	77.3734
3.2164	77.3483
3.2144	77.3786
3.21241	77.3396
3.21042	77.3117
3.20844	77.3267
3.20645	77.3177
3.20447	77.3503
3.20249	77.3342
3.20051	77.2434
3.19854	77.2246
3.19657	77.2159
3.1946	77.1671
3.19263	77.1309
3.19067	77.1179
3.1887	77.0517
3.18674	76.9632
3.18479	76.9312
3.18283	76.8961
3.18088	76.9184
3.17893	76.9877
3.17698	76.9915
3.17504	76.8997
3.17309	76.8159
3.17115	76.8537
3.16921	76.8627
3.16728	76.7569
3.16534	76.6742
3.16341	76.7325
3.16148	76.731
3.15956	76.7448
3.15763	76.6369
3.15571	76.5525
3.15379	76.6314
3.15187	76.6605
3.14996	76.5712
3.14805	76.4234
3.14614	76.302
3.14423	76.2482
3.14232	76.2156
3.14042	76.2487
3.13852	76.1334
3.13662	76.0383
3.13472	76.0449
3.13283	76.0451
3.13094	76.0033
3.12905	75.9908
3.12716	75.9351
3.12528	75.9093
3.12339	75.8789
3.12151	75.9003
3.11964	75.924
3.11776	75.8997
3.11589	75.903
3.11401	75.854
3.11214	75.8789
3.11028	75.8931
3.10841	75.8474
3.10655	75.8707
3.10469	75.9334
3.10283	75.9682
3.10098	75.9326
3.09912	75.9361
3.09727	75.977
3.09542	75.8972
3.09358	75.8402
3.09173	75.8563
3.08989	75.8646
3.08805	75.8384
3.08621	75.7416
3.08437	75.7448
3.08254	75.8342
3.08071	75.8351
3.07888	75.7627
3.07705	75.7234
3.07523	75.6979
3.0734	75.6202
3.07158	75.5514
3.06977	75.5082
3.06795	75.5132
3.06613	75.5163
3.06432	75.4751
3.06251	75.4176
3.0607	75.2827
3.0589	75.2309
3.0571	75.3034
3.05529	75.2622
3.05349	75.1383
3.0517	75.0472
3.0499	75.0625
3.04811	75.0182
3.04632	74.8835
3.04453	74.8146
3.04274	74.8254
3.04096	74.7742
3.03918	74.6797
3.0374	74.6753
3.03562	74.6184
3.03384	74.5914
3.03207	74.6488
3.03029	74.6141
3.02852	74.5844
3.02676	74.4969
3.02499	74.4786
3.02323	74.5231
3.02146	74.4913
3.0197	74.5452
3.01795	74.6302
3.01619	74.6714
3.01444	74.6382
3.01269	74.4704
3.01094	74.4622
3.00919	74.592
3.00744	74.5967
3.0057	74.5871
3.00396	74.6005
3.00222	74.599
3.00048	74.5809
2.99875	74.5748
2.99701	74.5266
2.99528	74.5323
2.99355	74.6327
2.99183	74.542
2.9901	74.4107
2.98838	74.4185
2.98666	74.4975
2.98494	74.5114
2.98322	74.5086
2.9815	74.5209
2.97979	74.4872
2.97808	74.5579
2.97637	74.5204
2.97466	74.3536
2.97295	74.2197
2.97125	74.1381
2.96955	74.1688
2.96785	74.1602
2.96615	74.0565
2.96446	73.8639
2.96276	73.7646
2.96107	73.7777
2.95938	73.7471
2.95769	73.7408
2.95601	73.7565
2.95432	73.8027
2.95264	73.8697
2.95096	73.9083
2.94928	74.0413
2.9476	74.238
2.94593	74.2944
2.94425	74.2268
2.94258	74.1772
2.94092	74.1731
2.93925	74.2766
2.93758	74.2902
2.93592	74.2932
2.93426	74.3061
2.9326	74.2796
2.93094	74.3046
2.92928	74.401
2.92763	74.4068
2.92598	74.3841
2.92433	74.3626
2.92268	74.3992
2.92103	74.4096
2.91939	74.342
2.91775	74.3288
2.9161	74.4027
2.91447	74.4085
2.91283	74.3067
2.91119	74.3705
2.90956	74.6054
2.90793	74.6646
2.9063	74.5839
2.90467	74.5538
2.90304	74.657
2.90142	74.7399
2.89979	74.6797
2.89817	74.6332
2.89656	74.654
2.89494	74.7629
2.89332	74.9184
2.89171	75.0505
2.8901	75.0651
2.88849	75.029
2.88688	75.0126
2.88527	75.0234
2.88367	74.9842
2.88206	74.9622
2.88046	75.0006
2.87886	75.0364
2.87727	75.1228
2.87567	75.2627
2.87408	75.3434
2.87248	75.2681
2.87089	75.1954
2.8693	75.2801
2.86772	75.3862
2.86613	75.4327
2.86455	75.4839
2.86297	75.5221
2.86139	75.5287
2.85981	75.5138
2.85823	75.5437
2.85666	75.6868
2.85508	75.8312
2.85351	75.8373
2.85194	75.8213
2.85038	75.9315
2.84881	76.0226
2.84724	76.0164
2.84568	75.8822
2.84412	75.7811
2.84256	76.0059
2.841	76.2303
2.83945	76.2135
2.83789	76.1709
2.83634	76.1648
2.83479	76.1775
2.83324	76.2123
2.83169	76.2648
2.83015	76.2333
2.82861	76.3566
2.82706	76.4463
2.82552	76.4218
2.82398	76.3309
2.82245	76.4405
2.82091	76.5883
2.81938	76.6727
2.81784	76.6952
2.81631	76.7227
2.81479	76.7708
2.81326	76.6744
2.81173	76.6212
2.81021	76.6705
2.80869	76.7008
2.80716	76.7726
2.80565	76.9079
2.80413	77.1205
2.80261	77.1497
2.8011	76.9775
2.79959	76.9189
2.79808	76.8756
2.79657	76.7904
2.79506	76.8088
2.79355	76.9382
2.79205	76.9996
2.79055	77.0136
2.78904	77.2105
2.78754	77.4012
2.78605	77.3859
2.78455	77.1936
2.78306	77.1184
2.78156	77.1735
2.78007	77.0881
2.77858	77.1965
2.77709	77.4056
2.77561	77.3856
2.77412	77.4927
2.77264	77.6582
2.77116	77.8634
2.76968	77.9343
2.7682	77.9676
2.76672	77.8474
2.76524	77.4698
2.76377	77.5127
2.7623	77.6457
2.76083	77.4787
2.75936	77.499
2.75789	77.9019
2.75642	78.5718
2.75496	78.7
2.7535	78.1467
2.75203	78.0487
2.75057	78.1846
2.74912	78.1647
2.74766	78.1277
2.7462	78.1594
2.74475	78.3069
2.7433	78.5562
2.74185	79.082
2.7404	79.5345
2.73895	79.3604
2.7375	78.8476
2.73606	78.9546
2.73462	79.2107
2.73318	79.1463
2.73174	79.2302
2.7303	79.3372
2.72886	79.3055
2.72742	79.5224
2.72599	80.1027
2.72456	80.5439
2.72313	80.2835
2.7217	80.4946
2.72027	80.8731
2.71884	80.5268
2.71742	80.4478
2.71599	80.5187
2.71457	80.5938
2.71315	80.6867
2.71173	81.192
2.71032	81.313
2.7089	81.0545
2.70748	80.8654
2.70607	80.7306
2.70466	80.7716
2.70325	80.9559
2.70184	81.2457
2.70043	81.2536
2.69903	81.1892
2.69762	81.3126
2.69622	81.6321
2.69482	82.0022
2.69342	82.0384
2.69202	81.7511
2.69062	81.6295
2.68923	81.6413
2.68783	81.7753
2.68644	81.8688
2.68505	81.8292
2.68366	81.8639
2.68227	81.7876
2.68089	81.8563
2.6795	82.2876
2.67812	82.4534
2.67673	82.6199
2.67535	82.4789
2.67397	82.2411
2.6726	82.3488
2.67122	83.2189
2.66984	83.2797
2.66847	82.7577
2.6671	83.2826
2.66572	83.5077
2.66435	83.1097
2.66299	82.4243
2.66162	82.4069
2.66025	82.5218
2.65889	82.5094
2.65753	82.3532
2.65616	82.3861
2.65481	82.42
2.65345	82.6562
2.65209	82.6617
2.65073	82.37
2.64938	82.2564
2.64803	82.3296
2.64667	82.5018
2.64532	82.5505
2.64397	82.3578
2.64263	82.4691
2.64128	82.4566
2.63994	82.2485
2.63859	82.1986
2.63725	82.3164
2.63591	82.3501
2.63457	82.5468
2.63323	82.5922
2.6319	82.7403
2.63056	83.0235
2.62923	82.6749
2.62789	82.7106
2.62656	83.0202
2.62523	82.6054
2.6239	82.4351
2.62258	82.4409
2.62125	82.8165
2.61993	82.9269
2.6186	82.6604
2.61728	83.0787
2.61596	82.9233
2.61464	82.4676
2.61332	82.5261
2.61201	82.4146
2.61069	82.4399
2.60938	82.5956
2.60807	82.6644
2.60675	82.9614
2.60544	83.2807
2.60414	82.9953
2.60283	82.7331
2.60152	82.6107
2.60022	82.5022
2.59891	82.5076
2.59761	82.5673
2.59631	83.1852
2.59501	83.9525
2.59371	83.3164
2.59242	82.4464
2.59112	82.3166
2.58983	82.514
2.58853	82.7031
2.58724	82.9017
2.58595	82.85
2.58466	83.0492
2.58338	83.0191
2.58209	82.7289
2.5808	82.6398
2.57952	82.4162
2.57824	82.5011
2.57695	82.6644
2.57567	82.5858
2.5744	82.7378
2.57312	82.9023
2.57184	82.6211
2.57057	82.7084
2.56929	82.7693
2.56802	82.4317
2.56675	82.3832
2.56548	82.6059
2.56421	82.8344
2.56294	82.8938
2.56168	82.8911
2.56041	82.7214
2.55915	82.4893
2.55789	82.376
2.55662	82.384
2.55536	82.3989
2.5541	82.4003
2.55285	82.4663
2.55159	82.52
2.55034	82.4901
2.54908	82.494
2.54783	82.4865
2.54658	82.4398
2.54533	82.4761
2.54408	82.4846
2.54283	82.4449
2.54159	82.42
2.54034	82.4283
2.5391	82.473
2.53785	82.43
2.53661	82.456
2.53537	82.5049
2.53413	82.4421
2.53289	82.4866
2.53166	82.5547
2.53042	82.5045
2.52919	82.4098
2.52795	82.4623
2.52672	82.4803
2.52549	82.3267
2.52426	82.3304
2.52303	82.4549
2.52181	82.4267
2.52058	82.3642
2.51936	82.3846
2.51813	82.4309
2.51691	82.4794
2.51569	82.5362
2.51447	82.4974
2.51325	82.464
2.51203	82.459
2.51082	82.4264
2.5096	82.457
2.50839	82.4702
2.50717	82.4153
2.50596	82.4254
2.50475	82.4687
2.50354	82.4198
2.50233	82.337
2.50113	82.3839
2.49992	82.3641
2.49872	82.2754
2.49751	82.271
2.49631	82.4468
2.49511	82.5281
2.49391	82.5328
2.49271	82.5937
2.49151	82.5584
2.49031	82.5113
2.48912	82.5224
2.48792	82.4661
2.48673	82.3928
2.48554	82.4053
2.48435	82.4456
2.48316	82.417
2.48197	82.4346
2.48078	82.443
2.4796	82.4111
2.47841	82.4044
2.47723	82.4062
2.47604	82.4351
2.47486	82.435
2.47368	82.4441
2.4725	82.4336
2.47132	82.3986
2.47014	82.4501
2.46897	82.453
2.46779	82.5005
2.46662	82.5179
2.46545	82.4449
2.46427	82.4587
2.4631	82.3722
2.46193	82.2635
2.46077	82.41
2.4596	82.5103
2.45843	82.3534
2.45727	82.3139
2.4561	82.4611
2.45494	82.528
2.45378	82.4055
2.45262	82.291
2.45146	82.3704
2.4503	82.4878
2.44914	82.4837
2.44799	82.4432
2.44683	82.543
2.44568	82.5338
2.44452	82.4682
2.44337	82.5428
2.44222	82.556
2.44107	82.4162
2.43992	82.4003
2.43877	82.3718
2.43763	82.4674
2.43648	82.5027
2.43534	82.5222
2.43419	82.5593
2.43305	82.5398
2.43191	82.4533
2.43077	82.4158
2.42963	82.392
2.42849	82.4034
2.42736	82.5084
2.42622	82.5307
2.42509	82.5404
2.42395	82.5876
2.42282	82.692
2.42169	82.6762
2.42056	82.4818
2.41943	82.4207
2.4183	82.4746
2.41717	82.5321
2.41605	82.5857
2.41492	82.5336
2.4138	82.4628
2.41267	82.401
2.41155	82.408
2.41043	82.4845
2.40931	82.5672
2.40819	82.6374
2.40707	82.6174
2.40595	82.5924
2.40484	82.5329
2.40372	82.4539
2.40261	82.4829
2.4015	82.5089
2.40039	82.4871
2.39928	82.4309
2.39817	82.3916
2.39706	82.4635
2.39595	82.483
2.39484	82.4715
2.39374	82.4646
2.39263	82.5461
2.39153	82.6228
2.39043	82.5644
2.38932	82.4928
2.38822	82.4689
2.38712	82.4669
2.38603	82.5346
2.38493	82.5621
2.38383	82.4915
2.38274	82.5198
2.38164	82.6479
2.38055	82.643
2.37946	82.5022
2.37836	82.4977
2.37727	82.5892
2.37618	82.6044
2.3751	82.625
2.37401	82.569
2.37292	82.4571
2.37184	82.434
2.37075	82.4552
2.36967	82.5015
2.36859	82.5832
2.3675	82.6391
2.36642	82.6394
2.36534	82.5766
2.36427	82.4718
2.36319	82.4203
2.36211	82.4222
2.36104	82.5001
2.35996	82.5396
2.35889	82.5724
2.35781	82.7158
2.35674	82.7617
2.35567	82.6667
2.3546	82.6183
2.35353	82.5105
2.35247	82.5046
2.3514	82.5642
2.35033	82.558
2.34927	82.488
2.3482	82.5242
2.34714	82.5359
2.34608	82.5159
2.34502	82.517
2.34396	82.6189
2.3429	82.5233
2.34184	82.4338
2.34078	82.4674
2.33973	82.5159
2.33867	82.4319
2.33762	82.4674
2.33656	82.5846
2.33551	82.6044
2.33446	82.5776
2.33341	82.6761
2.33236	82.5975
2.33131	82.5456
2.33026	82.5824
2.32922	82.5005
2.32817	82.5364
2.32712	82.6461
2.32608	82.5958
2.32504	82.4825
2.324	82.4874
2.32295	82.588
2.32191	82.6484
2.32087	82.5717
2.31984	82.5366
2.3188	82.5651
2.31776	82.6204
2.31673	82.5756
2.31569	82.459
2.31466	82.4138
2.31362	82.5274
2.31259	82.5077
2.31156	82.4292
2.31053	82.4586
2.3095	82.4919
2.30847	82.5415
2.30745	82.603
2.30642	82.6166
2.3054	82.6191
2.30437	82.59
2.30335	82.5763
2.30232	82.6075
2.3013	82.635
2.30028	82.5933
2.29926	82.6545
2.29824	82.6715
2.29722	82.4377
2.29621	82.3525
2.29519	82.3821
2.29417	82.4186
2.29316	82.3636
2.29215	82.4806
2.29113	82.5615
2.29012	82.5644
2.28911	82.6872
2.2881	82.7245
2.28709	82.6201
2.28608	82.6492
2.28507	82.5969
2.28407	82.6303
2.28306	82.5902
2.28206	82.5092
2.28105	82.6139
2.28005	82.7131
2.27905	82.5605
2.27805	82.3722
2.27705	82.4289
2.27605	82.3838
2.27505	82.4034
2.27405	82.5568
2.27305	82.5294
2.27206	82.4211
2.27106	82.4615
2.27007	82.6217
2.26907	82.6026
2.26808	82.5717
2.26709	82.4423
2.2661	82.4972
2.26511	82.613
2.26412	82.4438
2.26313	82.4964
2.26214	82.6894
2.26116	82.6168
2.26017	82.5462
2.25919	82.5318
2.2582	82.5589
2.25722	82.4951
2.25624	82.5069
2.25526	82.6265
2.25428	82.6561
2.2533	82.6496
2.25232	82.6133
2.25134	82.5002
2.25036	82.4365
2.24939	82.3704
2.24841	82.3903
2.24744	82.4761
2.24646	82.5743
2.24549	82.5939
2.24452	82.5831
2.24355	82.5813
2.24257	82.6021
2.24161	82.5843
2.24064	82.6399
2.23967	82.7389
2.2387	82.654
2.23774	82.5439
2.23677	82.6287
2.23581	82.5479
2.23484	82.4563
2.23388	82.5135
2.23292	82.5423
2.23196	82.5634
2.231	82.6565
2.23004	82.6275
2.22908	82.5155
2.22812	82.6158
2.22716	82.6811
2.22621	82.5397
2.22525	82.4663
2.2243	82.6269
2.22334	82.6853
2.22239	82.5367
2.22144	82.5767
2.22049	82.6249
2.21953	82.7101
2.21859	82.7877
2.21764	82.709
2.21669	82.4483
2.21574	82.3593
2.21479	82.4212
2.21385	82.4189
2.2129	82.3917
2.21196	82.4397
2.21102	82.5622
2.21007	82.5517
2.20913	82.4522
2.20819	82.4115
2.20725	82.4711
2.20631	82.6095
2.20537	82.5939
2.20444	82.5362
2.2035	82.5941
2.20256	82.5876
2.20163	82.6073
2.20069	82.6204
2.19976	82.543
2.19883	82.5133
2.19789	82.5576
2.19696	82.6007
2.19603	82.7082
2.1951	82.7214
2.19417	82.5766
2.19325	82.5801
2.19232	82.6126
2.19139	82.6254
2.19047	82.5768
2.18954	82.5762
2.18862	82.5468
2.18769	82.5759
2.18677	82.7429
2.18585	82.7452
2.18493	82.5411
2.18401	82.4322
2.18309	82.3998
2.18217	82.3958
2.18125	82.5559
2.18033	82.6539
2.17942	82.6938
2.1785	82.858
2.17759	82.852
2.17667	82.7822
2.17576	82.5392
2.17485	82.48
2.17393	82.531
2.17302	82.608
2.17211	82.765
2.1712	82.7523
2.17029	82.631
2.16939	82.6853
2.16848	82.8048
2.16757	82.7072
2.16667	82.6508
2.16576	82.655
2.16486	82.7905
2.16395	82.9198
2.16305	82.9553
2.16215	82.9723
2.16125	82.6755
2.16035	82.5316
2.15945	82.538
2.15855	82.5531
2.15765	82.6707
2.15675	82.6908
2.15586	82.5868
2.15496	82.5276
2.15406	82.4904
2.15317	82.6083
2.15228	82.5991
2.15138	82.6191
2.15049	82.7711
2.1496	82.9525
2.14871	82.8807
2.14782	82.7771
2.14693	82.6769
2.14604	82.6831
2.14515	82.7178
2.14427	82.6708
2.14338	82.6222
2.14249	82.6512
2.14161	82.6609
2.14072	82.6953
2.13984	82.6164
2.13896	82.6744
2.13808	82.7248
2.13719	82.8253
2.13631	82.7979
2.13543	82.7841
2.13455	82.7877
2.13368	82.8146
2.1328	82.7544
2.13192	82.7067
2.13105	82.5359
2.13017	82.6804
2.1293	82.802
2.12842	82.7485
2.12755	82.6079
2.12668	82.513
2.1258	82.6115
2.12493	82.6917
2.12406	82.7335
2.12319	82.8366
2.12232	82.8588
2.12145	82.7883
2.12059	82.7311
2.11972	82.5748
2.11885	82.6176
2.11799	82.7398
2.11712	82.6602
2.11626	82.7762
2.1154	82.8117
2.11453	82.6984
2.11367	82.6582
2.11281	82.6998
2.11195	82.6499
2.11109	82.5491
2.11023	82.6027
2.10937	82.5734
2.10851	82.5192
2.10766	82.6068
2.1068	82.741
2.10594	82.7107
2.10509	82.7803
2.10423	82.8088
2.10338	82.8187
2.10253	82.7603
2.10168	82.5969
2.10082	82.4826
2.09997	82.5762
2.09912	82.6653
2.09827	82.7175
2.09742	82.7247
2.09658	82.7731
2.09573	82.7402
2.09488	82.5669
2.09404	82.7144
2.09319	82.7177
2.09235	82.7845
2.0915	82.7454
2.09066	82.6129
2.08982	82.4796
2.08897	82.6148
2.08813	82.8648
2.08729	82.8133
2.08645	82.6159
2.08561	82.5851
2.08477	82.7753
2.08394	82.8393
2.0831	82.8341
2.08226	82.9974
2.08143	82.8776
2.08059	82.4241
2.07976	82.3504
2.07892	82.8649
2.07809	83.0542
2.07726	82.7068
2.07643	82.8619
2.07559	83.0307
2.07476	82.6581
2.07393	82.5426
2.0731	82.66
2.07228	82.733
2.07145	82.8299
2.07062	82.8415
2.06979	82.7358
2.06897	82.5304
2.06814	82.548
2.06732	82.8803
2.06649	83.0167
2.06567	82.8149
2.06485	82.5386
2.06403	82.6663
2.0632	82.6625
2.06238	82.6117
2.06156	82.6794
2.06074	82.8668
2.05993	82.9845
2.05911	83.0378
2.05829	82.9252
2.05747	82.6647
2.05666	82.6726
2.05584	82.7594
2.05503	82.8677
2.05421	82.8791
2.0534	82.7662
2.05259	82.66
2.05177	82.6819
2.05096	82.6743
2.05015	82.7731
2.04934	82.8354
2.04853	82.7742
2.04772	82.8227
2.04691	82.7918
2.04611	82.6373
2.0453	82.5574
2.04449	82.4759
2.04369	82.4738
2.04288	82.5171
2.04208	82.6273
2.04127	82.6784
2.04047	82.6302
2.03967	82.7099
2.03886	82.9499
2.03806	82.8709
2.03726	82.7077
2.03646	82.6369
2.03566	82.6903
2.03486	82.7477
2.03407	82.7545
2.03327	82.8489
2.03247	82.4846
2.03167	82.3432
2.03088	82.5988
2.03008	82.9043
2.02929	83.1253
2.0285	82.9352
2.0277	82.8074
2.02691	82.7512
2.02612	82.6953
2.02533	82.5923
2.02453	82.6732
2.02374	82.843
2.02295	82.7289
2.02217	82.6974
2.02138	82.7453
2.02059	82.8465
2.0198	83.0087
2.01902	82.8719
2.01823	82.6321
2.01744	82.62
2.01666	82.6622
2.01588	82.7104
2.01509	82.6702
2.01431	82.7343
2.01353	82.5121
2.01275	82.5136
2.01196	82.7036
2.01118	82.7844
2.0104	82.7656
2.00963	82.9146
2.00885	82.695
2.00807	82.6757
2.00729	82.8773
2.00651	82.577
2.00574	82.5412
2.00496	82.8945
2.00419	83.0044
2.00341	82.9059
2.00264	82.8295
2.00187	82.9472
2.00109	82.9324
2.00032	82.7378
