Name: Cerussite PbCO_3
Type: Mineral
Class: Carbonates
Subclass: 
Particle Size: 45-125um
Sample No.: C-10A
Owner: JPL
Wavelength range: IR
Origin: USA, Arizona, Flux Mine
Collected by JPL
Description: 





Measurement: Hemispherical reflectance
First Column: X
Second Column: Y
X Units:  Wavelength (micrometers)
Y Units:  Reflectance (percent)
First X Value: 15.3853
Last X Value: 2.00032
Number of X Values: 2256
Additional information: c10aa.txt
 
15.3853	17.4747
15.3397	18.2306
15.2945	18.3199
15.2495	17.7413
15.2048	17.0677
15.1603	16.0665
15.1161	14.3873
15.0722	12.1839
15.0285	10.1457
14.9851	8.98824
14.9419	8.50145
14.8989	8.06211
14.8563	8.41895
14.8138	10.1687
14.7716	12.265
14.7296	11.5708
14.6879	7.89998
14.6464	4.66328
14.6052	3.93534
14.5641	5.16258
14.5233	6.82888
14.4828	8.51462
14.4424	10.2292
14.4023	11.7818
14.3624	11.5154
14.3227	9.37806
14.2833	11.1625
14.244	15.9284
14.205	18.9245
14.1662	20.1339
14.1276	20.5528
14.0892	20.8015
14.051	20.7123
14.0131	20.3696
13.9753	19.4959
13.9377	18.3166
13.9004	16.9639
13.8632	15.4191
13.8262	14.1068
13.7895	13.2186
13.7529	12.9495
13.7165	12.8952
13.6803	12.6772
13.6443	12.4739
13.6085	12.5739
13.5729	13.0531
13.5374	13.9896
13.5022	15.5002
13.4671	17.0169
13.4322	18.2817
13.3975	19.3798
13.363	20.1866
13.3286	20.536
13.2944	20.8166
13.2604	21.1691
13.2266	21.4208
13.193	21.5138
13.1595	21.4809
13.1262	21.156
13.093	20.6099
13.06	20.0177
13.0272	19.358
12.9946	18.7101
12.9621	18.184
12.9298	17.669
12.8976	17.093
12.8656	16.5518
12.8337	16.0867
12.8021	15.8871
12.7705	15.8383
12.7391	15.7748
12.7079	15.8625
12.6769	15.8893
12.6459	15.8663
12.6152	16.0022
12.5845	16.1637
12.5541	16.4021
12.5238	16.7062
12.4936	16.9533
12.4635	16.8702
12.4337	16.6255
12.4039	16.1984
12.3743	15.5757
12.3448	14.9983
12.3155	14.615
12.2863	14.3501
12.2573	13.7841
12.2284	12.7382
12.1996	11.4637
12.171	9.93328
12.1425	8.67155
12.1141	8.83466
12.0859	9.59268
12.0578	9.83097
12.0298	9.86668
12.0019	10.2152
11.9742	11.3973
11.9466	13.355
11.9192	14.6839
11.8918	14.4099
11.8646	12.2338
11.8375	9.25175
11.8106	7.43124
11.7837	7.05795
11.757	7.32662
11.7304	7.7458
11.7039	8.11057
11.6776	8.58044
11.6513	9.14523
11.6252	9.69164
11.5992	10.3519
11.5733	10.9551
11.5475	11.3391
11.5219	11.5394
11.4963	11.0862
11.4709	10.5322
11.4455	11.7304
11.4203	13.777
11.3952	15.0459
11.3702	15.9165
11.3454	16.7078
11.3206	17.4428
11.2959	18.1671
11.2714	18.8753
11.2469	19.6133
11.2226	20.2156
11.1983	20.8072
11.1742	21.4874
11.1502	22.2255
11.1263	22.8939
11.1024	23.4524
11.0787	23.98
11.0551	24.3954
11.0316	24.7042
11.0081	24.9861
10.9848	25.246
10.9616	25.395
10.9385	25.2922
10.9154	25.1122
10.8925	24.9365
10.8697	24.6501
10.8469	24.3821
10.8243	24.1454
10.8017	24.016
10.7793	23.8349
10.7569	23.6448
10.7346	23.5925
10.7125	23.4395
10.6904	23.2481
10.6684	22.9559
10.6465	22.3053
10.6247	21.4768
10.6029	20.7128
10.5813	20.0265
10.5597	19.4133
10.5383	18.9365
10.5169	18.5439
10.4956	18.2266
10.4744	18.1191
10.4533	18.0246
10.4323	17.8777
10.4113	17.6349
10.3904	17.4732
10.3697	17.4568
10.349	17.4483
10.3284	17.4397
10.3078	17.4382
10.2874	17.4827
10.267	17.5606
10.2467	17.3937
10.2265	16.8739
10.2064	15.8624
10.1863	14.5169
10.1663	12.9262
10.1464	11.4521
10.1266	10.54
10.1069	10.2286
10.0872	10.0557
10.0676	9.89199
10.0481	9.90339
10.0287	10.243
10.0093	10.6394
9.99005	11.0692
9.97084	11.4874
9.95169	12.2341
9.93263	13.4287
9.91364	14.5904
9.89472	15.4534
9.87587	16.3357
9.8571	17.2069
9.83839	17.8312
9.81976	18.1999
9.80119	18.3947
9.78271	18.4746
9.76428	18.4862
9.74592	18.3372
9.72764	17.5377
9.70943	15.5286
9.69128	15.2712
9.6732	16.8142
9.65518	17.0357
9.63724	16.4485
9.61935	15.369
9.60155	14.3166
9.5838	13.0275
9.56611	11.1706
9.5485	9.33425
9.53094	8.50328
9.51345	8.61252
9.49604	7.5528
9.47867	7.12747
9.46137	8.88839
9.44414	10.6541
9.42697	12.0553
9.40986	13.2177
9.39281	14.0307
9.37583	14.4628
9.35891	14.7725
9.34204	14.9776
9.32524	15.0328
9.3085	14.9912
9.29182	14.984
9.27519	14.7948
9.25863	14.4892
9.24213	14.0711
9.22568	13.5678
9.2093	12.9732
9.19297	12.0703
9.17669	11.0247
9.16048	9.98724
9.14433	9.02993
9.12823	8.43093
9.11218	8.15091
9.0962	7.96722
9.08027	7.72656
9.06439	7.35754
9.04858	7.075
9.03281	7.04111
9.0171	7.05477
9.00145	7.03425
8.98585	7.20946
8.9703	7.64901
8.9548	8.35536
8.93937	9.18213
8.92398	9.69533
8.90865	9.89359
8.89337	9.98391
8.87814	9.98881
8.86296	9.97973
8.84784	9.89662
8.83277	9.7971
8.81774	9.74514
8.80277	9.73713
8.78786	9.80791
8.77298	9.7891
8.75816	9.90543
8.7434	10.1404
8.72868	10.3301
8.714	10.4148
8.69938	10.3114
8.68481	10.1298
8.67029	10.1369
8.65581	10.273
8.64139	10.3695
8.62701	10.3904
8.61268	10.3719
8.5984	10.4494
8.58416	10.6911
8.56997	10.8443
8.55583	10.94
8.54174	10.8165
8.52769	10.7329
8.51368	10.6833
8.49973	10.687
8.48582	10.7278
8.47195	10.6317
8.45813	10.5352
8.44436	10.5256
8.43062	10.4878
8.41693	10.439
8.4033	10.3106
8.3897	10.1677
8.37614	10.0512
8.36264	9.89753
8.34917	9.69149
8.33574	9.43744
8.32236	9.32519
8.30903	9.23285
8.29573	9.17991
8.28248	9.17577
8.26927	8.98433
8.2561	8.86965
8.24298	8.84169
8.2299	8.87367
8.21685	8.85457
8.20385	8.68887
8.19089	8.58037
8.17797	8.5634
8.16509	8.48373
8.15225	8.37232
8.13946	8.4608
8.1267	8.53826
8.11398	8.34234
8.10131	8.14192
8.08867	8.16724
8.07606	8.24062
8.0635	8.03962
8.05099	7.84262
8.0385	7.81187
8.02606	7.78502
8.01366	7.71943
8.00129	7.68736
7.98896	7.60583
7.97667	7.48508
7.96442	7.38784
7.9522	7.39669
7.94002	7.39323
7.92788	7.33696
7.91578	7.32119
7.90371	7.34678
7.89168	7.25759
7.87969	7.13216
7.86773	7.18459
7.85581	7.21334
7.84392	7.12108
7.83207	7.062
7.82026	7.03973
7.80849	7.07576
7.79674	7.13204
7.78503	7.11502
7.77337	7.1032
7.76173	7.12336
7.75012	7.16627
7.73856	7.19836
7.72703	7.19201
7.71553	7.23764
7.70406	7.37239
7.69263	7.3018
7.68123	7.16615
7.66987	7.18468
7.65855	7.20031
7.64725	7.20405
7.63598	7.18356
7.62475	7.21023
7.61356	7.23538
7.60239	7.28475
7.59126	7.33497
7.58017	7.33238
7.5691	7.39305
7.55806	7.45371
7.54707	7.4562
7.5361	7.59072
7.52516	7.68546
7.51425	7.78749
7.50338	7.93071
7.49253	8.01024
7.48172	8.10583
7.47094	8.28469
7.46019	8.36773
7.44947	8.54217
7.43879	8.72624
7.42813	8.85103
7.4175	8.93359
7.4069	9.11719
7.39634	9.40086
7.3858	9.62384
7.37529	9.72436
7.36482	9.973
7.35437	10.2313
7.34396	10.4692
7.33357	10.7459
7.32321	11.0002
7.31288	11.3902
7.30258	11.8428
7.29231	12.3123
7.28207	12.9647
7.27185	13.6601
7.26167	14.3323
7.25152	15.0559
7.24139	15.7401
7.23129	16.3358
7.22122	16.7773
7.21117	17.2031
7.20116	17.5016
7.19117	17.5654
7.18121	17.5708
7.17128	17.5105
7.16137	17.3651
7.1515	17.2075
7.14164	16.8861
7.13182	16.3944
7.12203	15.8842
7.11225	15.3836
7.10251	14.8204
7.0928	14.2282
7.08311	13.6587
7.07344	13.2154
7.06381	12.9126
7.0542	12.6913
7.04461	12.557
7.03506	12.4735
7.02552	12.4873
7.01601	12.5556
7.00653	12.7322
6.99708	13.0108
6.98765	13.3131
6.97824	13.6595
6.96886	14.0398
6.95951	14.3952
6.95018	14.4142
6.94087	14.3789
6.9316	14.3231
6.92234	14.3102
6.91311	14.3335
6.90391	14.2315
6.89473	14.0585
6.88557	13.8348
6.87644	13.6648
6.86733	13.7757
6.85824	13.5027
6.84918	12.9893
6.84015	12.6947
6.83114	12.5591
6.82215	12.3032
6.81319	11.9558
6.80424	11.6422
6.79532	11.3908
6.78643	11.077
6.77756	10.6197
6.76871	10.1987
6.75989	9.75946
6.75109	9.3348
6.74231	8.79595
6.73355	8.19813
6.72482	7.66719
6.71611	7.26047
6.70742	6.69947
6.69875	5.92372
6.69011	5.39825
6.68149	4.96372
6.67289	4.36046
6.66431	3.84344
6.65576	3.43797
6.64722	3.16287
6.63871	2.81688
6.63022	2.48149
6.62175	2.26082
6.61331	2.06687
6.60488	1.89917
6.59648	1.75893
6.5881	1.65089
6.57974	1.59167
6.5714	1.5961
6.56308	1.55482
6.55478	1.56522
6.54651	1.63382
6.53825	1.67932
6.53001	1.6234
6.5218	1.52339
6.51361	1.52605
6.50544	1.55444
6.49729	1.52074
6.48915	1.54537
6.48104	1.62008
6.47295	1.58619
6.46488	1.57709
6.45683	1.60898
6.4488	1.62543
6.44079	1.66436
6.4328	1.69451
6.42482	1.68895
6.41687	1.8231
6.40894	1.92262
6.40103	1.93073
6.39314	1.89641
6.38526	1.89316
6.37741	1.90463
6.36957	1.90932
6.36176	1.94092
6.35396	2.05934
6.34618	2.15106
6.33843	2.09547
6.33069	2.14996
6.32297	2.3429
6.31527	2.52216
6.30758	2.54118
6.29992	2.59313
6.29227	2.73419
6.28465	2.80766
6.27704	2.86244
6.26945	2.90762
6.26188	2.9811
6.25432	3.17093
6.24679	3.36096
6.23927	3.42987
6.23177	3.47703
6.22429	3.54801
6.21683	3.6783
6.20938	3.8106
6.20195	3.90568
6.19454	4.00757
6.18715	4.27481
6.17978	4.46763
6.17242	4.64646
6.16508	4.90417
6.15776	5.20029
6.15045	5.39249
6.14317	5.56131
6.1359	5.83918
6.12864	6.14351
6.12141	6.40985
6.11419	6.84701
6.10699	7.16327
6.0998	7.40536
6.09263	7.69185
6.08549	8.08392
6.07835	8.56969
6.07123	9.05512
6.06413	9.46343
6.05705	9.99376
6.04998	10.7228
6.04293	11.0484
6.0359	11.2898
6.02888	11.7274
6.02187	12.2322
6.01489	12.7851
6.00792	13.2448
6.00096	13.6926
5.99403	14.234
5.98711	14.6414
5.9802	14.9157
5.97331	15.4212
5.96644	15.9245
5.95958	16.1537
5.95274	16.461
5.94591	17.004
5.9391	17.8239
5.9323	18.0991
5.92552	18.1371
5.91876	18.5093
5.91201	18.6798
5.90528	18.3939
5.89856	18.0284
5.89186	18.2518
5.88517	18.9416
5.8785	19.1771
5.87184	19.5213
5.8652	20.4203
5.85857	20.6613
5.85196	20.1831
5.84536	19.4308
5.83878	18.5563
5.83221	17.3078
5.82566	15.6057
5.81912	13.0191
5.81259	9.87675
5.80608	7.18037
5.79959	5.53727
5.79311	4.79579
5.78665	4.47237
5.78019	4.34614
5.77376	4.43017
5.76734	4.80367
5.76093	4.95698
5.75453	4.96211
5.74815	4.90155
5.74179	4.9114
5.73543	5.46154
5.7291	6.76395
5.72277	9.39763
5.71646	13.9221
5.71017	19.1982
5.70389	23.3163
5.69762	26.2237
5.69136	28.5912
5.68513	30.3476
5.6789	31.7557
5.67268	32.6456
5.66648	32.958
5.6603	33.1863
5.65413	33.2312
5.64797	33.3745
5.64182	33.6787
5.63569	33.7543
5.62957	34.0658
5.62347	34.713
5.61737	35.4247
5.61129	36.0269
5.60522	36.6887
5.59917	37.5891
5.59313	38.6544
5.5871	40.0335
5.58109	41.5202
5.57509	42.7051
5.5691	43.6686
5.56312	44.7291
5.55716	45.7787
5.55121	46.5969
5.54528	47.0193
5.53935	47.3294
5.53344	47.5324
5.52754	47.721
5.52166	47.8194
5.51578	47.751
5.50992	47.6446
5.50407	47.6231
5.49823	47.5731
5.49241	47.7267
5.4866	47.9354
5.4808	48.3042
5.47501	48.4942
5.46923	48.827
5.46347	49.2328
5.45772	49.4303
5.45198	49.7229
5.44625	50.2211
5.44054	50.7274
5.43484	51.2289
5.42914	51.8488
5.42347	52.6842
5.4178	52.9738
5.41214	53.1506
5.4065	53.5353
5.40087	53.9109
5.39525	54.302
5.38964	54.744
5.38404	55.1113
5.37846	55.4598
5.37288	55.7386
5.36732	55.9518
5.36177	56.1893
5.35623	56.5477
5.35071	56.8303
5.34519	56.7199
5.33968	56.5406
5.33419	56.5256
5.32871	56.5201
5.32324	56.5873
5.31778	56.7368
5.31233	56.766
5.30689	56.6838
5.30147	56.8251
5.29605	57.1505
5.29065	57.472
5.28525	57.6213
5.27987	57.8657
5.2745	58.1532
5.26914	58.4492
5.26379	58.7498
5.25845	59.1714
5.25312	59.6282
5.24781	60.0972
5.2425	60.5027
5.23721	60.9246
5.23192	61.3087
5.22665	61.6655
5.22138	61.9716
5.21613	62.3225
5.21089	62.509
5.20566	62.6355
5.20044	62.9056
5.19522	63.1463
5.19002	63.29
5.18483	63.4522
5.17965	63.5877
5.17448	63.6411
5.16933	63.6454
5.16418	63.7136
5.15904	63.6945
5.15391	63.7639
5.14879	63.8921
5.14368	63.9208
5.13859	63.898
5.1335	63.7751
5.12842	63.6622
5.12335	63.6956
5.1183	63.5639
5.11325	63.3821
5.10821	63.2722
5.10318	63.1165
5.09817	62.8415
5.09316	62.5729
5.08816	62.2856
5.08317	61.9793
5.07819	61.5718
5.07322	61.0823
5.06826	60.614
5.06331	60.1576
5.05837	59.5952
5.05344	59.0753
5.04852	58.5125
5.04361	57.8926
5.03871	57.3211
5.03382	56.7762
5.02894	56.1799
5.02406	55.5969
5.0192	55.0819
5.01435	54.5185
5.0095	54.0125
5.00467	53.5537
4.99984	53.0465
4.99502	52.4679
4.99021	51.9132
4.98542	51.3799
4.98063	50.7509
4.97585	50.1008
4.97108	49.525
4.96632	49.0448
4.96156	48.4395
4.95682	47.6718
4.95209	46.6904
4.94736	45.5758
4.94264	44.2555
4.93794	42.7115
4.93324	40.8653
4.92855	38.7734
4.92387	36.6713
4.9192	34.6301
4.91453	32.6857
4.90988	30.9614
4.90524	29.4659
4.9006	28.1977
4.89597	27.2475
4.89135	26.6387
4.88674	26.3848
4.88214	26.507
4.87755	26.9315
4.87296	27.5614
4.86839	28.3034
4.86382	29.0893
4.85926	30.0743
4.85471	31.1571
4.85017	32.1985
4.84564	33.2811
4.84111	34.5306
4.8366	35.8231
4.83209	37.1746
4.82759	38.5886
4.8231	39.935
4.81862	41.0661
4.81415	42.1123
4.80968	43.0413
4.80522	43.7768
4.80077	44.5027
4.79633	45.1004
4.7919	45.5861
4.78747	46.0026
4.78306	46.301
4.77865	46.405
4.77425	46.2528
4.76986	46.1936
4.76547	46.333
4.7611	46.5182
4.75673	47.0126
4.75237	47.8727
4.74802	48.6469
4.74367	49.0785
4.73934	49.4614
4.73501	49.8251
4.73069	50.1298
4.72638	50.3793
4.72207	50.6139
4.71777	50.9342
4.71348	51.1767
4.7092	51.2601
4.70493	51.3179
4.70066	51.2501
4.69641	51.0149
4.69216	50.692
4.68791	50.2803
4.68368	49.543
4.67945	48.5003
4.67523	47.2958
4.67102	46.008
4.66682	44.749
4.66262	43.8023
4.65843	43.092
4.65425	42.4824
4.65007	42.1701
4.64591	42.28
4.64175	42.6467
4.6376	43.3212
4.63345	44.2364
4.62932	45.4145
4.62519	47.0002
4.62106	48.7469
4.61695	50.2648
4.61284	51.4196
4.60874	52.2537
4.60465	52.7758
4.60056	53.0128
4.59648	53.1205
4.59241	53.0827
4.58835	53.0486
4.58429	53.0536
4.58024	53.0498
4.5762	53.0951
4.57216	53.2202
4.56814	53.3755
4.56411	53.4845
4.5601	53.5393
4.55609	53.5444
4.55209	53.4661
4.5481	53.2853
4.54411	53.0555
4.54013	52.9089
4.53616	52.7646
4.5322	52.5731
4.52824	52.3108
4.52429	52.1091
4.52034	51.8164
4.51641	51.3819
4.51247	50.967
4.50855	50.6188
4.50463	50.2579
4.50072	50.0681
4.49682	50.0296
4.49292	50.0177
4.48903	50.0601
4.48515	50.2144
4.48127	50.3872
4.4774	50.6197
4.47354	50.9341
4.46968	51.3013
4.46584	51.605
4.46199	51.865
4.45815	52.0667
4.45432	52.1538
4.4505	52.2054
4.44668	52.1547
4.44287	52.0288
4.43907	51.8859
4.43527	51.7892
4.43148	51.7116
4.4277	51.5572
4.42392	51.4051
4.42015	51.2757
4.41638	51.1318
4.41262	50.882
4.40887	50.6297
4.40513	50.412
4.40139	50.1464
4.39765	49.8255
4.39393	49.4479
4.39021	48.9911
4.38649	48.5173
4.38278	48.0413
4.37908	47.4961
4.37539	46.9917
4.3717	46.3805
4.36801	45.6709
4.36434	44.9249
4.36067	44.2069
4.357	43.4559
4.35335	42.6879
4.34969	41.8811
4.34605	40.957
4.34241	40.0347
4.33877	39.1697
4.33514	38.2783
4.33152	37.2887
4.32791	36.3603
4.3243	35.4568
4.32069	34.5542
4.3171	33.634
4.31351	32.6817
4.30992	31.8575
4.30634	30.9635
4.30277	29.9733
4.2992	29.1266
4.29564	28.2641
4.29208	27.2629
4.28853	26.299
4.28499	25.3041
4.28145	24.3138
4.27792	23.3649
4.27439	22.3906
4.27087	21.4585
4.26735	20.6945
4.26384	19.9711
4.26034	19.2711
4.25684	18.6963
4.25335	18.1668
4.24986	17.7023
4.24638	17.3169
4.24291	17.043
4.23944	16.7442
4.23598	16.4907
4.23252	16.2361
4.22906	15.9305
4.22562	15.5361
4.22218	15.1006
4.21874	14.6802
4.21531	14.2815
4.21189	13.8473
4.20847	13.3084
4.20506	12.7318
4.20165	12.2306
4.19825	11.7548
4.19485	11.2446
4.19146	10.7511
4.18807	10.213
4.18469	9.57257
4.18132	8.97631
4.17795	8.51631
4.17458	8.08513
4.17123	7.58413
4.16787	7.17739
4.16453	6.89713
4.16118	6.688
4.15785	6.51281
4.15451	6.40351
4.15119	6.22973
4.14787	6.16977
4.14455	6.22752
4.14124	6.29201
4.13794	6.42955
4.13464	6.64249
4.13134	6.82388
4.12805	6.97933
4.12477	7.19824
4.12149	7.46672
4.11822	7.75675
4.11495	8.09596
4.11168	8.46776
4.10843	8.82666
4.10517	9.18163
4.10192	9.50626
4.09868	9.76982
4.09545	10.0743
4.09221	10.4146
4.08899	10.6762
4.08576	10.909
4.08255	11.0774
4.07933	11.2211
4.07613	11.4161
4.07292	11.4597
4.06973	11.4454
4.06654	11.5704
4.06335	11.6415
4.06017	11.5556
4.05699	11.6525
4.05382	11.7152
4.05065	11.6335
4.04749	11.6596
4.04433	11.7835
4.04118	11.9091
4.03803	12.0781
4.03489	12.2932
4.03175	12.5667
4.02862	12.8118
4.02549	12.9848
4.02237	13.2392
4.01925	13.4612
4.01614	13.6088
4.01303	13.7855
4.00993	14.0223
4.00683	14.2081
4.00373	14.3251
4.00064	14.4256
3.99756	14.5715
3.99448	14.7537
3.9914	14.8604
3.98833	14.9879
3.98527	15.1846
3.98221	15.303
3.97915	15.4431
3.9761	15.6311
3.97305	15.8977
3.97001	16.1273
3.96697	16.2677
3.96394	16.4965
3.96091	16.8315
3.95789	17.2294
3.95487	17.6356
3.95186	18.0704
3.94885	18.5615
3.94584	19.2163
3.94284	19.8833
3.93984	20.7415
3.93685	21.776
3.93386	22.8149
3.93088	23.8884
3.9279	25.0828
3.92493	26.2846
3.92196	27.6199
3.919	28.9757
3.91604	30.2602
3.91308	31.4736
3.91013	32.5597
3.90718	33.5967
3.90424	34.5682
3.9013	35.4758
3.89837	36.2755
3.89544	36.9906
3.89252	37.6283
3.8896	38.1733
3.88668	38.718
3.88377	39.2036
3.88086	39.6631
3.87796	40.0932
3.87506	40.4662
3.87217	40.7407
3.86928	41.0102
3.86639	41.3909
3.86351	41.6923
3.86064	41.8458
3.85776	41.9862
3.8549	42.0681
3.85203	42.0626
3.84917	42.1247
3.84631	42.1633
3.84346	42.0817
3.84062	41.9853
3.83777	41.8996
3.83494	41.843
3.8321	41.6306
3.82927	41.4208
3.82644	41.2809
3.82362	41.0335
3.82081	40.7546
3.81799	40.555
3.81518	40.2803
3.81238	39.9315
3.80958	39.6083
3.80678	39.2574
3.80399	38.9414
3.8012	38.5727
3.79841	38.0748
3.79563	37.7031
3.79286	37.3629
3.79008	36.944
3.78731	36.4013
3.78455	35.8291
3.78179	35.3449
3.77903	34.847
3.77628	34.3185
3.77353	33.6924
3.77079	33.0751
3.76805	32.5318
3.76531	31.9745
3.76258	31.4401
3.75985	30.8503
3.75713	30.2447
3.7544	29.6433
3.75169	29.1238
3.74898	28.6738
3.74627	28.2025
3.74356	27.7143
3.74086	27.2499
3.73816	26.8725
3.73547	26.5132
3.73278	26.1322
3.7301	25.8233
3.72741	25.356
3.72474	24.8112
3.72206	24.3487
3.71939	23.9018
3.71673	23.3725
3.71406	22.8084
3.71141	22.262
3.70875	21.7086
3.7061	21.122
3.70345	20.502
3.70081	19.9236
3.69817	19.2089
3.69553	18.4077
3.6929	17.6817
3.69027	16.9492
3.68765	16.2771
3.68503	15.6371
3.68241	14.9206
3.6798	14.2027
3.67719	13.5633
3.67458	12.9706
3.67198	12.5304
3.66938	12.1323
3.66678	11.6064
3.66419	11.0902
3.66161	10.7263
3.65902	10.5089
3.65644	10.3658
3.65387	10.2024
3.65129	10.0553
3.64872	9.945
3.64616	9.92129
3.64359	10.0134
3.64103	10.154
3.63848	10.2152
3.63593	10.3219
3.63338	10.5336
3.63084	10.7054
3.6283	10.7331
3.62576	10.7585
3.62322	10.8897
3.62069	11.0027
3.61817	11.0187
3.61564	11.0168
3.61312	10.9551
3.61061	10.8918
3.6081	10.7261
3.60559	10.6011
3.60308	10.6279
3.60058	10.6712
3.59808	10.6439
3.59558	10.6233
3.59309	10.6893
3.59061	10.6855
3.58812	10.5979
3.58564	10.6177
3.58316	10.6525
3.58069	10.6937
3.57822	10.7899
3.57575	10.8058
3.57328	10.7517
3.57082	10.7014
3.56836	10.7297
3.56591	10.8336
3.56346	10.9508
3.56101	11.0147
3.55857	11.088
3.55613	11.1792
3.55369	11.3143
3.55126	11.4071
3.54883	11.5471
3.5464	11.6981
3.54397	11.8874
3.54155	12.113
3.53914	12.272
3.53672	12.3445
3.53431	12.5446
3.5319	12.8172
3.5295	13.0828
3.5271	13.367
3.5247	13.637
3.52231	13.9041
3.51991	14.2415
3.51753	14.6014
3.51514	14.9963
3.51276	15.4872
3.51038	15.9517
3.50801	16.3706
3.50563	16.9117
3.50327	17.4827
3.5009	18.143
3.49854	18.8171
3.49618	19.3276
3.49382	19.8309
3.49147	20.4814
3.48912	21.2519
3.48677	22.0347
3.48443	22.6623
3.48209	23.2146
3.47975	23.8764
3.47742	24.555
3.47509	25.1922
3.47276	25.942
3.47044	26.6374
3.46812	27.1136
3.4658	27.6362
3.46348	28.2849
3.46117	28.8543
3.45886	29.2904
3.45656	29.7889
3.45425	30.3194
3.45195	30.8058
3.44966	31.2816
3.44736	31.7592
3.44507	32.3371
3.44279	32.919
3.4405	33.3599
3.43822	33.7658
3.43594	34.1749
3.43367	34.6567
3.43139	35.2501
3.42912	35.7018
3.42686	36.0538
3.42459	36.417
3.42233	36.853
3.42007	37.2525
3.41782	37.6386
3.41557	38.0452
3.41332	38.5247
3.41108	38.9176
3.40883	39.277
3.40659	39.6172
3.40435	40.0343
3.40212	40.4619
3.39989	40.7861
3.39766	41.1249
3.39544	41.6115
3.39322	42.0579
3.391	42.3971
3.38878	42.6559
3.38657	42.8955
3.38436	43.2396
3.38215	43.644
3.37994	43.9804
3.37774	44.2912
3.37554	44.5486
3.37335	44.9016
3.37115	45.2691
3.36896	45.6143
3.36678	45.9916
3.36459	46.288
3.36241	46.5885
3.36023	46.857
3.35805	47.1376
3.35588	47.4279
3.35371	47.6541
3.35154	47.9871
3.34938	48.3176
3.34721	48.5387
3.34505	48.7592
3.3429	49.0329
3.34074	49.3304
3.33859	49.5867
3.33644	49.82
3.3343	49.9737
3.33215	50.1687
3.33001	50.418
3.32788	50.5397
3.32574	50.6945
3.32361	50.8505
3.32148	51.0439
3.31936	51.178
3.31723	51.2183
3.31511	51.2085
3.31299	51.2996
3.31088	51.4545
3.30876	51.5222
3.30665	51.5848
3.30455	51.645
3.30244	51.6052
3.30034	51.4858
3.29824	51.4898
3.29614	51.4658
3.29405	51.4191
3.29196	51.2693
3.28987	51.1128
3.28778	50.9285
3.2857	50.6199
3.28362	50.2683
3.28154	49.973
3.27946	49.6259
3.27739	49.2555
3.27532	48.9668
3.27325	48.6132
3.27119	48.2158
3.26913	47.8021
3.26707	47.4592
3.26501	47.33
3.26295	47.1033
3.2609	46.6439
3.25885	46.2398
3.2568	45.9445
3.25476	45.6027
3.25272	45.2699
3.25068	44.9264
3.24864	44.4231
3.24661	43.9146
3.24458	43.5607
3.24255	43.3523
3.24052	43.2369
3.2385	43.1848
3.23648	43.2876
3.23446	43.5887
3.23244	43.9693
3.23043	44.3258
3.22841	44.6889
3.2264	44.9986
3.2244	45.2386
3.22239	45.5775
3.22039	45.9496
3.21839	46.2499
3.2164	46.4841
3.2144	46.7083
3.21241	46.877
3.21042	47.003
3.20844	47.1024
3.20645	47.1611
3.20447	47.1758
3.20249	47.2532
3.20051	47.2132
3.19854	47.1319
3.19657	47.024
3.1946	46.9936
3.19263	47.0451
3.19067	46.9368
3.1887	46.7944
3.18674	46.5754
3.18479	46.3613
3.18283	46.3101
3.18088	46.2414
3.17893	46.1207
3.17698	46.0037
3.17504	45.836
3.17309	45.7379
3.17115	45.5855
3.16921	45.5054
3.16728	45.4162
3.16534	45.2787
3.16341	45.1606
3.16148	45.0174
3.15956	44.8457
3.15763	44.7264
3.15571	44.682
3.15379	44.5188
3.15187	44.3746
3.14996	44.1833
3.14805	43.9811
3.14614	43.9163
3.14423	43.8721
3.14232	43.698
3.14042	43.5705
3.13852	43.4058
3.13662	43.2585
3.13472	43.2046
3.13283	43.0258
3.13094	42.823
3.12905	42.7057
3.12716	42.6106
3.12528	42.5221
3.12339	42.4428
3.12151	42.2778
3.11964	42.1995
3.11776	42.1587
3.11589	42.0443
3.11401	41.8625
3.11214	41.7545
3.11028	41.5967
3.10841	41.524
3.10655	41.4439
3.10469	41.2931
3.10283	41.2905
3.10098	41.1902
3.09912	41.1078
3.09727	41.0337
3.09542	40.9272
3.09358	40.8117
3.09173	40.6563
3.08989	40.6068
3.08805	40.5199
3.08621	40.3947
3.08437	40.3197
3.08254	40.3568
3.08071	40.263
3.07888	39.9769
3.07705	39.8535
3.07523	39.923
3.0734	39.8807
3.07158	39.7443
3.06977	39.6544
3.06795	39.5056
3.06613	39.4311
3.06432	39.4835
3.06251	39.4
3.0607	39.3244
3.0589	39.3342
3.0571	39.2744
3.05529	39.2273
3.05349	39.0906
3.0517	38.9545
3.0499	38.9218
3.04811	38.8798
3.04632	38.8534
3.04453	38.8648
3.04274	38.8189
3.04096	38.7348
3.03918	38.5337
3.0374	38.3196
3.03562	38.2601
3.03384	38.2788
3.03207	38.2747
3.03029	38.1679
3.02852	38.1285
3.02676	38.1569
3.02499	38.0776
3.02323	37.9082
3.02146	37.8094
3.0197	37.7924
3.01795	37.762
3.01619	37.6247
3.01444	37.6132
3.01269	37.6337
3.01094	37.4497
3.00919	37.2632
3.00744	37.1908
3.0057	37.1595
3.00396	37.1412
3.00222	37.1396
3.00048	37.0112
2.99875	36.8351
2.99701	36.775
2.99528	36.7476
2.99355	36.6656
2.99183	36.5375
2.9901	36.4916
2.98838	36.4377
2.98666	36.2945
2.98494	36.208
2.98322	36.1625
2.9815	36.1277
2.97979	36.054
2.97808	36.0252
2.97637	35.9846
2.97466	35.8866
2.97295	35.7636
2.97125	35.6653
2.96955	35.6175
2.96785	35.545
2.96615	35.4627
2.96446	35.4571
2.96276	35.5963
2.96107	35.5347
2.95938	35.2951
2.95769	35.0486
2.95601	34.9239
2.95432	34.8851
2.95264	34.883
2.95096	34.8215
2.94928	34.7702
2.9476	34.8189
2.94593	34.7518
2.94425	34.6627
2.94258	34.6098
2.94092	34.5975
2.93925	34.6058
2.93758	34.6387
2.93592	34.7121
2.93426	34.6748
2.9326	34.4992
2.93094	34.3917
2.92928	34.4063
2.92763	34.45
2.92598	34.4863
2.92433	34.5343
2.92268	34.4702
2.92103	34.3936
2.91939	34.2945
2.91775	34.1446
2.9161	34.0624
2.91447	33.9953
2.91283	33.9255
2.91119	33.8079
2.90956	33.4837
2.90793	33.1711
2.9063	32.9289
2.90467	32.6603
2.90304	32.3951
2.90142	32.3161
2.89979	32.3053
2.89817	32.3993
2.89656	32.6784
2.89494	33.0245
2.89332	33.3822
2.89171	33.9096
2.8901	34.477
2.88849	34.9133
2.88688	35.2361
2.88527	35.6094
2.88367	35.961
2.88206	36.166
2.88046	36.4051
2.87886	36.7699
2.87727	37.1031
2.87567	37.2887
2.87408	37.5073
2.87248	37.7042
2.87089	37.8334
2.8693	38.0032
2.86772	38.2241
2.86613	38.3848
2.86455	38.4669
2.86297	38.5414
2.86139	38.7233
2.85981	38.9591
2.85823	39.1623
2.85666	39.2165
2.85508	39.3601
2.85351	39.5173
2.85194	39.6885
2.85038	39.8567
2.84881	40.0636
2.84724	40.2706
2.84568	40.4976
2.84412	40.6326
2.84256	40.6856
2.841	40.798
2.83945	41.0775
2.83789	41.3974
2.83634	41.7026
2.83479	41.9991
2.83324	42.0617
2.83169	42.0952
2.83015	42.2942
2.82861	42.5852
2.82706	42.8257
2.82552	43.0536
2.82398	43.2891
2.82245	43.5536
2.82091	43.8007
2.81938	43.9662
2.81784	44.1354
2.81631	44.4051
2.81479	44.7212
2.81326	44.9599
2.81173	44.9911
2.81021	45.1995
2.80869	45.5671
2.80716	45.8893
2.80565	46.1448
2.80413	46.6037
2.80261	46.9905
2.8011	47.118
2.79959	47.252
2.79808	47.5483
2.79657	47.9223
2.79506	48.1892
2.79355	48.343
2.79205	48.6361
2.79055	48.9417
2.78904	49.3348
2.78754	49.9235
2.78605	50.1582
2.78455	50.1354
2.78306	50.3654
2.78156	50.729
2.78007	50.9917
2.77858	51.1629
2.77709	51.3973
2.77561	51.5878
2.77412	51.9083
2.77264	52.4251
2.77116	52.9418
2.76968	53.0877
2.7682	53.2532
2.76672	53.414
2.76524	53.547
2.76377	54.1041
2.7623	54.4058
2.76083	54.3016
2.75936	54.4584
2.75789	54.911
2.75642	55.9007
2.75496	56.3884
2.7535	55.9506
2.75203	56.0569
2.75057	56.1768
2.74912	56.4972
2.74766	57.0956
2.7462	57.618
2.74475	57.9226
2.7433	58.3703
2.74185	59.317
2.7404	60.2863
2.73895	60.513
2.7375	60.3037
2.73606	60.7198
2.73462	61.4346
2.73318	61.6871
2.73174	62.1198
2.7303	62.5246
2.72886	62.8619
2.72742	63.4649
2.72599	64.5038
2.72456	65.3874
2.72313	65.4583
2.7217	66.1545
2.72027	67.0382
2.71884	66.7953
2.71742	66.7565
2.71599	66.7594
2.71457	66.9606
2.71315	67.4427
2.71173	68.4386
2.71032	68.8537
2.7089	68.4759
2.70748	68.1797
2.70607	68.1682
2.70466	68.278
2.70325	68.3923
2.70184	68.6992
2.70043	68.7582
2.69903	68.6795
2.69762	68.8328
2.69622	69.1935
2.69482	69.641
2.69342	69.7344
2.69202	69.176
2.69062	68.8713
2.68923	68.8565
2.68783	68.8105
2.68644	68.6725
2.68505	68.4221
2.68366	68.1897
2.68227	67.7697
2.68089	67.5442
2.6795	67.5335
2.67812	66.9993
2.67673	66.5908
2.67535	65.6736
2.67397	64.4735
2.6726	63.8729
2.67122	64.186
2.66984	63.5238
2.66847	62.149
2.6671	61.7057
2.66572	60.944
2.66435	59.5959
2.66299	58.2251
2.66162	57.5125
2.66025	56.9628
2.65889	56.407
2.65753	55.8504
2.65616	55.6032
2.65481	55.3534
2.65345	55.41
2.65209	55.6
2.65073	55.4571
2.64938	55.5864
2.64803	55.9767
2.64667	56.4813
2.64532	56.901
2.64397	57.1568
2.64263	57.6469
2.64128	58.0161
2.63994	58.2536
2.63859	58.6942
2.63725	59.0996
2.63591	59.3603
2.63457	59.759
2.63323	59.9188
2.6319	60.2744
2.63056	60.9165
2.62923	60.6082
2.62789	60.5158
2.62656	60.8311
2.62523	60.4558
2.6239	60.3094
2.62258	60.3808
2.62125	60.9964
2.61993	61.3146
2.6186	61.092
2.61728	61.6055
2.61596	61.6611
2.61464	61.4187
2.61332	61.6791
2.61201	61.8477
2.61069	62.1684
2.60938	62.6708
2.60807	63.0022
2.60675	63.459
2.60544	64.0581
2.60414	64.1274
2.60283	64.1491
2.60152	64.3629
2.60022	64.4785
2.59891	64.5804
2.59761	65.0586
2.59631	66.1914
2.59501	67.4528
2.59371	67.0288
2.59242	66.2521
2.59112	66.2476
2.58983	66.6176
2.58853	67.0164
2.58724	67.3219
2.58595	67.4556
2.58466	68.055
2.58338	68.2715
2.58209	68.1863
2.5808	68.3827
2.57952	68.4562
2.57824	68.8653
2.57695	69.4177
2.57567	69.5089
2.5744	69.8691
2.57312	70.3658
2.57184	70.2897
2.57057	70.7892
2.56929	71.2789
2.56802	71.3042
2.56675	71.4919
2.56548	72.127
2.56421	72.7732
2.56294	73.1324
2.56168	73.5375
2.56041	73.7314
2.55915	73.7765
2.55789	73.9688
2.55662	74.1759
2.55536	74.4743
2.5541	74.8851
2.55285	75.2704
2.55159	75.4395
2.55034	75.6418
2.54908	75.8722
2.54783	76.0161
2.54658	76.1358
2.54533	76.312
2.54408	76.4914
2.54283	76.6608
2.54159	76.6406
2.54034	76.7493
2.5391	76.7948
2.53785	76.8915
2.53661	77.0606
2.53537	77.119
2.53413	77.1515
2.53289	77.1962
2.53166	77.2227
2.53042	77.2071
2.52919	77.2286
2.52795	77.3192
2.52672	77.1829
2.52549	77.1192
2.52426	77.1511
2.52303	77.105
2.52181	77.1234
2.52058	77.0125
2.51936	76.8112
2.51813	76.6959
2.51691	76.6598
2.51569	76.6136
2.51447	76.4916
2.51325	76.3883
2.51203	76.2005
2.51082	76.0373
2.5096	75.9376
2.50839	75.664
2.50717	75.4608
2.50596	75.2747
2.50475	75.008
2.50354	74.8813
2.50233	74.7511
2.50113	74.5159
2.49992	74.2404
2.49872	74.1371
2.49751	73.9875
2.49631	73.6518
2.49511	73.3358
2.49391	73.1991
2.49271	73.0564
2.49151	72.7746
2.49031	72.4525
2.48912	72.3346
2.48792	72.3091
2.48673	72.1881
2.48554	72.0022
2.48435	71.9108
2.48316	71.7805
2.48197	71.6097
2.48078	71.4075
2.4796	71.2185
2.47841	71.0832
2.47723	71.083
2.47604	71.1179
2.47486	71.0024
2.47368	70.8285
2.4725	70.6678
2.47132	70.6506
2.47014	70.6663
2.46897	70.5515
2.46779	70.4655
2.46662	70.3743
2.46545	70.3591
2.46427	70.285
2.4631	70.0979
2.46193	70.0762
2.46077	70.0931
2.4596	70.0895
2.45843	70.126
2.45727	70.238
2.4561	70.3457
2.45494	70.4899
2.45378	70.618
2.45262	70.8578
2.45146	71.049
2.4503	71.1599
2.44914	71.2776
2.44799	71.4184
2.44683	71.5871
2.44568	71.7994
2.44452	71.9562
2.44337	72.1661
2.44222	72.2919
2.44107	72.2841
2.43992	72.3189
2.43877	72.4076
2.43763	72.4439
2.43648	72.4557
2.43534	72.4238
2.43419	72.3444
2.43305	72.3762
2.43191	72.4362
2.43077	72.5156
2.42963	72.4986
2.42849	72.4594
2.42736	72.4857
2.42622	72.4796
2.42509	72.4838
2.42395	72.6052
2.42282	72.7379
2.42169	72.9277
2.42056	73.1093
2.41943	73.2761
2.4183	73.3275
2.41717	73.4875
2.41605	73.6474
2.41492	73.8035
2.4138	74.0579
2.41267	74.2125
2.41155	74.3346
2.41043	74.4424
2.40931	74.5097
2.40819	74.7522
2.40707	75.0114
2.40595	75.164
2.40484	75.4792
2.40372	75.5946
2.40261	75.6152
2.4015	75.7343
2.40039	75.9402
2.39928	76.1176
2.39817	76.2927
2.39706	76.4982
2.39595	76.6567
2.39484	76.774
2.39374	76.8762
2.39263	76.9419
2.39153	77.0395
2.39043	77.1809
2.38932	77.2573
2.38822	77.4255
2.38712	77.5923
2.38603	77.7973
2.38493	77.8348
2.38383	77.8842
2.38274	78.0871
2.38164	78.2009
2.38055	78.2621
2.37946	78.4722
2.37836	78.7777
2.37727	78.9481
2.37618	79.0767
2.3751	79.0755
2.37401	79.2131
2.37292	79.3843
2.37184	79.4908
2.37075	79.5601
2.36967	79.7837
2.36859	80.0239
2.3675	80.0003
2.36642	80.102
2.36534	80.3377
2.36427	80.4494
2.36319	80.4853
2.36211	80.6749
2.36104	80.8133
2.35996	80.999
2.35889	81.1418
2.35781	81.2743
2.35674	81.4457
2.35567	81.693
2.3546	81.7803
2.35353	81.6885
2.35247	81.7582
2.3514	81.9399
2.35033	82.111
2.34927	82.1538
2.3482	82.3058
2.34714	82.4771
2.34608	82.6066
2.34502	82.7578
2.34396	82.8491
2.3429	82.9732
2.34184	83.1127
2.34078	83.2399
2.33973	83.2916
2.33867	83.3667
2.33762	83.5385
2.33656	83.6902
2.33551	83.7034
2.33446	83.8324
2.33341	84.0963
2.33236	84.2346
2.33131	84.2714
2.33026	84.3748
2.32922	84.4041
2.32817	84.5767
2.32712	84.8448
2.32608	84.9857
2.32504	84.972
2.324	84.9341
2.32295	85.1044
2.32191	85.3127
2.32087	85.4193
2.31984	85.4637
2.3188	85.3722
2.31776	85.4592
2.31673	85.5757
2.31569	85.679
2.31466	85.7888
2.31362	85.9069
2.31259	86.1144
2.31156	86.1602
2.31053	86.0656
2.3095	86.1036
2.30847	86.2464
2.30745	86.3885
2.30642	86.4913
2.3054	86.6956
2.30437	86.7394
2.30335	86.7266
2.30232	86.7391
2.3013	86.7908
2.30028	86.8219
2.29926	87.043
2.29824	87.1115
2.29722	87.0529
2.29621	87.0403
2.29519	87.096
2.29417	87.1456
2.29316	87.2127
2.29215	87.4873
2.29113	87.6443
2.29012	87.5889
2.28911	87.4962
2.2881	87.4772
2.28709	87.5085
2.28608	87.5739
2.28507	87.5637
2.28407	87.6244
2.28306	87.8058
2.28206	87.9166
2.28105	87.8328
2.28005	87.7303
2.27905	87.754
2.27805	87.8899
2.27705	88.0038
2.27605	88.0689
2.27505	88.0069
2.27405	88.0387
2.27305	88.1112
2.27206	88.1509
2.27106	88.136
2.27007	88.0724
2.26907	87.9774
2.26808	87.9377
2.26709	88.0291
2.2661	88.1361
2.26511	88.0347
2.26412	87.9312
2.26313	87.9743
2.26214	87.9768
2.26116	87.9824
2.26017	87.8423
2.25919	87.8047
2.2582	87.8523
2.25722	87.861
2.25624	87.8328
2.25526	87.855
2.25428	87.7961
2.2533	87.7488
2.25232	87.8937
2.25134	87.9243
2.25036	87.9123
2.24939	87.9927
2.24841	88.068
2.24744	88.0902
2.24646	88.2096
2.24549	88.3403
2.24452	88.3564
2.24355	88.2652
2.24257	88.2062
2.24161	88.211
2.24064	88.2042
2.23967	88.2912
2.2387	88.3249
2.23774	88.4268
2.23677	88.5242
2.23581	88.5361
2.23484	88.5811
2.23388	88.5247
2.23292	88.4575
2.23196	88.4488
2.231	88.4791
2.23004	88.548
2.22908	88.6437
2.22812	88.7387
2.22716	88.8172
2.22621	88.8641
2.22525	89.0125
2.2243	89.1401
2.22334	89.1705
2.22239	89.2967
2.22144	89.4332
2.22049	89.3953
2.21953	89.5165
2.21859	89.6767
2.21764	89.7061
2.21669	89.7984
2.21574	89.8082
2.21479	89.7617
2.21385	89.778
2.2129	89.8356
2.21196	89.816
2.21102	89.8205
2.21007	89.8669
2.20913	89.8914
2.20819	89.9468
2.20725	89.9219
2.20631	89.8281
2.20537	89.8766
2.20444	89.9006
2.2035	90.0446
2.20256	90.1334
2.20163	89.9667
2.20069	90.0227
2.19976	90.2546
2.19883	90.2668
2.19789	90.3408
2.19696	90.3932
2.19603	90.2517
2.1951	90.195
2.19417	90.3486
2.19325	90.3912
2.19232	90.3379
2.19139	90.2949
2.19047	90.3083
2.18954	90.4308
2.18862	90.4127
2.18769	90.325
2.18677	90.3223
2.18585	90.377
2.18493	90.3358
2.18401	90.3992
2.18309	90.5511
2.18217	90.6004
2.18125	90.6056
2.18033	90.5261
2.17942	90.5879
2.1785	90.6966
2.17759	90.7752
2.17667	90.692
2.17576	90.4819
2.17485	90.3768
2.17393	90.5892
2.17302	90.7196
2.17211	90.8041
2.1712	90.784
2.17029	90.6292
2.16939	90.686
2.16848	90.7359
2.16757	90.6317
2.16667	90.5277
2.16576	90.7523
2.16486	90.8834
2.16395	90.8172
2.16305	90.7935
2.16215	90.7066
2.16125	90.657
2.16035	90.6999
2.15945	90.7656
2.15855	90.7834
2.15765	90.7578
2.15675	90.7834
2.15586	90.6728
2.15496	90.6478
2.15406	90.6119
2.15317	90.6848
2.15228	90.7549
2.15138	90.6964
2.15049	90.7619
2.1496	90.7566
2.14871	90.7153
2.14782	90.6065
2.14693	90.5751
2.14604	90.7534
2.14515	90.7838
2.14427	90.5971
2.14338	90.6748
2.14249	90.7084
2.14161	90.6569
2.14072	90.5891
2.13984	90.485
2.13896	90.6167
2.13808	90.7022
2.13719	90.6772
2.13631	90.6007
2.13543	90.5221
2.13455	90.4805
2.13368	90.536
2.1328	90.5545
2.13192	90.5513
2.13105	90.592
2.13017	90.4799
2.1293	90.3222
2.12842	90.307
2.12755	90.3445
2.12668	90.3955
2.1258	90.3099
2.12493	90.2723
2.12406	90.2424
2.12319	90.2614
2.12232	90.2106
2.12145	90.1852
2.12059	90.2895
2.11972	90.2637
2.11885	90.1727
2.11799	90.21
2.11712	90.0752
2.11626	89.8947
2.1154	89.8467
2.11453	89.9361
2.11367	89.9684
2.11281	89.8591
2.11195	89.7641
2.11109	89.7722
2.11023	89.7801
2.10937	89.7867
2.10851	89.8068
2.10766	89.677
2.1068	89.7345
2.10594	89.7805
2.10509	89.7857
2.10423	89.7602
2.10338	89.6601
2.10253	89.6092
2.10168	89.5157
2.10082	89.4082
2.09997	89.4089
2.09912	89.3768
2.09827	89.3073
2.09742	89.271
2.09658	89.0968
2.09573	89.1023
2.09488	89.179
2.09404	89.0799
2.09319	89.0816
2.09235	89.0644
2.0915	88.884
2.09066	88.7618
2.08982	88.6386
2.08897	88.3535
2.08813	88.1454
2.08729	88.1188
2.08645	88.0248
2.08561	88.0816
2.08477	88.2392
2.08394	88.1312
2.0831	88.0886
2.08226	88.0341
2.08143	88.2363
2.08059	88.3182
2.07976	88.3161
2.07892	88.5177
2.07809	88.6201
2.07726	88.668
2.07643	88.6632
2.07559	88.6241
2.07476	88.6768
2.07393	88.7758
2.0731	88.7527
2.07228	88.6225
2.07145	88.5834
2.07062	88.562
2.06979	88.7446
2.06897	88.8597
2.06814	88.7477
2.06732	88.7706
2.06649	88.8406
2.06567	88.9325
2.06485	88.9691
2.06403	88.8059
2.0632	88.812
2.06238	88.8316
2.06156	88.8555
2.06074	88.9251
2.05993	88.8617
2.05911	88.9288
2.05829	89.1056
2.05747	89.0808
2.05666	88.9416
2.05584	88.9486
2.05503	89.0564
2.05421	89.1201
2.0534	89.1309
2.05259	89.0853
2.05177	89.2399
2.05096	89.3439
2.05015	89.1717
2.04934	88.9948
2.04853	89.0886
2.04772	89.2312
2.04691	89.2474
2.04611	89.2045
2.0453	89.0439
2.04449	88.9294
2.04369	89.0794
2.04288	89.2848
2.04208	89.3248
2.04127	89.3687
2.04047	89.3578
2.03967	89.3471
2.03886	89.3015
2.03806	89.2377
2.03726	89.2818
2.03646	89.348
2.03566	89.2792
2.03486	89.2334
2.03407	89.1261
2.03327	89.1207
2.03247	89.2348
2.03167	89.3576
2.03088	89.2938
2.03008	89.2463
2.02929	89.2343
2.0285	89.315
2.0277	89.3376
2.02691	89.2178
2.02612	89.2523
2.02533	89.3649
2.02453	89.3696
2.02374	89.2093
2.02295	89.2012
2.02217	89.4106
2.02138	89.455
2.02059	89.3342
2.0198	89.1657
2.01902	89.1965
2.01823	89.3161
2.01744	89.3102
2.01666	89.2985
2.01588	89.3557
2.01509	89.301
2.01431	89.266
2.01353	89.193
2.01275	89.1678
2.01196	89.046
2.01118	88.9336
2.0104	88.8957
2.00963	89.0816
2.00885	89.0947
2.00807	88.9768
2.00729	88.9316
2.00651	88.9391
2.00574	88.9153
2.00496	88.8982
2.00419	88.8461
2.00341	88.7186
2.00264	88.5803
2.00187	88.5416
2.00109	88.6232
2.00032	88.6618
