Name: Witherite BaCO_3
Type: Mineral
Class: Carbonates
Subclass: 
Particle Size: 0-45um
Sample No.: C-2A
Owner: JPL
Wavelength range: IR
Origin: United Kingdom, England
Collected by Grieger's Inc.
Description: 





Measurement: Hemispherical reflectance
First Column: X
Second Column: Y
X Units:  Wavelength (micrometers)
Y Units:  Reflectance (percent)
First X Value: 15.3853
Last X Value: 2.00032
Number of X Values: 2256
Additional information: c02aa.txt
 
15.3853	57.2345
15.3397	57.9052
15.2945	58.8109
15.2495	59.5194
15.2048	59.7295
15.1603	59.5214
15.1161	58.926
15.0722	57.9882
15.0285	56.5704
14.9851	55.0326
14.9419	53.5956
14.8989	52.2185
14.8563	50.7453
14.8138	48.5599
14.7716	44.6232
14.7296	39.8295
14.6879	38.7399
14.6464	35.9511
14.6052	28.3302
14.5641	20.5587
14.5233	12.2692
14.4828	6.29223
14.4424	3.84892
14.4023	2.86577
14.3624	3.03526
14.3227	6.12151
14.2833	11.7596
14.244	18.5993
14.205	25.9864
14.1662	35.4742
14.1276	43.0346
14.0892	47.2679
14.051	50.2483
14.0131	52.6591
13.9753	54.7006
13.9377	56.3705
13.9004	58.0021
13.8632	59.6276
13.8262	61.1411
13.7895	62.1652
13.7529	62.9582
13.7165	63.7707
13.6803	64.5129
13.6443	64.9926
13.6085	65.2598
13.5729	65.3924
13.5374	65.4611
13.5022	65.4366
13.4671	65.2269
13.4322	64.8899
13.3975	64.5265
13.363	64.1066
13.3286	63.6529
13.2944	62.991
13.2604	62.1936
13.2266	61.347
13.193	60.4419
13.1595	59.5501
13.1262	58.8777
13.093	58.3697
13.06	57.9113
13.0272	57.5591
12.9946	57.5564
12.9621	57.875
12.9298	58.3243
12.8976	58.8092
12.8656	59.13
12.8337	59.4215
12.8021	59.8781
12.7705	60.1847
12.7391	60.3738
12.7079	60.5184
12.6769	60.6881
12.6459	60.7268
12.6152	60.7561
12.5845	60.7487
12.5541	60.5134
12.5238	59.9325
12.4936	59.0854
12.4635	58.1231
12.4337	57.3053
12.4039	56.7224
12.3743	56.2123
12.3448	55.7739
12.3155	55.496
12.2863	55.2963
12.2573	55.0211
12.2284	54.7262
12.1996	54.3924
12.171	53.7888
12.1425	52.6773
12.1141	50.9432
12.0859	48.5597
12.0578	45.516
12.0298	42.0642
12.0019	38.1669
11.9742	33.2305
11.9466	26.2556
11.9192	17.3892
11.8918	13.6354
11.8646	16.2023
11.8375	17.3796
11.8106	15.5246
11.7837	12.9874
11.757	10.5884
11.7304	8.56184
11.7039	7.32665
11.6776	7.11412
11.6513	7.51026
11.6252	8.45937
11.5992	10.4019
11.5733	13.6264
11.5475	16.8351
11.5219	18.9038
11.4963	20.5321
11.4709	21.9815
11.4455	23.129
11.4203	24.188
11.3952	25.0014
11.3702	25.446
11.3454	25.5196
11.3206	24.8784
11.2959	24.064
11.2714	25.8158
11.2469	29.1336
11.2226	31.4253
11.1983	32.7691
11.1742	33.7048
11.1502	34.7203
11.1263	36.0067
11.1024	37.5545
11.0787	39.3877
11.0551	41.7196
11.0316	44.167
11.0081	46.5201
10.9848	48.593
10.9616	50.1105
10.9385	50.9425
10.9154	51.0268
10.8925	50.4364
10.8697	49.5691
10.8469	48.809
10.8243	48.18
10.8017	47.8586
10.7793	48.1396
10.7569	49.0388
10.7346	50.2337
10.7125	51.397
10.6904	52.3806
10.6684	53.2733
10.6465	54.1879
10.6247	55.0677
10.6029	55.909
10.5813	56.5797
10.5597	57.0006
10.5383	57.2725
10.5169	57.4175
10.4956	57.2899
10.4744	56.7602
10.4533	56.1272
10.4323	55.4752
10.4113	55.0141
10.3904	54.5897
10.3697	54.1257
10.349	53.965
10.3284	54.1752
10.3078	54.5949
10.2874	54.9112
10.267	54.832
10.2467	54.4975
10.2265	54.0097
10.2064	53.517
10.1863	52.8446
10.1663	52.383
10.1464	52.5355
10.1266	52.6816
10.1069	52.5023
10.0872	52.3722
10.0676	52.3967
10.0481	52.5502
10.0287	52.7009
10.0093	52.4801
9.99005	51.9267
9.97084	51.2596
9.95169	50.7755
9.93263	50.4692
9.91364	50.3648
9.89472	50.2205
9.87587	50.0204
9.8571	49.9746
9.83839	49.7303
9.81976	49.3431
9.80119	48.9744
9.78271	48.6617
9.76428	48.5976
9.74592	48.6123
9.72764	48.5423
9.70943	48.4314
9.69128	48.1985
9.6732	47.7103
9.65518	46.7383
9.63724	45.0039
9.61935	44.7066
9.60155	45.3438
9.5838	45.2229
9.56611	45.0481
9.5485	45.0554
9.53094	45.169
9.51345	44.7011
9.49604	42.9721
9.47867	38.0053
9.46137	27.3324
9.44414	15.348
9.42697	16.7083
9.40986	30.465
9.39281	40.1483
9.37583	43.5811
9.35891	44.6708
9.34204	44.8469
9.32524	44.4644
9.3085	44.2204
9.29182	44.1068
9.27519	43.818
9.25863	43.4151
9.24213	43.0744
9.22568	42.7782
9.2093	42.4707
9.19297	41.9991
9.17669	41.5475
9.16048	41.0731
9.14433	40.6627
9.12823	40.4186
9.11218	40.1702
9.0962	39.9246
9.08027	39.7435
9.06439	39.6401
9.04858	39.4131
9.03281	38.9084
9.0171	38.4369
9.00145	37.9976
8.98585	37.5973
8.9703	37.4772
8.9548	37.7784
8.93937	38.2783
8.92398	38.7412
8.90865	39.2984
8.89337	39.9335
8.87814	40.5809
8.86296	41.4543
8.84784	42.1676
8.83277	42.1898
8.81774	41.6242
8.80277	41.1015
8.78786	40.7438
8.77298	40.669
8.75816	40.6667
8.7434	40.2949
8.72868	39.5658
8.714	38.673
8.69938	38.0466
8.68481	37.947
8.67029	38.1371
8.65581	38.1744
8.64139	38.0761
8.62701	38.1914
8.61268	38.7977
8.5984	39.6445
8.58416	40.1167
8.56997	40.1076
8.55583	39.7477
8.54174	39.2954
8.52769	38.6302
8.51368	37.8403
8.49973	37.3985
8.48582	37.4552
8.47195	37.9846
8.45813	38.5623
8.44436	38.7465
8.43062	39.0035
8.41693	39.2705
8.4033	39.4788
8.3897	39.6522
8.37614	39.7434
8.36264	39.9598
8.34917	40.2039
8.33574	40.4178
8.32236	40.4619
8.30903	40.0562
8.29573	39.235
8.28248	38.217
8.26927	37.214
8.2561	36.2273
8.24298	35.3201
8.2299	34.8579
8.21685	34.9449
8.20385	35.411
8.19089	35.9574
8.17797	36.3324
8.16509	36.7624
8.15225	37.3382
8.13946	37.8184
8.1267	38.1474
8.11398	38.241
8.10131	37.8994
8.08867	37.1168
8.07606	36.1646
8.0635	35.3136
8.05099	34.6417
8.0385	34.0303
8.02606	33.4443
8.01366	33.0487
8.00129	32.7561
7.98896	32.4788
7.97667	32.2096
7.96442	32.0791
7.9522	31.9643
7.94002	31.8242
7.92788	31.7035
7.91578	31.645
7.90371	31.6651
7.89168	31.8072
7.87969	31.8611
7.86773	31.795
7.85581	31.4697
7.84392	30.8165
7.83207	29.9363
7.82026	28.8081
7.80849	27.5079
7.79674	26.0631
7.78503	24.7271
7.77337	23.6534
7.76173	22.829
7.75012	22.1258
7.73856	21.5065
7.72703	20.9913
7.71553	20.5003
7.70406	20.0692
7.69263	19.7513
7.68123	19.4096
7.66987	19.1244
7.65855	18.9266
7.64725	18.7122
7.63598	18.4209
7.62475	18.2215
7.61356	18.2035
7.60239	18.1901
7.59126	18.1901
7.58017	18.1967
7.5691	18.1592
7.55806	18.0486
7.54707	18.03
7.5361	17.9728
7.52516	17.8608
7.51425	17.8946
7.50338	17.9476
7.49253	17.8068
7.48172	17.6386
7.47094	17.5862
7.46019	17.4396
7.44947	17.2918
7.43879	17.2142
7.42813	17.049
7.4175	16.8686
7.4069	16.7669
7.39634	16.5613
7.3858	16.1591
7.37529	15.7431
7.36482	15.4079
7.35437	14.8891
7.34396	14.171
7.33357	13.1665
7.32321	11.7794
7.31288	10.4042
7.30258	9.43415
7.29231	9.22207
7.28207	9.1578
7.27185	8.66361
7.26167	8.71246
7.25152	9.48833
7.24139	10.0011
7.23129	10.0738
7.22122	9.89349
7.21117	9.58241
7.20116	9.13014
7.19117	8.62701
7.18121	8.2529
7.17128	7.95497
7.16137	7.66497
7.1515	7.44877
7.14164	7.38058
7.13182	7.25828
7.12203	7.13303
7.11225	7.19405
7.10251	7.4563
7.0928	7.83207
7.08311	8.35218
7.07344	9.00523
7.06381	9.90934
7.0542	10.8638
7.04461	11.618
7.03506	11.9362
7.02552	12.0753
7.01601	12.1596
7.00653	12.2233
6.99708	12.3773
6.98765	12.4213
6.97824	12.3254
6.96886	12.3736
6.95951	12.4551
6.95018	12.3758
6.94087	12.3232
6.9316	12.3275
6.92234	12.4506
6.91311	12.6019
6.90391	12.6905
6.89473	12.7592
6.88557	12.8413
6.87644	12.9155
6.86733	13.0846
6.85824	13.1432
6.84918	13.0811
6.84015	13.1291
6.83114	13.2276
6.82215	13.2198
6.81319	13.1351
6.80424	13.1112
6.79532	13.2005
6.78643	13.1178
6.77756	12.86
6.76871	12.69
6.75989	12.5403
6.75109	12.4474
6.74231	12.3639
6.73355	12.3298
6.72482	12.283
6.71611	12.2056
6.70742	12.1091
6.69875	12.0439
6.69011	12.1386
6.68149	12.3436
6.67289	12.6768
6.66431	13.0615
6.65576	13.2896
6.64722	13.7804
6.63871	14.3492
6.63022	14.508
6.62175	14.5335
6.61331	14.66
6.60488	14.7531
6.59648	14.8421
6.5881	14.7079
6.57974	14.335
6.5714	13.4998
6.56308	12.5204
6.55478	11.6294
6.54651	10.7464
6.53825	9.91605
6.53001	9.15912
6.5218	8.43717
6.51361	7.67493
6.50544	6.97385
6.49729	6.38411
6.48915	5.77439
6.48104	5.16733
6.47295	4.6552
6.46488	4.15367
6.45683	3.76549
6.4488	3.49964
6.44079	3.23348
6.4328	3.04758
6.42482	3.02117
6.41687	2.85221
6.40894	2.67554
6.40103	2.63831
6.39314	2.62966
6.38526	2.59327
6.37741	2.53522
6.36957	2.5537
6.36176	2.64613
6.35396	2.72445
6.34618	2.71997
6.33843	2.74478
6.33069	2.89458
6.32297	3.02069
6.31527	3.1894
6.30758	3.41131
6.29992	3.51729
6.29227	3.67247
6.28465	3.95106
6.27704	4.15905
6.26945	4.27717
6.26188	4.43929
6.25432	4.66916
6.24679	4.88549
6.23927	5.14904
6.23177	5.44478
6.22429	5.58834
6.21683	5.80833
6.20938	6.0588
6.20195	6.234
6.19454	6.59919
6.18715	7.06754
6.17978	7.48917
6.17242	7.85416
6.16508	8.22469
6.15776	8.59851
6.15045	8.84507
6.14317	8.96278
6.1359	9.10236
6.12864	9.3945
6.12141	9.72916
6.11419	10.083
6.10699	10.2698
6.0998	10.592
6.09263	11.0258
6.08549	11.5892
6.07835	12.2538
6.07123	12.9735
6.06413	13.5864
6.05705	14.3144
6.04998	15.2075
6.04293	15.9522
6.0359	16.65
6.02888	17.5565
6.02187	18.6527
6.01489	19.8394
6.00792	20.8455
6.00096	21.9779
5.99403	23.2834
5.98711	24.5281
5.9802	25.5949
5.97331	26.8633
5.96644	28.1092
5.95958	29.2791
5.95274	30.6026
5.94591	32.0867
5.9391	33.8541
5.9323	35.0947
5.92552	35.8537
5.91876	36.8412
5.91201	37.9348
5.90528	39.1912
5.89856	40.7465
5.89186	41.8717
5.88517	43.0782
5.8785	44.3429
5.87184	45.0142
5.8652	46.1344
5.85857	47.0463
5.85196	47.7998
5.84536	48.2987
5.83878	48.3619
5.83221	47.2069
5.82566	46.112
5.81912	47.3771
5.81259	47.631
5.80608	46.9065
5.79959	48.6384
5.79311	50.6202
5.78665	50.9922
5.78019	50.3263
5.77376	49.2163
5.76734	47.7618
5.76093	45.0818
5.75453	41.6261
5.74815	36.5606
5.74179	28.7948
5.73543	19.5312
5.7291	11.5889
5.72277	6.40137
5.71646	3.64771
5.71017	2.95445
5.70389	3.19599
5.69762	3.49528
5.69136	4.16545
5.68513	7.22158
5.6789	14.7618
5.67268	26.1993
5.66648	36.9539
5.6603	44.8364
5.65413	50.1864
5.64797	53.9286
5.64182	56.8526
5.63569	58.707
5.62957	60.0784
5.62347	61.4776
5.61737	62.8074
5.61129	63.9581
5.60522	64.9886
5.59917	65.8778
5.59313	66.5958
5.5871	67.3771
5.58109	68.2362
5.57509	68.8272
5.5691	69.18
5.56312	69.6647
5.55716	70.133
5.55121	70.5507
5.54528	70.88
5.53935	71.2341
5.53344	71.5469
5.52754	71.8921
5.52166	72.1708
5.51578	72.3723
5.50992	72.5697
5.50407	72.822
5.49823	73.0501
5.49241	73.3324
5.4866	73.567
5.4808	73.9804
5.47501	74.2439
5.46923	74.6101
5.46347	74.9766
5.45772	75.0811
5.45198	75.2745
5.44625	75.6042
5.44054	75.8346
5.43484	76.0848
5.42914	76.469
5.42347	76.9523
5.4178	76.9558
5.41214	76.9066
5.4065	77.0987
5.40087	77.3063
5.39525	77.3933
5.38964	77.5492
5.38404	77.7185
5.37846	77.7918
5.37288	77.8275
5.36732	77.8853
5.36177	77.9138
5.35623	78.0858
5.35071	78.2995
5.34519	78.399
5.33968	78.5894
5.33419	78.8777
5.32871	79.1057
5.32324	79.3411
5.31778	79.5156
5.31233	79.7085
5.30689	79.8162
5.30147	79.8506
5.29605	79.9455
5.29065	80.022
5.28525	79.8763
5.27987	79.8141
5.2745	79.7378
5.26914	79.5836
5.26379	79.4096
5.25845	79.383
5.25312	79.3251
5.24781	79.392
5.2425	79.5711
5.23721	79.7658
5.23192	80.0099
5.22665	80.319
5.22138	80.4964
5.21613	80.7524
5.21089	80.9706
5.20566	81.0911
5.20044	81.2584
5.19522	81.3801
5.19002	81.5158
5.18483	81.5896
5.17965	81.5733
5.17448	81.5651
5.16933	81.4874
5.16418	81.3962
5.15904	81.2664
5.15391	81.2035
5.14879	81.1831
5.14368	81.0953
5.13859	81.0094
5.1335	81.0105
5.12842	81.0602
5.12335	81.1868
5.1183	81.345
5.11325	81.6111
5.10821	81.9385
5.10318	82.2904
5.09817	82.5343
5.09316	82.7807
5.08816	83.0588
5.08317	83.3473
5.07819	83.5682
5.07322	83.6703
5.06826	83.6791
5.06331	83.7176
5.05837	83.6876
5.05344	83.6229
5.04852	83.5338
5.04361	83.5388
5.03871	83.5844
5.03382	83.7069
5.02894	83.8433
5.02406	84.0398
5.0192	84.1452
5.01435	84.2197
5.0095	84.3
5.00467	84.4133
4.99984	84.544
4.99502	84.5799
4.99021	84.5428
4.98542	84.5405
4.98063	84.5222
4.97585	84.4135
4.97108	84.3185
4.96632	84.2973
4.96156	84.2682
4.95682	84.231
4.95209	84.1603
4.94736	84.1285
4.94264	84.0976
4.93794	84.087
4.93324	84.0508
4.92855	83.9971
4.92387	83.9431
4.9192	83.9071
4.91453	83.8568
4.90988	83.7366
4.90524	83.6278
4.9006	83.4924
4.89597	83.2606
4.89135	82.9462
4.88674	82.6203
4.88214	82.4969
4.87755	82.4207
4.87296	82.1856
4.86839	81.771
4.86382	81.2491
4.85926	80.6703
4.85471	80.0442
4.85017	79.4561
4.84564	78.9908
4.84111	78.4995
4.8366	77.7808
4.83209	76.7404
4.82759	75.3808
4.8231	73.6061
4.81862	71.3411
4.81415	68.7312
4.80968	65.9625
4.80522	63.2277
4.80077	60.6032
4.79633	57.9584
4.7919	55.3108
4.78747	52.9845
4.78306	51.3891
4.77865	50.6628
4.77425	50.8546
4.76986	51.7219
4.76547	52.9351
4.7611	54.3887
4.75673	55.9453
4.75237	57.577
4.74802	59.0528
4.74367	60.254
4.73934	61.2627
4.73501	62.0178
4.73069	62.5496
4.72638	63.1475
4.72207	63.962
4.71777	64.9353
4.71348	66.0411
4.7092	67.0995
4.70493	68.2
4.70066	69.3097
4.69641	70.2401
4.69216	70.9142
4.68791	71.4878
4.68368	72.0971
4.67945	72.6123
4.67523	72.9381
4.67102	73.2256
4.66682	73.5625
4.66262	73.9069
4.65843	74.316
4.65425	74.7876
4.65007	75.1947
4.64591	75.5407
4.64175	75.8509
4.6376	76.1399
4.63345	76.3485
4.62932	76.4792
4.62519	76.6187
4.62106	76.7135
4.61695	76.69
4.61284	76.6494
4.60874	76.6525
4.60465	76.6841
4.60056	76.6269
4.59648	76.5618
4.59241	76.5701
4.58835	76.5915
4.58429	76.5585
4.58024	76.5169
4.5762	76.5747
4.57216	76.6239
4.56814	76.648
4.56411	76.7163
4.5601	76.7924
4.55609	76.9591
4.55209	77.196
4.5481	77.4712
4.54411	77.7319
4.54013	77.9843
4.53616	78.3496
4.5322	78.7548
4.52824	79.1816
4.52429	79.7303
4.52034	80.2921
4.51641	80.8346
4.51247	81.3563
4.50855	81.8063
4.50463	82.1647
4.50072	82.456
4.49682	82.6165
4.49292	82.6034
4.48903	82.5079
4.48515	82.5254
4.48127	82.5805
4.4774	82.7216
4.47354	82.8488
4.46968	82.905
4.46584	82.925
4.46199	82.9292
4.45815	82.8136
4.45432	82.6038
4.4505	82.3962
4.44668	82.1284
4.44287	81.8124
4.43907	81.4782
4.43527	81.121
4.43148	80.6385
4.4277	79.9865
4.42392	79.2897
4.42015	78.4549
4.41638	77.4561
4.41262	76.3895
4.40887	75.3497
4.40513	74.3495
4.40139	73.5555
4.39765	73.1333
4.39393	73.1221
4.39021	73.3926
4.38649	73.8674
4.38278	74.4877
4.37908	75.1227
4.37539	75.5944
4.3717	75.8977
4.36801	76.1415
4.36434	76.3584
4.36067	76.525
4.357	76.7627
4.35335	76.9022
4.34969	76.9613
4.34605	77.0381
4.34241	77.1084
4.33877	77.0466
4.33514	77.0613
4.33152	77.1686
4.32791	77.251
4.3243	77.2059
4.32069	77.1064
4.3171	77.0271
4.31351	76.92
4.30992	76.7903
4.30634	76.6951
4.30277	76.5643
4.2992	76.3145
4.29564	76.0116
4.29208	75.7034
4.28853	75.295
4.28499	74.797
4.28145	74.265
4.27792	73.705
4.27439	73.1231
4.27087	72.6833
4.26735	72.3914
4.26384	72.2264
4.26034	72.1809
4.25684	72.2562
4.25335	72.2939
4.24986	72.2863
4.24638	72.2637
4.24291	72.1784
4.23944	72.077
4.23598	71.9431
4.23252	71.8484
4.22906	71.7423
4.22562	71.6016
4.22218	71.3887
4.21874	71.1653
4.21531	70.97
4.21189	70.7394
4.20847	70.4784
4.20506	70.2854
4.20165	70.0954
4.19825	69.8175
4.19485	69.5478
4.19146	69.3092
4.18807	69.0991
4.18469	68.8776
4.18132	68.6466
4.17795	68.3508
4.17458	67.9833
4.17123	67.6622
4.16787	67.2743
4.16453	66.8033
4.16118	66.1903
4.15785	65.4193
4.15451	64.5734
4.15119	63.4573
4.14787	62.0552
4.14455	60.2131
4.14124	57.8493
4.13794	55.0107
4.13464	51.6853
4.13134	48.9371
4.12805	47.241
4.12477	45.1216
4.12149	42.8255
4.11822	41.7708
4.11495	40.9185
4.11168	38.5197
4.10843	34.484
4.10517	29.4652
4.10192	24.3672
4.09868	20.022
4.09545	16.8262
4.09221	14.4356
4.08899	12.2956
4.08576	10.2221
4.08255	8.46851
4.07933	7.46051
4.07613	7.39506
4.07292	8.02319
4.06973	8.89717
4.06654	9.97569
4.06335	11.1624
4.06017	12.1178
4.05699	12.9786
4.05382	13.6674
4.05065	14.148
4.04749	14.6037
4.04433	14.8507
4.04118	14.9555
4.03803	15.4816
4.03489	16.666
4.03175	18.2816
4.02862	19.9929
4.02549	21.6312
4.02237	23.2868
4.01925	24.8159
4.01614	26.2424
4.01303	27.7796
4.00993	29.4454
4.00683	30.6901
4.00373	31.2598
4.00064	31.4274
3.99756	31.6171
3.99448	32.0142
3.9914	32.5994
3.98833	33.1809
3.98527	33.8049
3.98221	34.5568
3.97915	35.2881
3.9761	35.8449
3.97305	36.2493
3.97001	36.5428
3.96697	36.7658
3.96394	36.8402
3.96091	36.833
3.95789	36.7799
3.95487	36.5444
3.95186	36.4061
3.94885	36.3047
3.94584	36.0709
3.94284	35.8777
3.93984	35.8039
3.93685	35.8424
3.93386	35.8482
3.93088	35.8395
3.9279	35.8501
3.92493	35.8398
3.92196	35.9346
3.919	36.1783
3.91604	36.4321
3.91308	36.7034
3.91013	37.0654
3.90718	37.5455
3.90424	38.3128
3.9013	39.3115
3.89837	40.6441
3.89544	42.3582
3.89252	44.407
3.8896	46.6701
3.88668	49.2831
3.88377	52.3625
3.88086	55.7109
3.87796	58.9091
3.87506	61.7162
3.87217	63.9956
3.86928	65.7703
3.86639	67.1038
3.86351	68.0728
3.86064	68.8205
3.85776	69.4703
3.8549	69.9562
3.85203	70.3298
3.84917	70.5815
3.84631	70.6397
3.84346	70.6545
3.84062	70.8068
3.83777	70.9159
3.83494	71.0091
3.8321	71.2061
3.82927	71.4897
3.82644	71.8193
3.82362	72.1192
3.82081	72.3856
3.81799	72.6595
3.81518	72.9617
3.81238	73.3252
3.80958	73.6201
3.80678	73.8002
3.80399	73.9626
3.8012	74.1109
3.79841	74.29
3.79563	74.5807
3.79286	74.7917
3.79008	74.8803
3.78731	75.0412
3.78455	75.184
3.78179	75.3034
3.77903	75.3996
3.77628	75.5331
3.77353	75.7297
3.77079	75.9281
3.76805	76.0734
3.76531	76.1841
3.76258	76.3184
3.75985	76.4229
3.75713	76.4945
3.7544	76.5338
3.75169	76.6232
3.74898	76.7469
3.74627	76.835
3.74356	76.8358
3.74086	76.831
3.73816	76.7929
3.73547	76.7769
3.73278	76.7817
3.7301	76.6666
3.72741	76.537
3.72474	76.5388
3.72206	76.5123
3.71939	76.5508
3.71673	76.5965
3.71406	76.5919
3.71141	76.5762
3.70875	76.5726
3.7061	76.5683
3.70345	76.5549
3.70081	76.4938
3.69817	76.342
3.69553	76.2958
3.6929	76.313
3.69027	76.192
3.68765	76.0691
3.68503	76.0121
3.68241	75.9229
3.6798	75.7777
3.67719	75.6257
3.67458	75.4399
3.67198	75.2501
3.66938	75.0368
3.66678	74.8555
3.66419	74.6696
3.66161	74.3965
3.65902	74.0332
3.65644	73.5388
3.65387	72.8989
3.65129	71.929
3.64872	70.5068
3.64616	68.9091
3.64359	67.9098
3.64103	68.2432
3.63848	69.3972
3.63593	70.4995
3.63338	71.1946
3.63084	71.4881
3.6283	71.4621
3.62576	71.3442
3.62322	71.0417
3.62069	70.6042
3.61817	70.0648
3.61564	69.5031
3.61312	68.8562
3.61061	68.0306
3.6081	67.1428
3.60559	66.0954
3.60308	64.9951
3.60058	63.681
3.59808	62.0752
3.59558	60.2206
3.59309	58.1624
3.59061	55.9947
3.58812	53.6964
3.58564	51.285
3.58316	48.7715
3.58069	46.256
3.57822	43.6187
3.57575	40.9224
3.57328	38.3615
3.57082	36.0665
3.56836	34.1218
3.56591	32.7634
3.56346	31.7905
3.56101	30.508
3.55857	28.5273
3.55613	26.0947
3.55369	23.7211
3.55126	21.7189
3.54883	20.29
3.5464	19.3066
3.54397	18.761
3.54155	18.4373
3.53914	18.4325
3.53672	19.048
3.53431	20.0333
3.5319	21.2868
3.5295	22.5673
3.5271	23.801
3.5247	24.9625
3.52231	25.9242
3.51991	26.7707
3.51753	27.526
3.51514	28.1497
3.51276	28.6935
3.51038	29.1846
3.50801	29.7051
3.50563	30.295
3.50327	30.8638
3.5009	31.4029
3.49854	31.7993
3.49618	31.9981
3.49382	31.8885
3.49147	31.4123
3.48912	30.8157
3.48677	30.2399
3.48443	29.7568
3.48209	29.2681
3.47975	28.7892
3.47742	28.2978
3.47509	27.9642
3.47276	27.8504
3.47044	27.7619
3.46812	27.8098
3.4658	28.0183
3.46348	28.2803
3.46117	28.5586
3.45886	28.843
3.45656	29.2743
3.45425	29.9332
3.45195	30.7262
3.44966	31.5478
3.44736	32.509
3.44507	33.6263
3.44279	34.9052
3.4405	36.2566
3.43822	37.6626
3.43594	39.2511
3.43367	41.0887
3.43139	42.9832
3.42912	44.9089
3.42686	46.7828
3.42459	48.5582
3.42233	50.3444
3.42007	52.0649
3.41782	53.5623
3.41557	54.9003
3.41332	56.1505
3.41108	57.3062
3.40883	58.3596
3.40659	59.3923
3.40435	60.4366
3.40212	61.3453
3.39989	62.1738
3.39766	63.0142
3.39544	63.6485
3.39322	64.1178
3.391	64.6425
3.38878	65.0886
3.38657	65.5064
3.38436	65.9901
3.38215	66.3056
3.37994	66.5648
3.37774	66.9081
3.37554	67.2044
3.37335	67.5389
3.37115	67.923
3.36896	68.281
3.36678	68.5985
3.36459	68.9819
3.36241	69.327
3.36023	69.5776
3.35805	69.7797
3.35588	70.0118
3.35371	70.2701
3.35154	70.4143
3.34938	70.5213
3.34721	70.5701
3.34505	70.6368
3.3429	70.7709
3.34074	70.8649
3.33859	70.9913
3.33644	71.1168
3.3343	71.2752
3.33215	71.3529
3.33001	71.3793
3.32788	71.4146
3.32574	71.478
3.32361	71.5624
3.32148	71.6781
3.31936	71.8071
3.31723	71.9184
3.31511	71.947
3.31299	72.0079
3.31088	72.1823
3.30876	72.2314
3.30665	72.2511
3.30455	72.3774
3.30244	72.4718
3.30034	72.5756
3.29824	72.7291
3.29614	72.7991
3.29405	72.854
3.29196	72.9687
3.28987	73.1027
3.28778	73.2178
3.2857	73.2848
3.28362	73.3923
3.28154	73.5545
3.27946	73.6778
3.27739	73.812
3.27532	73.896
3.27325	73.9843
3.27119	74.038
3.26913	74.0551
3.26707	74.095
3.26501	74.1731
3.26295	74.2857
3.2609	74.2941
3.25885	74.2761
3.2568	74.3684
3.25476	74.4562
3.25272	74.4905
3.25068	74.5282
3.24864	74.5285
3.24661	74.6183
3.24458	74.6746
3.24255	74.6922
3.24052	74.7833
3.2385	74.8276
3.23648	74.904
3.23446	74.9168
3.23244	74.8386
3.23043	74.8162
3.22841	74.8122
3.2264	74.8633
3.2244	74.9078
3.22239	74.8067
3.22039	74.6848
3.21839	74.5499
3.2164	74.449
3.2144	74.3701
3.21241	74.1425
3.21042	73.9045
3.20844	73.6574
3.20645	73.2801
3.20447	72.8394
3.20249	72.3048
3.20051	71.7091
3.19854	71.1828
3.19657	70.5611
3.1946	69.8773
3.19263	69.2532
3.19067	68.6064
3.1887	68.095
3.18674	67.6204
3.18479	67.0542
3.18283	66.629
3.18088	66.6375
3.17893	67.129
3.17698	67.8184
3.17504	68.4755
3.17309	69.0806
3.17115	69.6934
3.16921	70.2461
3.16728	70.7119
3.16534	71.0211
3.16341	71.2195
3.16148	71.4341
3.15956	71.5696
3.15763	71.6856
3.15571	71.896
3.15379	72.1328
3.15187	72.2787
3.14996	72.4321
3.14805	72.471
3.14614	72.5567
3.14423	72.7054
3.14232	72.7748
3.14042	72.8339
3.13852	72.9034
3.13662	72.9337
3.13472	73.1058
3.13283	73.158
3.13094	73.0973
3.12905	73.155
3.12716	73.2201
3.12528	73.186
3.12339	73.149
3.12151	73.2494
3.11964	73.2314
3.11776	73.1018
3.11589	73.1112
3.11401	73.2287
3.11214	73.2157
3.11028	73.1385
3.10841	73.0877
3.10655	73.0644
3.10469	72.9869
3.10283	72.8924
3.10098	73.0331
3.09912	73.152
3.09727	73.1304
3.09542	73.0708
3.09358	73.0175
3.09173	72.966
3.08989	72.9136
3.08805	72.8929
3.08621	72.8747
3.08437	72.8301
3.08254	72.9019
3.08071	72.9107
3.07888	72.8186
3.07705	72.8887
3.07523	72.9755
3.0734	72.9976
3.07158	72.9944
3.06977	72.9722
3.06795	72.9588
3.06613	72.9824
3.06432	73.0108
3.06251	73.0367
3.0607	73.0021
3.0589	73.0382
3.0571	73.1277
3.05529	73.1318
3.05349	73.1602
3.0517	73.1962
3.0499	73.1509
3.04811	73.1246
3.04632	73.1722
3.04453	73.2516
3.04274	73.1533
3.04096	73.144
3.03918	73.1353
3.0374	73.1489
3.03562	73.2121
3.03384	73.1204
3.03207	73.0655
3.03029	73.0935
3.02852	73.1139
3.02676	73.0405
3.02499	73.0925
3.02323	73.1122
3.02146	73.0787
3.0197	73.1212
3.01795	73.0582
3.01619	73.0062
3.01444	72.984
3.01269	73.0052
3.01094	72.9938
3.00919	73.0045
3.00744	73.0617
3.0057	73.0796
3.00396	73.0659
3.00222	72.8838
3.00048	72.7437
2.99875	72.7749
2.99701	72.9134
2.99528	72.8987
2.99355	72.8336
2.99183	72.7797
2.9901	72.735
2.98838	72.8474
2.98666	72.8984
2.98494	72.7827
2.98322	72.8073
2.9815	72.9136
2.97979	72.9468
2.97808	72.9124
2.97637	72.8834
2.97466	72.8719
2.97295	72.7788
2.97125	72.7247
2.96955	72.7031
2.96785	72.7789
2.96615	72.8672
2.96446	72.8186
2.96276	72.7742
2.96107	72.8748
2.95938	72.9832
2.95769	72.9567
2.95601	72.9435
2.95432	73.0376
2.95264	73.0169
2.95096	72.9874
2.94928	73.0829
2.9476	73.1905
2.94593	73.2248
2.94425	73.2206
2.94258	73.222
2.94092	73.1933
2.93925	73.2773
2.93758	73.3457
2.93592	73.3531
2.93426	73.3773
2.9326	73.4412
2.93094	73.5198
2.92928	73.549
2.92763	73.6483
2.92598	73.6516
2.92433	73.6255
2.92268	73.7053
2.92103	73.7654
2.91939	73.7993
2.91775	73.804
2.9161	73.8411
2.91447	73.8878
2.91283	73.9693
2.91119	74.069
2.90956	74.0533
2.90793	74.0945
2.9063	74.0786
2.90467	74.0764
2.90304	74.1472
2.90142	74.1927
2.89979	74.1224
2.89817	74.1544
2.89656	74.2227
2.89494	74.2355
2.89332	74.2425
2.89171	74.1953
2.8901	74.1708
2.88849	74.1492
2.88688	73.9881
2.88527	73.7778
2.88367	73.6692
2.88206	73.5782
2.88046	73.4375
2.87886	73.2402
2.87727	72.9715
2.87567	72.7283
2.87408	72.4872
2.87248	72.2007
2.87089	71.6768
2.8693	70.9723
2.86772	70.2923
2.86613	69.4498
2.86455	68.5209
2.86297	67.783
2.86139	67.254
2.85981	66.9193
2.85823	66.7083
2.85666	66.4391
2.85508	66.6958
2.85351	67.7184
2.85194	69.2277
2.85038	70.7735
2.84881	71.8873
2.84724	72.4735
2.84568	72.9653
2.84412	73.5036
2.84256	73.8939
2.841	74.1124
2.83945	74.3539
2.83789	74.7446
2.83634	75.1297
2.83479	75.388
2.83324	75.624
2.83169	75.934
2.83015	76.2645
2.82861	76.6301
2.82706	76.9055
2.82552	77.216
2.82398	77.3768
2.82245	77.5585
2.82091	77.7786
2.81938	78.0853
2.81784	78.2527
2.81631	78.3488
2.81479	78.559
2.81326	78.726
2.81173	78.8099
2.81021	79.0032
2.80869	79.2858
2.80716	79.3802
2.80565	79.5184
2.80413	79.7715
2.80261	80.0179
2.8011	80.0071
2.79959	80.016
2.79808	80.1069
2.79657	80.1585
2.79506	80.2729
2.79355	80.4432
2.79205	80.6405
2.79055	80.8087
2.78904	81.0657
2.78754	81.4407
2.78605	81.5302
2.78455	81.463
2.78306	81.5407
2.78156	81.6144
2.78007	81.7121
2.77858	81.8954
2.77709	82.205
2.77561	82.3071
2.77412	82.3952
2.77264	82.7423
2.77116	83.1573
2.76968	83.3172
2.7682	83.5243
2.76672	83.6982
2.76524	83.8194
2.76377	84.1108
2.7623	84.2754
2.76083	84.2372
2.75936	84.4575
2.75789	84.9538
2.75642	85.8095
2.75496	86.1952
2.7535	85.8217
2.75203	85.7731
2.75057	85.9535
2.74912	86.1227
2.74766	86.3467
2.7462	86.6044
2.74475	86.7768
2.7433	86.9194
2.74185	87.3516
2.7404	87.9227
2.73895	87.9378
2.7375	87.6957
2.73606	87.7989
2.73462	87.9617
2.73318	87.9138
2.73174	87.9383
2.7303	87.9301
2.72886	88.0505
2.72742	88.2159
2.72599	88.4866
2.72456	88.6751
2.72313	88.1722
2.7217	87.9977
2.72027	88.464
2.71884	88.6049
2.71742	88.8502
2.71599	89.0893
2.71457	89.2789
2.71315	89.4865
2.71173	90.0261
2.71032	90.22
2.7089	89.9331
2.70748	89.6905
2.70607	89.5235
2.70466	89.6334
2.70325	89.8441
2.70184	90.0941
2.70043	90.132
2.69903	90.1686
2.69762	90.4086
2.69622	90.8385
2.69482	91.2687
2.69342	91.3331
2.69202	90.9929
2.69062	90.962
2.68923	91.0946
2.68783	91.1322
2.68644	91.2373
2.68505	91.2244
2.68366	91.2586
2.68227	91.1129
2.68089	91.1066
2.6795	91.5735
2.67812	91.7467
2.67673	91.8986
2.67535	91.7109
2.67397	91.4243
2.6726	91.427
2.67122	92.1035
2.66984	92.2274
2.66847	91.7737
2.6671	92.0911
2.66572	92.1761
2.66435	91.8908
2.66299	91.3052
2.66162	91.2925
2.66025	91.445
2.65889	91.4059
2.65753	91.1477
2.65616	91.2358
2.65481	91.1693
2.65345	91.167
2.65209	91.2558
2.65073	91.067
2.64938	90.9188
2.64803	90.9633
2.64667	91.0533
2.64532	90.938
2.64397	90.5602
2.64263	90.3038
2.64128	89.968
2.63994	89.8192
2.63859	90.0377
2.63725	90.3667
2.63591	90.5115
2.63457	90.6861
2.63323	90.6971
2.6319	90.9211
2.63056	91.2645
2.62923	90.7681
2.62789	90.4982
2.62656	90.5826
2.62523	90.007
2.6239	89.4266
2.62258	89.1219
2.62125	89.2721
2.61993	88.8564
2.6186	88.0346
2.61728	87.6835
2.61596	86.8031
2.61464	85.7466
2.61332	85.0849
2.61201	84.1929
2.61069	83.3584
2.60938	82.5083
2.60807	81.5332
2.60675	80.6936
2.60544	79.593
2.60414	77.9571
2.60283	76.5203
2.60152	75.3949
2.60022	74.4867
2.59891	74.1479
2.59761	74.3649
2.59631	75.1455
2.59501	76.2633
2.59371	76.076
2.59242	75.6823
2.59112	75.8119
2.58983	76.1653
2.58853	76.6558
2.58724	77.1465
2.58595	77.3113
2.58466	77.7646
2.58338	78.1185
2.58209	78.2573
2.5808	78.7327
2.57952	79.0984
2.57824	79.6726
2.57695	80.3294
2.57567	80.7104
2.5744	81.2335
2.57312	81.7159
2.57184	81.7375
2.57057	82.1624
2.56929	82.568
2.56802	82.6456
2.56675	82.7605
2.56548	83.0706
2.56421	83.4621
2.56294	83.8266
2.56168	84.0112
2.56041	83.9243
2.55915	83.8293
2.55789	83.8883
2.55662	84.036
2.55536	84.2776
2.5541	84.4112
2.55285	84.5469
2.55159	84.5953
2.55034	84.5457
2.54908	84.4716
2.54783	84.4799
2.54658	84.5082
2.54533	84.5727
2.54408	84.5928
2.54283	84.6222
2.54159	84.6416
2.54034	84.6344
2.5391	84.5889
2.53785	84.6284
2.53661	84.7734
2.53537	84.8035
2.53413	84.7995
2.53289	84.9683
2.53166	85.1165
2.53042	85.2085
2.52919	85.3907
2.52795	85.5909
2.52672	85.7443
2.52549	85.954
2.52426	86.1863
2.52303	86.4265
2.52181	86.6915
2.52058	86.99
2.51936	87.2474
2.51813	87.5356
2.51691	87.7811
2.51569	87.9059
2.51447	88.1014
2.51325	88.4399
2.51203	88.6539
2.51082	88.7376
2.5096	88.8999
2.50839	89.1175
2.50717	89.2955
2.50596	89.3972
2.50475	89.4489
2.50354	89.5989
2.50233	89.6867
2.50113	89.7299
2.49992	89.8509
2.49872	90.0362
2.49751	90.0763
2.49631	90.2179
2.49511	90.3372
2.49391	90.373
2.49271	90.4201
2.49151	90.4687
2.49031	90.483
2.48912	90.4855
2.48792	90.5175
2.48673	90.5392
2.48554	90.6453
2.48435	90.7327
2.48316	90.698
2.48197	90.7817
2.48078	90.8637
2.4796	90.8597
2.47841	90.7904
2.47723	90.7609
2.47604	90.7904
2.47486	90.8233
2.47368	90.8359
2.4725	90.8343
2.47132	90.9013
2.47014	91.0275
2.46897	91.0681
2.46779	90.9748
2.46662	90.9506
2.46545	91.0282
2.46427	91.0782
2.4631	91.0921
2.46193	91.1278
2.46077	91.1507
2.4596	91.1046
2.45843	91.0195
2.45727	90.9685
2.4561	91.0488
2.45494	91.1358
2.45378	91.1121
2.45262	91.1628
2.45146	91.2053
2.4503	91.1842
2.44914	91.1131
2.44799	91.1579
2.44683	91.0884
2.44568	91.0147
2.44452	91.0369
2.44337	91.1079
2.44222	91.1439
2.44107	91.2099
2.43992	91.1806
2.43877	91.1413
2.43763	91.1379
2.43648	91.0929
2.43534	91.2289
2.43419	91.2564
2.43305	91.098
2.43191	90.9612
2.43077	90.9387
2.42963	90.9967
2.42849	90.8927
2.42736	90.7957
2.42622	90.8857
2.42509	90.8542
2.42395	90.7309
2.42282	90.6127
2.42169	90.3993
2.42056	90.1721
2.41943	90.2676
2.4183	90.2669
2.41717	90.078
2.41605	89.9624
2.41492	89.7712
2.4138	89.6545
2.41267	89.6663
2.41155	89.4606
2.41043	89.156
2.40931	88.8717
2.40819	88.5076
2.40707	88.0745
2.40595	87.6917
2.40484	87.2143
2.40372	86.63
2.40261	86.1097
2.4015	85.7074
2.40039	85.2084
2.39928	84.7587
2.39817	84.3935
2.39706	83.8921
2.39595	83.5502
2.39484	83.2631
2.39374	82.7909
2.39263	82.2155
2.39153	81.6843
2.39043	81.3173
2.38932	81.1861
2.38822	81.2316
2.38712	81.3983
2.38603	81.6441
2.38493	82.0086
2.38383	82.5745
2.38274	83.2373
2.38164	83.671
2.38055	84.0003
2.37946	84.486
2.37836	84.9209
2.37727	85.2955
2.37618	85.7481
2.3751	86.0269
2.37401	86.1721
2.37292	86.4003
2.37184	86.6448
2.37075	86.8775
2.36967	87.0305
2.36859	87.2187
2.3675	87.352
2.36642	87.4276
2.36534	87.5897
2.36427	87.8068
2.36319	87.7517
2.36211	87.7171
2.36104	87.9186
2.35996	88.0672
2.35889	88.1
2.35781	88.1299
2.35674	88.2428
2.35567	88.2981
2.3546	88.2696
2.35353	88.2273
2.35247	88.1889
2.3514	88.189
2.35033	88.3197
2.34927	88.4121
2.3482	88.38
2.34714	88.379
2.34608	88.4155
2.34502	88.424
2.34396	88.4938
2.3429	88.4441
2.34184	88.5541
2.34078	88.6644
2.33973	88.6503
2.33867	88.623
2.33762	88.622
2.33656	88.6125
2.33551	88.7281
2.33446	88.8238
2.33341	88.9785
2.33236	89.0994
2.33131	89.0416
2.33026	89.1347
2.32922	89.2365
2.32817	89.237
2.32712	89.3442
2.32608	89.516
2.32504	89.5884
2.324	89.5285
2.32295	89.6346
2.32191	89.8761
2.32087	90.0041
2.31984	90.0228
2.3188	90.0034
2.31776	90.0214
2.31673	90.036
2.31569	90.0936
2.31466	90.2864
2.31362	90.4433
2.31259	90.478
2.31156	90.5424
2.31053	90.6253
2.3095	90.6669
2.30847	90.8172
2.30745	90.7826
2.30642	90.6892
2.3054	90.7658
2.30437	90.8114
2.30335	90.9034
2.30232	91.1379
2.3013	91.2518
2.30028	91.1183
2.29926	91.039
2.29824	91.088
2.29722	91.1213
2.29621	91.2218
2.29519	91.3722
2.29417	91.5117
2.29316	91.5283
2.29215	91.5096
2.29113	91.3665
2.29012	91.3547
2.28911	91.4635
2.2881	91.5134
2.28709	91.5701
2.28608	91.6339
2.28507	91.6753
2.28407	91.648
2.28306	91.8007
2.28206	91.8441
2.28105	91.7566
2.28005	91.8
2.27905	91.9337
2.27805	92.0643
2.27705	91.9323
2.27605	91.9072
2.27505	91.9721
2.27405	91.9962
2.27305	92.0142
2.27206	92.0124
2.27106	92.104
2.27007	92.2147
2.26907	92.2989
2.26808	92.3298
2.26709	92.227
2.2661	92.1622
2.26511	92.1631
2.26412	92.2198
2.26313	92.3364
2.26214	92.3224
2.26116	92.3167
2.26017	92.2963
2.25919	92.3474
2.2582	92.4313
2.25722	92.4538
2.25624	92.4845
2.25526	92.5305
2.25428	92.4622
2.2533	92.4879
2.25232	92.4757
2.25134	92.4624
2.25036	92.4989
2.24939	92.5339
2.24841	92.4369
2.24744	92.358
2.24646	92.5008
2.24549	92.6183
2.24452	92.5548
2.24355	92.5885
2.24257	92.7371
2.24161	92.663
2.24064	92.6029
2.23967	92.6481
2.2387	92.6551
2.23774	92.6762
2.23677	92.6395
2.23581	92.5999
2.23484	92.6755
2.23388	92.7198
2.23292	92.7112
2.23196	92.7377
2.231	92.6494
2.23004	92.6271
2.22908	92.7295
2.22812	92.784
2.22716	92.6433
2.22621	92.5776
2.22525	92.6615
2.2243	92.7544
2.22334	92.8035
2.22239	92.7165
2.22144	92.5263
2.22049	92.3453
2.21953	92.2259
2.21859	92.1593
2.21764	92.2166
2.21669	92.2364
2.21574	92.1986
2.21479	91.9937
2.21385	91.9234
2.2129	91.9502
2.21196	91.9255
2.21102	91.9618
2.21007	91.8503
2.20913	91.7987
2.20819	91.7737
2.20725	91.6651
2.20631	91.7133
2.20537	91.7268
2.20444	91.8449
2.2035	92.0233
2.20256	92.1251
2.20163	92.1336
2.20069	92.145
2.19976	92.2302
2.19883	92.3619
2.19789	92.4592
2.19696	92.6372
2.19603	92.7013
2.1951	92.5994
2.19417	92.6578
2.19325	92.752
2.19232	92.5902
2.19139	92.4682
2.19047	92.4901
2.18954	92.5649
2.18862	92.6245
2.18769	92.6136
2.18677	92.7795
2.18585	92.8423
2.18493	92.7718
2.18401	92.8098
2.18309	92.7752
2.18217	92.6787
2.18125	92.7134
2.18033	92.806
2.17942	92.7643
2.1785	92.6677
2.17759	92.6622
2.17667	92.8399
2.17576	92.8594
2.17485	92.7653
2.17393	92.7393
2.17302	92.7736
2.17211	92.7614
2.1712	92.7231
2.17029	92.8471
2.16939	93.0187
2.16848	93.0613
2.16757	92.9538
2.16667	92.7735
2.16576	92.8458
2.16486	92.8833
2.16395	92.6506
2.16305	92.6208
2.16215	92.7401
2.16125	92.7946
2.16035	92.7893
2.15945	92.7381
2.15855	92.8121
2.15765	92.8559
2.15675	92.8123
2.15586	92.7791
2.15496	92.8648
2.15406	92.9751
2.15317	93.1269
2.15228	93.1651
2.15138	93.0521
2.15049	93.0014
2.1496	92.8879
2.14871	92.8203
2.14782	92.8475
2.14693	92.7754
2.14604	92.8144
2.14515	92.8922
2.14427	92.9787
2.14338	93.0363
2.14249	92.9383
2.14161	92.8894
2.14072	93.0074
2.13984	93.2152
2.13896	93.1954
2.13808	93.0172
2.13719	92.8543
2.13631	92.9013
2.13543	93.1415
2.13455	93.2966
2.13368	93.1832
2.1328	92.9996
2.13192	92.9341
2.13105	92.9794
2.13017	92.9495
2.1293	92.9656
2.12842	92.9745
2.12755	92.9503
2.12668	93.1013
2.1258	93.1527
2.12493	93.1355
2.12406	93.2121
2.12319	93.1965
2.12232	93.1902
2.12145	93.2017
2.12059	93.0147
2.11972	92.9388
2.11885	92.928
2.11799	93.011
2.11712	93.1605
2.11626	93.0876
2.1154	92.9322
2.11453	92.9251
2.11367	93.1557
2.11281	93.3606
2.11195	93.3701
2.11109	93.2927
2.11023	93.1633
2.10937	93.0384
2.10851	93.0525
2.10766	93.2146
2.1068	93.23
2.10594	93.153
2.10509	93.0659
2.10423	93.0837
2.10338	93.0802
2.10253	92.9952
2.10168	93.1191
2.10082	93.3264
2.09997	93.365
2.09912	93.1789
2.09827	93.0386
2.09742	92.9992
2.09658	92.9752
2.09573	92.8692
2.09488	92.9632
2.09404	93.1807
2.09319	93.24
2.09235	93.2079
2.0915	93.1979
2.09066	93.2162
2.08982	93.2017
2.08897	93.1038
2.08813	92.7758
2.08729	92.7096
2.08645	92.876
2.08561	92.8805
2.08477	92.7856
2.08394	92.9366
2.0831	93.0913
2.08226	93.1258
2.08143	93.0287
2.08059	93.1371
2.07976	93.096
2.07892	93.067
2.07809	93.0341
2.07726	92.984
2.07643	93.0757
2.07559	93.0545
2.07476	93.1464
2.07393	92.9387
2.0731	92.8564
2.07228	92.875
2.07145	92.8688
2.07062	92.8317
2.06979	92.8606
2.06897	92.8655
2.06814	92.7533
2.06732	92.8607
2.06649	93.1382
2.06567	93.0754
2.06485	92.9984
2.06403	92.9828
2.0632	93.0934
2.06238	93.1246
2.06156	92.8175
2.06074	92.8421
2.05993	93.0284
2.05911	93.0367
2.05829	93.0047
2.05747	93.0595
2.05666	92.8963
2.05584	92.6001
2.05503	92.7135
2.05421	92.7542
2.0534	92.6033
2.05259	92.4422
2.05177	92.3867
2.05096	92.4368
2.05015	92.3413
2.04934	92.3764
2.04853	92.3401
2.04772	91.9181
2.04691	91.6454
2.04611	91.74
2.0453	91.7804
2.04449	91.8819
2.04369	92.1765
2.04288	92.374
2.04208	92.3997
2.04127	92.2781
2.04047	92.2553
2.03967	92.3252
2.03886	92.3105
2.03806	92.3688
2.03726	92.4611
2.03646	92.4558
2.03566	92.5315
2.03486	92.6219
2.03407	92.503
2.03327	92.3578
2.03247	92.3411
2.03167	92.5537
2.03088	92.8717
2.03008	92.7572
2.02929	92.6415
2.0285	92.5735
2.0277	92.6984
2.02691	93.0475
2.02612	92.965
2.02533	92.8168
2.02453	92.5897
2.02374	92.4867
2.02295	92.6669
2.02217	92.7079
2.02138	92.6885
2.02059	92.7263
2.0198	92.9138
2.01902	92.9172
2.01823	92.8666
2.01744	92.9179
2.01666	93.08
2.01588	92.9975
2.01509	92.6712
2.01431	92.5146
2.01353	92.5316
2.01275	92.6614
2.01196	92.5308
2.01118	92.5766
2.0104	92.8836
2.00963	92.9227
2.00885	92.8272
2.00807	92.8539
2.00729	92.7622
2.00651	92.7848
2.00574	92.8481
2.00496	92.8435
2.00419	92.9228
2.00341	92.8938
2.00264	92.7687
2.00187	92.675
2.00109	92.776
2.00032	92.7242
