Name: Gold plate
Type: Manmade materials
Class: Reflectance target
Subclass: 
Particle Size: Solid
Sample No.: 001682
Owner: JPL
Wavelength range: IR
Origin: Labsphere, P.O. Box 70, Shaker Street, North Sutton, NH 03260
(603) 927-4266
Description: Measurement made at bottom right. Field Gold.
Oct. 29 1997 to Oct. 30 1997.




Measurement: Hemispherical Reflectance
First Column: X
Second Column: Y
X Units: Wavelength (micrometers)
Y Units: Reflectence (percent)
First X Value: 15.3853
Last X Value: 2.00032
Number of X Values: 2256
Additional information: None.
 
15.3853	88.0504
15.3397	88.1974
15.2945	88.1939
15.2495	87.9361
15.2048	88.0267
15.1603	88.1814
15.1161	88.2228
15.0722	88.153
15.0285	87.489
14.9851	86.208
14.9419	86.8999
14.8989	88.0277
14.8563	88.0432
14.8138	88.0621
14.7716	88.1258
14.7296	88.1031
14.6879	87.9807
14.6464	87.9655
14.6052	87.9216
14.5641	88.0225
14.5233	88.0905
14.4828	88.005
14.4424	87.8982
14.4023	87.9511
14.3624	87.972
14.3227	87.9388
14.2833	88.0419
14.244	88.3382
14.205	88.403
14.1662	88.2825
14.1276	88.2471
14.0892	88.1886
14.051	88.0873
14.0131	88.2491
13.9753	88.3472
13.9377	88.2917
13.9004	88.2634
13.8632	88.3091
13.8262	88.5319
13.7895	88.5672
13.7529	88.5018
13.7165	88.5369
13.6803	88.5671
13.6443	88.6494
13.6085	88.64
13.5729	88.6404
13.5374	88.606
13.5022	88.5425
13.4671	88.5414
13.4322	88.5859
13.3975	88.6049
13.363	88.6417
13.3286	88.5724
13.2944	88.5378
13.2604	88.5294
13.2266	88.5744
13.193	88.5348
13.1595	88.4999
13.1262	88.4882
13.093	88.4599
13.06	88.4677
13.0272	88.5327
12.9946	88.4685
12.9621	88.2672
12.9298	88.1987
12.8976	88.211
12.8656	88.2484
12.8337	88.2308
12.8021	88.1893
12.7705	88.2389
12.7391	88.3009
12.7079	88.2655
12.6769	88.313
12.6459	88.2271
12.6152	88.07
12.5845	88.1218
12.5541	88.2484
12.5238	88.2189
12.4936	88.2036
12.4635	88.3555
12.4337	88.5689
12.4039	88.6192
12.3743	88.8093
12.3448	88.9781
12.3155	88.8833
12.2863	88.9404
12.2573	89.1482
12.2284	89.2492
12.1996	89.209
12.171	89.1788
12.1425	89.2367
12.1141	89.2587
12.0859	89.2522
12.0578	89.2472
12.0298	89.2292
12.0019	89.2483
11.9742	89.2461
11.9466	89.2623
11.9192	89.2478
11.8918	89.1823
11.8646	89.2156
11.8375	89.2476
11.8106	89.2233
11.7837	89.1821
11.757	89.2693
11.7304	89.3035
11.7039	89.24
11.6776	89.1164
11.6513	89.0678
11.6252	88.9688
11.5992	88.9458
11.5733	88.8946
11.5475	88.7876
11.5219	88.6281
11.4963	88.3251
11.4709	88.0849
11.4455	88.0796
11.4203	88.1712
11.3952	88.2829
11.3702	88.3259
11.3454	88.4008
11.3206	88.4268
11.2959	88.4482
11.2714	88.5836
11.2469	88.605
11.2226	88.465
11.1983	88.4072
11.1742	88.3481
11.1502	88.2302
11.1263	88.1059
11.1024	88.0246
11.0787	88.0075
11.0551	87.9416
11.0316	87.7851
11.0081	87.634
10.9848	87.5841
10.9616	87.52
10.9385	87.446
10.9154	87.3827
10.8925	87.2791
10.8697	87.2531
10.8469	87.3008
10.8243	87.3673
10.8017	87.5045
10.7793	87.5269
10.7569	87.4708
10.7346	87.3763
10.7125	87.2548
10.6904	87.235
10.6684	87.2583
10.6465	87.2557
10.6247	87.1961
10.6029	87.1039
10.5813	87.0144
10.5597	86.922
10.5383	86.9147
10.5169	86.8393
10.4956	86.8276
10.4744	86.8117
10.4533	86.7057
10.4323	86.6276
10.4113	86.4068
10.3904	86.2527
10.3697	86.2351
10.349	86.0982
10.3284	85.8805
10.3078	85.7643
10.2874	85.6516
10.267	85.561
10.2467	85.4162
10.2265	85.1458
10.2064	85.035
10.1863	84.9616
10.1663	84.8062
10.1464	84.6769
10.1266	84.4984
10.1069	84.3212
10.0872	84.1361
10.0676	83.9575
10.0481	83.8757
10.0287	83.803
10.0093	83.6444
9.99005	83.538
9.97084	83.4376
9.95169	83.337
9.93263	83.2743
9.91364	83.1835
9.89472	83.1444
9.87587	83.1299
9.8571	83.0433
9.83839	82.9421
9.81976	82.9976
9.80119	83.0083
9.78271	82.9044
9.76428	82.8872
9.74592	82.8904
9.72764	82.8364
9.70943	82.9285
9.69128	82.9914
9.6732	82.9177
9.65518	82.9091
9.63724	82.9409
9.61935	82.9365
9.60155	82.9664
9.5838	83.0477
9.56611	83.0985
9.5485	83.0932
9.53094	83.0973
9.51345	83.1784
9.49604	83.26
9.47867	83.3392
9.46137	83.507
9.44414	83.5849
9.42697	83.723
9.40986	83.9752
9.39281	84.0822
9.37583	84.0499
9.35891	84.1699
9.34204	84.3161
9.32524	84.4562
9.3085	84.7197
9.29182	84.8442
9.27519	84.8167
9.25863	84.8081
9.24213	84.8436
9.22568	84.7981
9.2093	84.7927
9.19297	84.875
9.17669	84.9792
9.16048	85.1048
9.14433	85.156
9.12823	85.1996
9.11218	85.1601
9.0962	85.1522
9.08027	85.1647
9.06439	85.2031
9.04858	85.2694
9.03281	85.3128
9.0171	85.4677
9.00145	85.5328
8.98585	85.4098
8.9703	85.3714
8.9548	85.5262
8.93937	85.6863
8.92398	85.7793
8.90865	85.9977
8.89337	86.152
8.87814	86.107
8.86296	86.186
8.84784	86.2793
8.83277	86.3075
8.81774	86.4064
8.80277	86.6039
8.78786	86.7531
8.77298	86.8719
8.75816	86.9209
8.7434	86.8158
8.72868	86.8035
8.714	86.8604
8.69938	86.9368
8.68481	87.0646
8.67029	87.06
8.65581	87.0975
8.64139	87.2034
8.62701	87.3568
8.61268	87.3697
8.5984	87.2735
8.58416	87.2349
8.56997	87.3073
8.55583	87.4957
8.54174	87.7388
8.52769	87.8043
8.51368	87.7917
8.49973	87.8877
8.48582	88.0644
8.47195	88.0824
8.45813	88.0133
8.44436	88.1421
8.43062	88.4403
8.41693	88.5604
8.4033	88.5408
8.3897	88.5385
8.37614	88.5773
8.36264	88.6315
8.34917	88.6876
8.33574	88.7742
8.32236	88.8206
8.30903	88.8761
8.29573	88.9669
8.28248	89.0377
8.26927	89.0814
8.2561	89.058
8.24298	89.0689
8.2299	89.1357
8.21685	89.248
8.20385	89.3066
8.19089	89.279
8.17797	89.2975
8.16509	89.3257
8.15225	89.4362
8.13946	89.5193
8.1267	89.5073
8.11398	89.4866
8.10131	89.5077
8.08867	89.5074
8.07606	89.5221
8.0635	89.525
8.05099	89.4708
8.0385	89.4297
8.02606	89.4768
8.01366	89.5816
8.00129	89.536
7.98896	89.5065
7.97667	89.592
7.96442	89.6629
7.9522	89.6648
7.94002	89.6449
7.92788	89.6128
7.91578	89.6416
7.90371	89.666
7.89168	89.6895
7.87969	89.7369
7.86773	89.6913
7.85581	89.6423
7.84392	89.6396
7.83207	89.6814
7.82026	89.774
7.80849	89.7199
7.79674	89.6633
7.78503	89.6385
7.77337	89.6328
7.76173	89.6294
7.75012	89.6223
7.73856	89.6525
7.72703	89.5763
7.71553	89.5311
7.70406	89.5778
7.69263	89.6391
7.68123	89.6288
7.66987	89.5668
7.65855	89.5257
7.64725	89.5071
7.63598	89.5171
7.62475	89.4446
7.61356	89.3619
7.60239	89.2835
7.59126	89.3067
7.58017	89.345
7.5691	89.3372
7.55806	89.3468
7.54707	89.3021
7.5361	89.2831
7.52516	89.2684
7.51425	89.2572
7.50338	89.2808
7.49253	89.2645
7.48172	89.2637
7.47094	89.272
7.46019	89.2386
7.44947	89.1746
7.43879	89.1076
7.42813	89.0811
7.4175	89.0896
7.4069	89.0875
7.39634	89.0693
7.3858	89.0039
7.37529	88.9707
7.36482	88.9611
7.35437	88.9207
7.34396	88.9821
7.33357	88.9643
7.32321	88.8187
7.31288	88.7663
7.30258	88.7609
7.29231	88.7968
7.28207	88.872
7.27185	88.8536
7.26167	88.7936
7.25152	88.7176
7.24139	88.6532
7.23129	88.6571
7.22122	88.6939
7.21117	88.733
7.20116	88.6954
7.19117	88.6778
7.18121	88.7399
7.17128	88.8299
7.16137	88.6932
7.1515	88.6328
7.14164	88.6464
7.13182	88.5671
7.12203	88.5874
7.11225	88.6219
7.10251	88.5033
7.0928	88.3944
7.08311	88.354
7.07344	88.4351
7.06381	88.5095
7.0542	88.6722
7.04461	88.8339
7.03506	88.6153
7.02552	88.497
7.01601	88.4598
7.00653	88.4098
6.99708	88.4753
6.98765	88.4655
6.97824	88.4235
6.96886	88.5917
6.95951	88.7976
6.95018	88.5594
6.94087	88.4627
6.9316	88.4847
6.92234	88.5309
6.91311	88.606
6.90391	88.6274
6.89473	88.5117
6.88557	88.5206
6.87644	88.7184
6.86733	89.1589
6.85824	89.1468
6.84918	88.7468
6.84015	88.5991
6.83114	88.7669
6.82215	88.8237
6.81319	88.6725
6.80424	88.7871
6.79532	89.1326
6.78643	89.2603
6.77756	89.1267
6.76871	89.0065
6.75989	88.9486
6.75109	89.0523
6.74231	89.1213
6.73355	89.206
6.72482	89.3783
6.71611	89.4927
6.70742	89.4652
6.69875	89.3558
6.69011	89.5226
6.68149	89.6886
6.67289	89.5605
6.66431	89.4399
6.65576	89.4311
6.64722	89.8553
6.63871	90.3712
6.63022	90.1179
6.62175	89.7106
6.61331	89.6168
6.60488	89.5966
6.59648	89.8017
6.5881	89.9228
6.57974	90.0702
6.5714	90.2158
6.56308	89.9747
6.55478	89.9579
6.54651	89.8454
6.53825	89.6732
6.53001	89.754
6.5218	90.0348
6.51361	89.8813
6.50544	89.9187
6.49729	90.4508
6.48915	90.4325
6.48104	90.0516
6.47295	89.8378
6.46488	89.635
6.45683	89.6129
6.4488	89.6852
6.44079	89.693
6.4328	89.8232
6.42482	90.0541
6.41687	90.5556
6.40894	90.3283
6.40103	89.6368
6.39314	89.4807
6.38526	89.4688
6.37741	89.559
6.36957	89.6359
6.36176	89.4537
6.35396	89.4563
6.34618	89.7443
6.33843	89.5508
6.33069	89.1987
6.32297	89.1652
6.31527	89.1811
6.30758	89.1883
6.29992	89.1992
6.29227	89.2297
6.28465	89.1725
6.27704	89.0709
6.26945	89.0444
6.26188	89.1121
6.25432	89.1599
6.24679	89.0851
6.23927	89.0034
6.23177	88.9829
6.22429	89.0493
6.21683	89.084
6.20938	89.0096
6.20195	88.9011
6.19454	89.0474
6.18715	89.4114
6.17978	89.2414
6.17242	88.966
6.16508	89.0615
6.15776	89.0951
6.15045	89.0041
6.14317	89.0316
6.1359	88.9395
6.12864	88.9555
6.12141	89.2949
6.11419	89.5862
6.10699	89.3317
6.0998	89.0988
6.09263	89.1031
6.08549	89.1211
6.07835	89.3725
6.07123	89.5613
6.06413	89.4026
6.05705	89.6881
6.04998	90.3735
6.04293	89.9439
6.0359	89.3913
6.02888	89.2669
6.02187	89.3065
6.01489	89.4965
6.00792	89.505
6.00096	89.5288
5.99403	89.8428
5.98711	89.9922
5.9802	89.8695
5.97331	89.9769
5.96644	89.9883
5.95958	89.7585
5.95274	89.8121
5.94591	90.0864
5.9391	90.6185
5.9323	90.4876
5.92552	90.0948
5.91876	90.0564
5.91201	90.0213
5.90528	90.2184
5.89856	90.7736
5.89186	90.7932
5.88517	90.9317
5.8785	91.0015
5.87184	90.4994
5.8652	90.5019
5.85857	90.5052
5.85196	90.4661
5.84536	90.4396
5.83878	90.5244
5.83221	90.733
5.82566	90.9861
5.81912	90.955
5.81259	90.6624
5.80608	90.6087
5.79959	90.6457
5.79311	90.6141
5.78665	90.6426
5.78019	90.7576
5.77376	91.0099
5.76734	91.3088
5.76093	91.0483
5.75453	90.8034
5.74815	90.9342
5.74179	90.9483
5.73543	90.9952
5.7291	91.0304
5.72277	91.0839
5.71646	91.1758
5.71017	91.2986
5.70389	91.2133
5.69762	91.1468
5.69136	91.2648
5.68513	91.2685
5.6789	91.3137
5.67268	91.3308
5.66648	91.2824
5.6603	91.4113
5.65413	91.5254
5.64797	91.5796
5.64182	91.718
5.63569	91.5859
5.62957	91.4454
5.62347	91.4715
5.61737	91.4964
5.61129	91.4533
5.60522	91.4479
5.59917	91.358
5.59313	91.2532
5.5871	91.2991
5.58109	91.3874
5.57509	91.3102
5.5691	91.2185
5.56312	91.2573
5.55716	91.3216
5.55121	91.4128
5.54528	91.4279
5.53935	91.456
5.53344	91.494
5.52754	91.5343
5.52166	91.5986
5.51578	91.5598
5.50992	91.4638
5.50407	91.4441
5.49823	91.4591
5.49241	91.5426
5.4866	91.6006
5.4808	91.6416
5.47501	91.643
5.46923	91.6978
5.46347	91.7742
5.45772	91.7403
5.45198	91.693
5.44625	91.6653
5.44054	91.649
5.43484	91.6712
5.42914	91.733
5.42347	91.8883
5.4178	91.8543
5.41214	91.6926
5.4065	91.6202
5.40087	91.5855
5.39525	91.6048
5.38964	91.6545
5.38404	91.6616
5.37846	91.6303
5.37288	91.6221
5.36732	91.6419
5.36177	91.6708
5.35623	91.6981
5.35071	91.7495
5.34519	91.6947
5.33968	91.6521
5.33419	91.6563
5.32871	91.5782
5.32324	91.6146
5.31778	91.6709
5.31233	91.6812
5.30689	91.6876
5.30147	91.6662
5.29605	91.6408
5.29065	91.6737
5.28525	91.6912
5.27987	91.7772
5.2745	91.7963
5.26914	91.7552
5.26379	91.6848
5.25845	91.6439
5.25312	91.6404
5.24781	91.7344
5.2425	91.7882
5.23721	91.7783
5.23192	91.751
5.22665	91.7495
5.22138	91.7376
5.21613	91.809
5.21089	91.8408
5.20566	91.8092
5.20044	91.8399
5.19522	91.8235
5.19002	91.7831
5.18483	91.7475
5.17965	91.6955
5.17448	91.7065
5.16933	91.7463
5.16418	91.7276
5.15904	91.6676
5.15391	91.6878
5.14879	91.7881
5.14368	91.8262
5.13859	91.7738
5.1335	91.7481
5.12842	91.8396
5.12335	91.8401
5.1183	91.7751
5.11325	91.7829
5.10821	91.7793
5.10318	91.7825
5.09817	91.7402
5.09316	91.7395
5.08816	91.7786
5.08317	91.7879
5.07819	91.7606
5.07322	91.7749
5.06826	91.7866
5.06331	91.815
5.05837	91.8416
5.05344	91.8298
5.04852	91.7639
5.04361	91.7246
5.03871	91.7213
5.03382	91.7194
5.02894	91.7696
5.02406	91.7732
5.0192	91.7965
5.01435	91.8252
5.0095	91.7965
5.00467	91.7782
4.99984	91.7826
4.99502	91.786
4.99021	91.766
4.98542	91.7233
4.98063	91.7414
4.97585	91.7708
4.97108	91.775
4.96632	91.7456
4.96156	91.7872
4.95682	91.7941
4.95209	91.747
4.94736	91.7376
4.94264	91.7809
4.93794	91.7805
4.93324	91.7948
4.92855	91.8093
4.92387	91.8064
4.9192	91.8096
4.91453	91.7893
4.90988	91.7601
4.90524	91.7676
4.9006	91.7482
4.89597	91.7517
4.89135	91.8116
4.88674	91.792
4.88214	91.7798
4.87755	91.8006
4.87296	91.8063
4.86839	91.7727
4.86382	91.8057
4.85926	91.8713
4.85471	91.8063
4.85017	91.7158
4.84564	91.7619
4.84111	91.8616
4.8366	91.8749
4.83209	91.8142
4.82759	91.7867
4.8231	91.7728
4.81862	91.8009
4.81415	91.8619
4.80968	91.9232
4.80522	91.8795
4.80077	91.7829
4.79633	91.7634
4.7919	91.7848
4.78747	91.8118
4.78306	91.8303
4.77865	91.7817
4.77425	91.7465
4.76986	91.7881
4.76547	91.7617
4.7611	91.7286
4.75673	91.7508
4.75237	91.7711
4.74802	91.8071
4.74367	91.8237
4.73934	91.8112
4.73501	91.7716
4.73069	91.7426
4.72638	91.7105
4.72207	91.7092
4.71777	91.7659
4.71348	91.8065
4.7092	91.7998
4.70493	91.7763
4.70066	91.7519
4.69641	91.7795
4.69216	91.7786
4.68791	91.7297
4.68368	91.73
4.67945	91.744
4.67523	91.7516
4.67102	91.7442
4.66682	91.6654
4.66262	91.6802
4.65843	91.7258
4.65425	91.733
4.65007	91.7564
4.64591	91.7951
4.64175	91.809
4.6376	91.8108
4.63345	91.793
4.62932	91.7748
4.62519	91.7534
4.62106	91.7377
4.61695	91.654
4.61284	91.712
4.60874	91.7878
4.60465	91.7627
4.60056	91.7693
4.59648	91.7865
4.59241	91.7642
4.58835	91.7477
4.58429	91.7225
4.58024	91.7082
4.5762	91.7486
4.57216	91.8032
4.56814	91.8196
4.56411	91.7652
4.5601	91.7161
4.55609	91.767
4.55209	91.806
4.5481	91.7799
4.54411	91.7692
4.54013	91.8092
4.53616	91.8274
4.5322	91.7459
4.52824	91.7485
4.52429	91.7703
4.52034	91.7219
4.51641	91.7027
4.51247	91.7596
4.50855	91.765
4.50463	91.7224
4.50072	91.7037
4.49682	91.6997
4.49292	91.7002
4.48903	91.7463
4.48515	91.7853
4.48127	91.7658
4.4774	91.7513
4.47354	91.7692
4.46968	91.7128
4.46584	91.6559
4.46199	91.6088
4.45815	91.6431
4.45432	91.7018
4.4505	91.7161
4.44668	91.683
4.44287	91.7177
4.43907	91.7594
4.43527	91.7792
4.43148	91.7426
4.4277	91.672
4.42392	91.6841
4.42015	91.7061
4.41638	91.7159
4.41262	91.709
4.40887	91.6522
4.40513	91.6332
4.40139	91.6447
4.39765	91.6624
4.39393	91.6882
4.39021	91.6521
4.38649	91.7105
4.38278	91.7615
4.37908	91.705
4.37539	91.6435
4.3717	91.6362
4.36801	91.6492
4.36434	91.6626
4.36067	91.6237
4.357	91.5703
4.35335	91.5543
4.34969	91.5116
4.34605	91.4515
4.34241	91.411
4.33877	91.3454
4.33514	91.2341
4.33152	91.1246
4.32791	91.0544
4.3243	90.8844
4.32069	90.6705
4.3171	90.4614
4.31351	90.2644
4.30992	90.0614
4.30634	89.823
4.30277	89.4748
4.2992	89.1842
4.29564	88.9448
4.29208	88.7243
4.28853	88.6178
4.28499	88.5369
4.28145	88.4578
4.27792	88.3999
4.27439	88.3792
4.27087	88.5014
4.26735	88.8193
4.26384	89.3387
4.26034	90.1139
4.25684	90.598
4.25335	90.0753
4.24986	89.16
4.24638	88.3812
4.24291	87.7901
4.23944	87.402
4.23598	87.197
4.23252	87.2249
4.22906	87.3778
4.22562	87.7135
4.22218	88.2071
4.21874	88.7298
4.21531	89.2987
4.21189	89.9289
4.20847	90.4265
4.20506	90.8627
4.20165	91.1928
4.19825	91.3836
4.19485	91.537
4.19146	91.5956
4.18807	91.6603
4.18469	91.6891
4.18132	91.6809
4.17795	91.6221
4.17458	91.5834
4.17123	91.5456
4.16787	91.559
4.16453	91.5868
4.16118	91.6066
4.15785	91.6108
4.15451	91.5794
4.15119	91.5552
4.14787	91.552
4.14455	91.5814
4.14124	91.5549
4.13794	91.5173
4.13464	91.5855
4.13134	91.6407
4.12805	91.5801
4.12477	91.5224
4.12149	91.5164
4.11822	91.5226
4.11495	91.5462
4.11168	91.5955
4.10843	91.6528
4.10517	91.622
4.10192	91.6246
4.09868	91.5982
4.09545	91.4848
4.09221	91.4332
4.08899	91.4366
4.08576	91.4496
4.08255	91.4659
4.07933	91.4543
4.07613	91.445
4.07292	91.4734
4.06973	91.5227
4.06654	91.5813
4.06335	91.5252
4.06017	91.4857
4.05699	91.5386
4.05382	91.5278
4.05065	91.4637
4.04749	91.438
4.04433	91.4401
4.04118	91.4561
4.03803	91.4999
4.03489	91.4817
4.03175	91.4607
4.02862	91.4551
4.02549	91.435
4.02237	91.4314
4.01925	91.4138
4.01614	91.3538
4.01303	91.3071
4.00993	91.2833
4.00683	91.2811
4.00373	91.2964
4.00064	91.2557
3.99756	91.2487
3.99448	91.2656
3.9914	91.2238
3.98833	91.196
3.98527	91.1993
3.98221	91.1842
3.97915	91.2369
3.9761	91.2219
3.97305	91.1018
3.97001	91.0003
3.96697	91.05
3.96394	91.104
3.96091	91.0973
3.95789	91.1153
3.95487	91.166
3.95186	91.1714
3.94885	91.1331
3.94584	91.1436
3.94284	91.1584
3.93984	91.1715
3.93685	91.2355
3.93386	91.2393
3.93088	91.1736
3.9279	91.1631
3.92493	91.1696
3.92196	91.1674
3.919	91.2295
3.91604	91.3198
3.91308	91.3419
3.91013	91.2832
3.90718	91.2196
3.90424	91.2616
3.9013	91.2105
3.89837	91.214
3.89544	91.2753
3.89252	91.2349
3.8896	91.2555
3.88668	91.2684
3.88377	91.1985
3.88086	91.2388
3.87796	91.3106
3.87506	91.366
3.87217	91.2978
3.86928	91.1273
3.86639	91.108
3.86351	91.2068
3.86064	91.1764
3.85776	91.0753
3.8549	91.0684
3.85203	91.1178
3.84917	91.1558
3.84631	91.1461
3.84346	91.2033
3.84062	91.2349
3.83777	91.2094
3.83494	91.177
3.8321	91.1733
3.82927	91.1561
3.82644	91.139
3.82362	91.1243
3.82081	91.1145
3.81799	91.1457
3.81518	91.1251
3.81238	91.0814
3.80958	91.1205
3.80678	91.1751
3.80399	91.216
3.8012	91.2586
3.79841	91.27
3.79563	91.2001
3.79286	91.1677
3.79008	91.1601
3.78731	91.1234
3.78455	91.0899
3.78179	91.0882
3.77903	91.105
3.77628	91.0695
3.77353	91.0729
3.77079	91.1288
3.76805	91.1522
3.76531	91.1575
3.76258	91.1167
3.75985	91.0907
3.75713	91.0505
3.7544	91.0383
3.75169	91.0978
3.74898	91.105
3.74627	91.0707
3.74356	90.993
3.74086	91.0036
3.73816	91.1031
3.73547	91.1034
3.73278	91.0756
3.7301	91.0863
3.72741	91.046
3.72474	91.0069
3.72206	90.9751
3.71939	90.992
3.71673	91.0145
3.71406	90.9933
3.71141	91.0091
3.70875	91.0075
3.7061	90.9956
3.70345	90.9937
3.70081	90.9732
3.69817	91.0147
3.69553	91.041
3.6929	90.984
3.69027	90.9063
3.68765	90.8748
3.68503	90.9162
3.68241	90.9337
3.6798	90.9514
3.67719	90.9475
3.67458	90.932
3.67198	90.904
3.66938	90.8144
3.66678	90.7349
3.66419	90.7758
3.66161	90.8501
3.65902	90.8892
3.65644	90.8749
3.65387	90.8277
3.65129	90.8235
3.64872	90.8271
3.64616	90.7941
3.64359	90.7784
3.64103	90.7268
3.63848	90.7282
3.63593	90.7936
3.63338	90.7831
3.63084	90.7553
3.6283	90.8442
3.62576	90.8115
3.62322	90.7153
3.62069	90.691
3.61817	90.6883
3.61564	90.6597
3.61312	90.7044
3.61061	90.7272
3.6081	90.6974
3.60559	90.6658
3.60308	90.6482
3.60058	90.675
3.59808	90.6956
3.59558	90.6765
3.59309	90.6365
3.59061	90.6003
3.58812	90.5996
3.58564	90.6117
3.58316	90.6508
3.58069	90.6204
3.57822	90.5687
3.57575	90.542
3.57328	90.5236
3.57082	90.5197
3.56836	90.5419
3.56591	90.5356
3.56346	90.5039
3.56101	90.4963
3.55857	90.5214
3.55613	90.5293
3.55369	90.5206
3.55126	90.449
3.54883	90.416
3.5464	90.4481
3.54397	90.4182
3.54155	90.3601
3.53914	90.3308
3.53672	90.3024
3.53431	90.3175
3.5319	90.2775
3.5295	90.2158
3.5271	90.2237
3.5247	90.23
3.52231	90.1389
3.51991	90.0266
3.51753	89.9224
3.51514	89.8137
3.51276	89.675
3.51038	89.5681
3.50801	89.5394
3.50563	89.5241
3.50327	89.4692
3.5009	89.4783
3.49854	89.5572
3.49618	89.6515
3.49382	89.6489
3.49147	89.5743
3.48912	89.541
3.48677	89.5249
3.48443	89.5464
3.48209	89.6155
3.47975	89.6489
3.47742	89.6972
3.47509	89.7044
3.47276	89.5547
3.47044	89.5192
3.46812	89.5518
3.4658	89.5923
3.46348	89.5958
3.46117	89.5197
3.45886	89.4801
3.45656	89.44
3.45425	89.4403
3.45195	89.5123
3.44966	89.4849
3.44736	89.4184
3.44507	89.3486
3.44279	89.2559
3.4405	89.2966
3.43822	89.2419
3.43594	89.1184
3.43367	89.0668
3.43139	88.9369
3.42912	88.8377
3.42686	88.8494
3.42459	88.8465
3.42233	88.8443
3.42007	88.8339
3.41782	88.8509
3.41557	88.9497
3.41332	88.94
3.41108	88.8745
3.40883	88.9857
3.40659	89.0882
3.40435	89.1981
3.40212	89.2466
3.39989	89.1951
3.39766	89.1713
3.39544	89.1954
3.39322	89.2411
3.391	89.3376
3.38878	89.4069
3.38657	89.376
3.38436	89.3641
3.38215	89.3118
3.37994	89.2242
3.37774	89.2349
3.37554	89.2222
3.37335	89.3123
3.37115	89.4601
3.36896	89.5383
3.36678	89.5213
3.36459	89.4549
3.36241	89.5167
3.36023	89.6096
3.35805	89.6358
3.35588	89.6339
3.35371	89.665
3.35154	89.6296
3.34938	89.6182
3.34721	89.6448
3.34505	89.7517
3.3429	89.7972
3.34074	89.7874
3.33859	89.8047
3.33644	89.7851
3.3343	89.769
3.33215	89.7871
3.33001	89.8346
3.32788	89.8941
3.32574	89.852
3.32361	89.8481
3.32148	89.8944
3.31936	89.8951
3.31723	89.8796
3.31511	89.819
3.31299	89.8036
3.31088	89.7766
3.30876	89.698
3.30665	89.7466
3.30455	89.823
3.30244	89.8357
3.30034	89.796
3.29824	89.7791
3.29614	89.7956
3.29405	89.8057
3.29196	89.8528
3.28987	89.8044
3.28778	89.7387
3.2857	89.7588
3.28362	89.6712
3.28154	89.6182
3.27946	89.6115
3.27739	89.5589
3.27532	89.5443
3.27325	89.658
3.27119	89.7512
3.26913	89.6445
3.26707	89.5477
3.26501	89.5636
3.26295	89.5429
3.2609	89.6272
3.25885	89.6186
3.2568	89.5692
3.25476	89.6091
3.25272	89.6162
3.25068	89.5653
3.24864	89.5121
3.24661	89.437
3.24458	89.5079
3.24255	89.5603
3.24052	89.5264
3.2385	89.4236
3.23648	89.3213
3.23446	89.2794
3.23244	89.3459
3.23043	89.4861
3.22841	89.4873
3.2264	89.443
3.2244	89.3575
3.22239	89.2768
3.22039	89.3558
3.21839	89.4377
3.2164	89.4884
3.2144	89.4336
3.21241	89.2826
3.21042	89.2821
3.20844	89.2601
3.20645	89.2818
3.20447	89.3763
3.20249	89.383
3.20051	89.3238
3.19854	89.2732
3.19657	89.2073
3.1946	89.2639
3.19263	89.2615
3.19067	89.1408
3.1887	89.1113
3.18674	89.1878
3.18479	89.1921
3.18283	89.0969
3.18088	89.1091
3.17893	89.1437
3.17698	89.0881
3.17504	89.0713
3.17309	89.0973
3.17115	88.9915
3.16921	89.0082
3.16728	89.1733
3.16534	89.0774
3.16341	88.9341
3.16148	88.9283
3.15956	88.9128
3.15763	88.8932
3.15571	88.974
3.15379	88.9614
3.15187	88.8387
3.14996	88.8813
3.14805	88.9571
3.14614	88.931
3.14423	88.8959
3.14232	88.8083
3.14042	88.7591
3.13852	88.7527
3.13662	88.7687
3.13472	88.7641
3.13283	88.6875
3.13094	88.6486
3.12905	88.7122
3.12716	88.6607
3.12528	88.6
3.12339	88.657
3.12151	88.7197
3.11964	88.6616
3.11776	88.5951
3.11589	88.5766
3.11401	88.5677
3.11214	88.5952
3.11028	88.4907
3.10841	88.4002
3.10655	88.4778
3.10469	88.5051
3.10283	88.444
3.10098	88.4693
3.09912	88.4716
3.09727	88.4237
3.09542	88.4326
3.09358	88.4106
3.09173	88.4145
3.08989	88.4405
3.08805	88.5167
3.08621	88.4438
3.08437	88.2863
3.08254	88.2534
3.08071	88.2612
3.07888	88.2536
3.07705	88.2711
3.07523	88.2152
3.0734	88.119
3.07158	88.1522
3.06977	88.2174
3.06795	88.1853
3.06613	88.0965
3.06432	88.0503
3.06251	88.0182
3.0607	88.0627
3.0589	88.1074
3.0571	88.1634
3.05529	88.2093
3.05349	88.2253
3.0517	88.099
3.0499	88.0077
3.04811	88.006
3.04632	87.9711
3.04453	88.0077
3.04274	87.9879
3.04096	88.0416
3.03918	88.1019
3.0374	87.9237
3.03562	87.7773
3.03384	87.8772
3.03207	87.9956
3.03029	88.1169
3.02852	88.1131
3.02676	87.9172
3.02499	87.785
3.02323	87.8258
3.02146	87.8642
3.0197	87.9177
3.01795	87.9452
3.01619	87.9741
3.01444	87.965
3.01269	87.9444
3.01094	87.9577
3.00919	87.9225
3.00744	87.7915
3.0057	87.7849
3.00396	87.8372
3.00222	87.8168
3.00048	87.8289
2.99875	87.7883
2.99701	87.8435
2.99528	88.0229
2.99355	87.9609
2.99183	87.8806
2.9901	87.9204
2.98838	87.9965
2.98666	87.996
2.98494	87.844
2.98322	87.8321
2.9815	87.8727
2.97979	87.8503
2.97808	87.8561
2.97637	87.7506
2.97466	87.6908
2.97295	87.7058
2.97125	87.7635
2.96955	87.9469
2.96785	88.0008
2.96615	87.8956
2.96446	87.8342
2.96276	87.7882
2.96107	87.8306
2.95938	87.9312
2.95769	87.8705
2.95601	87.8033
2.95432	87.757
2.95264	87.7862
2.95096	87.8442
2.94928	87.8725
2.9476	87.7998
2.94593	87.8535
2.94425	87.8779
2.94258	87.8187
2.94092	87.7731
2.93925	87.831
2.93758	87.7931
2.93592	87.8719
2.93426	87.9287
2.9326	87.8915
2.93094	87.9275
2.92928	87.9541
2.92763	87.9069
2.92598	87.9059
2.92433	87.9023
2.92268	87.9224
2.92103	87.9901
2.91939	88.0075
2.91775	87.9669
2.9161	88.0121
2.91447	88.0386
2.91283	88.0078
2.91119	87.9663
2.90956	88.0395
2.90793	88.0911
2.9063	88.0643
2.90467	88.003
2.90304	87.9577
2.90142	88.0475
2.89979	88.1292
2.89817	88.0456
2.89656	88.0158
2.89494	88.1357
2.89332	88.1843
2.89171	88.2174
2.8901	88.2626
2.88849	88.2179
2.88688	88.1209
2.88527	88.0859
2.88367	88.0541
2.88206	88.0785
2.88046	88.1593
2.87886	88.1941
2.87727	88.244
2.87567	88.2627
2.87408	88.2835
2.87248	88.3893
2.87089	88.4092
2.8693	88.3423
2.86772	88.3077
2.86613	88.3842
2.86455	88.4237
2.86297	88.4974
2.86139	88.4663
2.85981	88.3483
2.85823	88.3007
2.85666	88.3818
2.85508	88.3863
2.85351	88.2202
2.85194	88.2273
2.85038	88.4206
2.84881	88.4666
2.84724	88.4442
2.84568	88.4507
2.84412	88.4981
2.84256	88.4896
2.841	88.4295
2.83945	88.4451
2.83789	88.4994
2.83634	88.4981
2.83479	88.4819
2.83324	88.4278
2.83169	88.4454
2.83015	88.5292
2.82861	88.5911
2.82706	88.6233
2.82552	88.4591
2.82398	88.2683
2.82245	88.3821
2.82091	88.5458
2.81938	88.594
2.81784	88.5661
2.81631	88.4797
2.81479	88.524
2.81326	88.5304
2.81173	88.3899
2.81021	88.401
2.80869	88.3762
2.80716	88.4303
2.80565	88.6284
2.80413	88.6884
2.80261	88.5572
2.8011	88.4732
2.79959	88.5664
2.79808	88.4871
2.79657	88.5408
2.79506	88.6423
2.79355	88.5562
2.79205	88.5599
2.79055	88.9287
2.78904	88.984
2.78754	88.7681
2.78605	88.4042
2.78455	88.3915
2.78306	88.455
2.78156	88.1845
2.78007	88.2986
2.77858	88.5326
2.77709	88.5594
2.77561	87.9916
2.77412	87.9785
2.77264	88.305
2.77116	88.4608
2.76968	88.4852
2.7682	88.5356
2.76672	88.5041
2.76524	88.2917
2.76377	88.0841
2.7623	87.9155
2.76083	87.8623
2.75936	88.0501
2.75789	88.2909
2.75642	88.5642
2.75496	88.7115
2.7535	88.6174
2.75203	88.5298
2.75057	88.5593
2.74912	88.6456
2.74766	88.7061
2.7462	88.6557
2.74475	88.6886
2.7433	88.8105
2.74185	89.06
2.7404	89.2878
2.73895	89.1911
2.7375	88.9427
2.73606	89.0443
2.73462	89.1389
2.73318	89.1561
2.73174	89.0925
2.7303	89.1296
2.72886	89.3156
2.72742	89.4618
2.72599	89.6126
2.72456	89.8681
2.72313	89.7928
2.7217	89.9113
2.72027	90.1491
2.71884	89.9285
2.71742	89.8644
2.71599	89.8738
2.71457	89.8991
2.71315	89.969
2.71173	90.2379
2.71032	90.296
2.7089	90.039
2.70748	89.8255
2.70607	89.748
2.70466	89.7505
2.70325	89.8968
2.70184	90.1314
2.70043	90.2618
2.69903	90.2439
2.69762	90.3762
2.69622	90.7097
2.69482	91.0728
2.69342	91.1248
2.69202	90.9284
2.69062	90.9289
2.68923	90.8756
2.68783	90.9227
2.68644	90.9624
2.68505	91.02
2.68366	91.1631
2.68227	91.1713
2.68089	91.1647
2.6795	91.362
2.67812	91.4748
2.67673	91.6541
2.67535	91.5406
2.67397	91.2542
2.6726	91.3032
2.67122	91.8621
2.66984	92.0155
2.66847	91.7053
2.6671	91.9117
2.66572	91.9878
2.66435	91.8042
2.66299	91.628
2.66162	91.6024
2.66025	91.4651
2.65889	91.2856
2.65753	91.2756
2.65616	91.4385
2.65481	91.4004
2.65345	91.467
2.65209	91.5601
2.65073	91.3768
2.64938	91.343
2.64803	91.3708
2.64667	91.4128
2.64532	91.4438
2.64397	91.4052
2.64263	91.4666
2.64128	91.3996
2.63994	91.3735
2.63859	91.4107
2.63725	91.4094
2.63591	91.3223
2.63457	91.3721
2.63323	91.5404
2.6319	91.7894
2.63056	91.9539
2.62923	91.6199
2.62789	91.5207
2.62656	91.7335
2.62523	91.6101
2.6239	91.294
2.62258	91.1936
2.62125	91.5863
2.61993	91.7803
2.6186	91.5422
2.61728	91.7165
2.61596	91.6948
2.61464	91.5214
2.61332	91.4914
2.61201	91.5079
2.61069	91.5255
2.60938	91.4647
2.60807	91.4204
2.60675	91.6448
2.60544	91.8185
2.60414	91.5805
2.60283	91.5351
2.60152	91.5743
2.60022	91.5438
2.59891	91.5033
2.59761	91.4769
2.59631	91.8481
2.59501	92.3997
2.59371	92.0891
2.59242	91.4875
2.59112	91.3745
2.58983	91.5391
2.58853	91.5888
2.58724	91.6347
2.58595	91.6183
2.58466	91.6839
2.58338	91.6539
2.58209	91.4497
2.5808	91.4874
2.57952	91.4049
2.57824	91.4854
2.57695	91.6428
2.57567	91.6003
2.5744	91.5949
2.57312	91.5143
2.57184	91.3725
2.57057	91.5114
2.56929	91.5017
2.56802	91.3236
2.56675	91.293
2.56548	91.4316
2.56421	91.6099
2.56294	91.6817
2.56168	91.6557
2.56041	91.5001
2.55915	91.4552
2.55789	91.4685
2.55662	91.4375
2.55536	91.2504
2.5541	91.1144
2.55285	91.2135
2.55159	91.2724
2.55034	91.291
2.54908	91.3342
2.54783	91.4374
2.54658	91.4305
2.54533	91.3732
2.54408	91.3807
2.54283	91.4366
2.54159	91.4199
2.54034	91.3028
2.5391	91.2794
2.53785	91.4041
2.53661	91.4259
2.53537	91.3687
2.53413	91.3939
2.53289	91.3878
2.53166	91.3846
2.53042	91.3855
2.52919	91.3845
2.52795	91.3272
2.52672	91.3416
2.52549	91.3194
2.52426	91.1869
2.52303	91.199
2.52181	91.1586
2.52058	91.2481
2.51936	91.2709
2.51813	91.2256
2.51691	91.3013
2.51569	91.3395
2.51447	91.2934
2.51325	91.2675
2.51203	91.2302
2.51082	91.2225
2.5096	91.204
2.50839	91.2615
2.50717	91.2785
2.50596	91.3306
2.50475	91.2579
2.50354	91.2587
2.50233	91.3408
2.50113	91.2592
2.49992	91.2092
2.49872	91.1945
2.49751	91.16
2.49631	91.2821
2.49511	91.3959
2.49391	91.2715
2.49271	91.123
2.49151	91.0724
2.49031	91.0921
2.48912	91.1065
2.48792	91.1548
2.48673	91.2652
2.48554	91.3023
2.48435	91.2042
2.48316	91.1618
2.48197	91.2795
2.48078	91.3144
2.4796	91.2298
2.47841	91.2075
2.47723	91.3061
2.47604	91.3355
2.47486	91.2482
2.47368	91.1786
2.4725	91.2139
2.47132	91.2863
2.47014	91.3075
2.46897	91.2962
2.46779	91.3363
2.46662	91.2967
2.46545	91.1476
2.46427	91.1218
2.4631	91.1713
2.46193	91.2461
2.46077	91.2799
2.4596	91.1811
2.45843	91.0923
2.45727	91.0687
2.4561	91.1376
2.45494	91.167
2.45378	91.1568
2.45262	91.0797
2.45146	91.0763
2.4503	91.1098
2.44914	91.1572
2.44799	91.3083
2.44683	91.4103
2.44568	91.253
2.44452	91.0966
2.44337	91.1391
2.44222	91.0908
2.44107	91.0906
2.43992	91.1922
2.43877	91.277
2.43763	91.3686
2.43648	91.3107
2.43534	91.2411
2.43419	91.2414
2.43305	91.203
2.43191	91.1106
2.43077	91.2146
2.42963	91.2849
2.42849	91.2067
2.42736	91.1194
2.42622	91.1984
2.42509	91.3116
2.42395	91.1627
2.42282	91.0205
2.42169	91.2078
2.42056	91.4504
2.41943	91.3376
2.4183	91.0887
2.41717	91.1012
2.41605	91.204
2.41492	91.2166
2.4138	91.0227
2.41267	90.991
2.41155	91.1681
2.41043	91.218
2.40931	91.2232
2.40819	91.252
2.40707	91.3037
2.40595	91.3209
2.40484	91.3202
2.40372	91.2877
2.40261	91.3288
2.4015	91.3427
2.40039	91.2493
2.39928	91.1928
2.39817	91.1618
2.39706	91.1728
2.39595	91.2256
2.39484	91.2399
2.39374	91.1653
2.39263	91.1475
2.39153	91.2085
2.39043	91.1393
2.38932	91.1693
2.38822	91.2448
2.38712	91.3221
2.38603	91.2538
2.38493	91.1598
2.38383	91.2254
2.38274	91.2149
2.38164	91.1139
2.38055	91.0839
2.37946	91.2882
2.37836	91.2557
2.37727	91.1846
2.37618	91.2301
2.3751	91.1071
2.37401	91.071
2.37292	91.1121
2.37184	91.1383
2.37075	91.11
2.36967	91.142
2.36859	91.2595
2.3675	91.3459
2.36642	91.292
2.36534	91.2529
2.36427	91.1787
2.36319	91.0554
2.36211	91.1205
2.36104	91.1217
2.35996	91.1269
2.35889	91.2016
2.35781	91.1238
2.35674	91.0099
2.35567	91.0246
2.3546	91.0978
2.35353	91.1778
2.35247	91.0941
2.3514	91.0891
2.35033	91.0343
2.34927	90.9789
2.3482	91.0214
2.34714	91.0815
2.34608	91.0486
2.34502	91.1339
2.34396	91.3291
2.3429	91.331
2.34184	91.1785
2.34078	91.0952
2.33973	91.1807
2.33867	91.2746
2.33762	91.2043
2.33656	91.1097
2.33551	91.2111
2.33446	91.1349
2.33341	90.9637
2.33236	90.9497
2.33131	90.931
2.33026	91.021
2.32922	91.1417
2.32817	91.1387
2.32712	91.1126
2.32608	91.1933
2.32504	91.1454
2.324	91.0312
2.32295	91.0063
2.32191	91.0043
2.32087	91.0211
2.31984	91.0291
2.3188	91.149
2.31776	91.1532
2.31673	91.0744
2.31569	91.13
2.31466	91.0858
2.31362	91.1017
2.31259	91.188
2.31156	91.3178
2.31053	91.3337
2.3095	91.0843
2.30847	90.9331
2.30745	91.1035
2.30642	91.1729
2.3054	91.0855
2.30437	91.0318
2.30335	91.1195
2.30232	91.1622
2.3013	91.1021
2.30028	90.9203
2.29926	90.8125
2.29824	90.9706
2.29722	91.146
2.29621	91.2161
2.29519	91.3293
2.29417	91.2648
2.29316	91.1205
2.29215	91.1624
2.29113	91.0416
2.29012	90.9003
2.28911	91.1253
2.2881	91.2921
2.28709	91.2328
2.28608	91.0404
2.28507	90.958
2.28407	91.0258
2.28306	91.0299
2.28206	91.0874
2.28105	91.0299
2.28005	90.9208
2.27905	90.959
2.27805	90.9872
2.27705	91.1391
2.27605	91.2047
2.27505	91.0889
2.27405	90.9068
2.27305	90.9327
2.27206	91.0582
2.27106	91.0366
2.27007	91.0585
2.26907	91.2411
2.26808	91.2371
2.26709	90.9948
2.2661	90.9017
2.26511	91.0296
2.26412	90.9457
2.26313	90.8819
2.26214	91.0059
2.26116	91.0736
2.26017	91.0841
2.25919	91.0636
2.2582	90.9535
2.25722	91.0056
2.25624	91.2076
2.25526	91.3101
2.25428	91.2412
2.2533	91.1229
2.25232	91.0505
2.25134	90.8711
2.25036	90.9875
2.24939	91.1081
2.24841	91.0694
2.24744	90.9039
2.24646	90.8163
2.24549	90.8002
2.24452	90.9431
2.24355	91.0243
2.24257	91.0827
2.24161	91.1162
2.24064	91.0903
2.23967	91.0592
2.2387	91.0361
2.23774	91.0751
2.23677	91.0175
2.23581	90.9294
2.23484	91.0191
2.23388	91.034
2.23292	90.9443
2.23196	90.8335
2.231	90.9382
2.23004	91.1199
2.22908	91.0617
2.22812	91.0014
2.22716	91.0478
2.22621	91.1012
2.22525	91.0181
2.2243	90.9455
2.22334	90.9355
2.22239	90.9555
2.22144	91.0058
2.22049	90.9705
2.21953	91.0131
2.21859	91.0459
2.21764	91.0435
2.21669	90.9467
2.21574	90.7803
2.21479	90.8131
2.21385	91.0243
2.2129	91.1717
2.21196	91.0209
2.21102	90.9088
2.21007	90.844
2.20913	90.8218
2.20819	90.9978
2.20725	91.1128
2.20631	91.0231
2.20537	90.8393
2.20444	90.9959
2.2035	91.0802
2.20256	91.0783
2.20163	90.9677
2.20069	90.8394
2.19976	90.8086
2.19883	90.8174
2.19789	90.8862
2.19696	91.0744
2.19603	91.0273
2.1951	90.9212
2.19417	91.1548
2.19325	91.0639
2.19232	91.0189
2.19139	91.0573
2.19047	91.0045
2.18954	91.0209
2.18862	90.8684
2.18769	90.8091
2.18677	90.8622
2.18585	90.8804
2.18493	90.8961
2.18401	90.9437
2.18309	91.068
2.18217	91.1673
2.18125	91.1146
2.18033	91.0111
2.17942	90.9555
2.1785	90.9031
2.17759	90.9389
2.17667	90.9328
2.17576	90.924
2.17485	90.9025
2.17393	90.7763
2.17302	90.865
2.17211	91.0252
2.1712	90.869
2.17029	90.7818
2.16939	90.8668
2.16848	90.9615
2.16757	90.9298
2.16667	90.8828
2.16576	90.8768
2.16486	90.8534
2.16395	90.8929
2.16305	90.9438
2.16215	90.984
2.16125	90.8908
2.16035	90.804
2.15945	90.8364
2.15855	90.9326
2.15765	90.9181
2.15675	90.8699
2.15586	90.8282
2.15496	90.81
2.15406	90.871
2.15317	91.0836
2.15228	91.213
2.15138	91.0319
2.15049	90.9533
2.1496	90.9522
2.14871	90.8736
2.14782	90.7703
2.14693	90.5635
2.14604	90.5613
2.14515	90.7164
2.14427	90.7792
2.14338	90.9759
2.14249	91.0928
2.14161	90.9099
2.14072	91.1539
2.13984	91.1479
2.13896	90.8667
2.13808	90.8641
2.13719	90.8622
2.13631	90.7721
2.13543	90.6545
2.13455	90.6122
2.13368	90.6661
2.1328	90.8986
2.13192	90.8537
2.13105	90.6831
2.13017	90.7003
2.1293	90.6084
2.12842	90.5783
2.12755	90.871
2.12668	90.935
2.1258	90.8784
2.12493	90.8866
2.12406	90.7999
2.12319	90.8999
2.12232	91.0129
2.12145	90.9068
2.12059	90.7422
2.11972	90.703
2.11885	90.6579
2.11799	90.598
2.11712	90.6762
2.11626	90.8917
2.1154	90.8519
2.11453	90.6814
2.11367	90.4807
2.11281	90.436
2.11195	90.7929
2.11109	90.9372
2.11023	90.9856
2.10937	91.1057
2.10851	90.9952
2.10766	90.6547
2.1068	90.6624
2.10594	90.6835
2.10509	90.6457
2.10423	90.8311
2.10338	90.8863
2.10253	90.9011
2.10168	90.7344
2.10082	90.6981
2.09997	90.7872
2.09912	90.7666
2.09827	90.732
2.09742	90.8055
2.09658	90.8338
2.09573	90.8333
2.09488	90.8098
2.09404	90.7796
2.09319	90.8614
2.09235	90.8851
2.0915	90.855
2.09066	90.8661
2.08982	90.6865
2.08897	90.5259
2.08813	90.6359
2.08729	90.6707
2.08645	90.8033
2.08561	90.8407
2.08477	90.6919
2.08394	90.5692
2.0831	90.5709
2.08226	90.5624
2.08143	90.4705
2.08059	90.5633
2.07976	90.7422
2.07892	90.7418
2.07809	90.7585
2.07726	90.7768
2.07643	90.7723
2.07559	90.753
2.07476	90.7118
2.07393	90.6896
2.0731	90.7495
2.07228	90.8895
2.07145	90.7703
2.07062	90.6476
2.06979	90.6608
2.06897	90.7438
2.06814	90.8337
2.06732	90.8357
2.06649	91.0569
2.06567	91.0163
2.06485	90.6574
2.06403	90.4722
2.0632	90.6965
2.06238	91.0642
2.06156	90.9751
2.06074	90.4553
2.05993	90.6068
2.05911	90.8222
2.05829	90.7618
2.05747	90.5793
2.05666	90.4161
2.05584	90.6276
2.05503	90.8618
2.05421	90.7645
2.0534	90.7828
2.05259	90.6815
2.05177	90.4497
2.05096	90.5734
2.05015	90.7995
2.04934	90.8439
2.04853	90.8407
2.04772	90.6555
2.04691	90.494
2.04611	90.6703
2.0453	90.8293
2.04449	90.8076
2.04369	90.5855
2.04288	90.5746
2.04208	90.6054
2.04127	90.3866
2.04047	90.4554
2.03967	90.686
2.03886	90.8138
2.03806	90.6361
2.03726	90.5883
2.03646	90.8719
2.03566	90.9136
2.03486	90.602
2.03407	90.4869
2.03327	90.4882
2.03247	90.6942
2.03167	90.7517
2.03088	90.6399
2.03008	90.4854
2.02929	90.761
2.0285	90.8928
2.0277	90.8097
2.02691	90.6782
2.02612	90.7048
2.02533	90.9083
2.02453	90.6671
2.02374	90.3066
2.02295	90.526
2.02217	90.8813
2.02138	90.9434
2.02059	90.8493
2.0198	90.7689
2.01902	90.7574
2.01823	90.751
2.01744	90.7847
2.01666	90.8371
2.01588	90.692
2.01509	90.4085
2.01431	90.4518
2.01353	90.5963
2.01275	90.7821
2.01196	90.6882
2.01118	90.6472
2.0104	90.675
2.00963	90.7705
2.00885	90.7695
2.00807	90.8394
2.00729	90.8718
2.00651	90.8306
2.00574	90.7479
2.00496	90.6199
2.00419	90.5451
2.00341	90.6338
2.00264	90.7302
2.00187	90.6764
2.00109	90.5522
2.00032	90.3295
