Name: Fluvial deposit
Type:  Soils
Class: Entisol
Subclass: 
Particle Size:  see additional information
Sample No.: fgg003
Owner:  University of NSW
Wavelength range:  All
Origin: Fowlers Gap, western New South Wales, Australia
Hewson(1998) PhD thesis
Description: Parent material consists of phyllite and shale grits with some quartz-rich sands deposited as alluvium

Physiography: Floodplain outwash along ephemeral watercourse.



Measurement: Directional hemispherical reflectance 
First Column:  X
Second Column:  Y
X Units:  Wavelength (micrometers)
Y Units:  Reflectance (percent)
First X Value:  14.0131
Last X Value:  2.00032
Number of X Values:  2223
Additional information:  fgg003a.txt
14.013    1.8277
13.975    2.0248
13.938    2.1761
13.900    2.1578
13.863    2.1372
13.826    2.1173
13.790    2.1098
13.753    2.1715
13.717    2.1191
13.680    2.0072
13.644    1.9567
13.608    1.9720
13.573    2.1786
13.537    2.1829
13.502    1.9707
13.467    1.9618
13.432    2.0031
13.398    2.0312
13.363    2.2206
13.329    2.4327
13.294    2.3481
13.260    2.1315
13.227    2.2113
13.193    2.0686
13.160    1.9481
13.126    2.0758
13.093    2.0842
13.060    2.2172
13.027    2.1390
12.995    2.2402
12.962    2.4421
12.930    2.4877
12.898    2.3527
12.866    2.3912
12.834    2.4049
12.802    2.3443
12.771    2.2364
12.739    2.2647
12.708    2.2282
12.677    2.0295
12.646    1.9149
12.615    1.9002
12.585    2.0024
12.554    2.0799
12.524    2.0975
12.494    2.1522
12.464    2.0692
12.434    1.9388
12.404    1.7011
12.374    1.5246
12.345    1.3687
12.316    1.3047
12.286    1.3453
12.257    1.4749
12.228    1.6297
12.200    1.7205
12.171    1.7612
12.143    1.8455
12.114    1.9424
12.086    1.9898
12.058    2.0599
12.030    2.2489
12.002    2.3818
11.974    2.3696
11.947    2.5277
11.919    2.5735
11.892    2.6610
11.865    2.6666
11.838    2.6261
11.811    2.6620
11.784    2.7439
11.757    2.8355
11.730    2.9348
11.704    3.0046
11.678    3.0419
11.651    2.9737
11.625    2.8874
11.599    3.0643
11.573    3.1545
11.547    3.0608
11.522    3.0476
11.496    3.0293
11.471    2.9166
11.445    2.7619
11.420    2.6145
11.395    2.7502
11.370    2.9002
11.345    2.7129
11.321    2.6484
11.296    2.8999
11.271    2.9906
11.247    2.8443
11.223    2.8366
11.198    2.8935
11.174    2.9953
11.150    2.9887
11.126    2.9324
11.102    2.9479
11.079    2.9522
11.055    2.9881
11.032    2.9009
11.008    2.7529
10.985    2.6565
10.962    2.5845
10.938    2.5715
10.915    2.6670
10.893    2.6821
10.870    2.6491
10.847    2.5483
10.824    2.5387
10.802    2.6267
10.779    2.6567
10.757    2.6065
10.735    2.5816
10.713    2.5614
10.690    2.6454
10.668    2.7484
10.647    2.6518
10.625    2.6335
10.603    2.7906
10.581    2.9043
10.560    2.9090
10.538    3.0504
10.517    3.1036
10.496    2.9737
10.474    3.1025
10.453    3.2268
10.432    3.1595
10.411    3.0754
10.390    3.1583
10.370    3.2792
10.349    3.2948
10.328    3.1726
10.308    3.2989
10.287    3.4346
10.267    3.4704
10.247    3.5028
10.227    3.5271
10.206    3.6181
10.186    3.7809
10.166    3.7866
10.146    3.7531
10.127    3.7867
10.107    3.8958
10.087    4.0893
10.068    4.2091
10.048    4.3300
10.029    4.3543
10.009    4.3993
 9.990    4.5775
 9.971    4.6761
 9.952    4.7055
 9.933    4.7850
 9.914    4.8340
 9.895    4.7880
 9.876    4.8763
 9.857    5.0243
 9.838    5.0725
 9.820    5.0157
 9.801    5.1143
 9.783    5.3153
 9.764    5.4202
 9.746    5.4806
 9.728    5.6821
 9.709    5.9244
 9.691    6.0821
 9.673    6.1501
 9.655    6.1739
 9.637    6.4734
 9.619    6.6517
 9.602    6.6486
 9.584    6.6510
 9.566    6.7469
 9.549    7.0140
 9.531    7.1029
 9.514    7.0645
 9.496    7.2910
 9.479    7.4073
 9.461    7.3760
 9.444    7.3433
 9.427    7.4071
 9.410    7.5792
 9.393    7.8477
 9.376    8.0065
 9.359    8.1970
 9.342    8.3503
 9.325    8.4583
 9.309    8.4871
 9.292    8.4414
 9.275    8.4058
 9.259    8.1589
 9.242    7.9703
 9.226    8.0834
 9.209    8.1343
 9.193    8.0100
 9.177    7.8939
 9.161    7.7839
 9.144    7.8304
 9.128    7.7943
 9.112    7.7343
 9.096    7.5539
 9.080    7.3909
 9.064    7.4267
 9.049    7.2600
 9.033    7.1124
 9.017    6.9806
 9.002    6.7609
 8.986    6.6835
 8.970    6.8044
 8.955    7.0532
 8.939    7.1587
 8.924    7.2448
 8.909    7.5208
 8.893    7.7123
 8.878    7.7697
 8.863    7.8323
 8.848    7.7673
 8.833    7.7723
 8.818    7.7969
 8.803    7.7929
 8.788    7.7347
 8.773    7.8250
 8.758    7.7896
 8.743    7.6251
 8.729    7.5023
 8.714    7.4564
 8.699    7.2683
 8.685    7.1182
 8.670    6.9666
 8.656    6.5660
 8.641    6.0735
 8.627    6.0195
 8.613    6.3371
 8.598    6.7554
 8.584    7.2172
 8.570    7.5616
 8.556    7.7135
 8.542    7.7585
 8.528    7.8960
 8.514    8.0837
 8.500    8.0143
 8.486    8.0762
 8.472    8.2314
 8.458    8.1564
 8.444    8.3633
 8.431    8.5509
 8.417    8.5320
 8.403    8.6748
 8.390    8.8439
 8.376    8.9264
 8.363    9.1116
 8.349    9.2510
 8.336    9.4036
 8.322    9.5837
 8.309    9.7420
 8.296    9.8796
 8.283    9.9589
 8.269   10.1589
 8.256   10.4757
 8.243   10.6663
 8.230   10.7238
 8.217   10.8270
 8.204   10.8603
 8.191   10.7644
 8.178   10.6192
 8.165   10.3387
 8.152    9.9887
 8.140    9.5211
 8.127    9.0903
 8.114    8.6905
 8.101    8.2151
 8.089    7.7090
 8.076    7.2899
 8.063    6.8931
 8.051    6.5725
 8.039    6.2809
 8.026    6.0429
 8.014    5.7626
 8.001    5.5630
 7.989    5.3208
 7.977    5.0338
 7.964    4.9071
 7.952    4.7706
 7.940    4.4850
 7.928    4.2592
 7.916    4.0664
 7.904    3.8279
 7.892    3.6751
 7.880    3.5256
 7.868    3.3836
 7.856    3.3455
 7.844    3.2533
 7.832    3.1020
 7.820    3.0400
 7.809    3.0179
 7.797    3.0287
 7.785    3.0869
 7.773    3.1298
 7.762    3.0437
 7.750    2.9273
 7.739    2.8831
 7.727    2.9177
 7.715    2.9747
 7.704    3.0171
 7.693    2.9512
 7.681    2.8844
 7.670    2.9438
 7.659    2.9417
 7.647    2.8933
 7.636    2.8637
 7.625    2.8908
 7.614    2.9017
 7.602    2.9208
 7.591    2.9090
 7.580    2.7798
 7.569    2.8150
 7.558    2.8985
 7.547    2.8937
 7.536    2.8797
 7.525    2.9634
 7.514    2.9594
 7.503    2.9023
 7.492    2.8486
 7.482    2.8642
 7.471    2.8599
 7.460    2.7872
 7.449    2.8304
 7.439    2.9525
 7.428    2.9503
 7.418    2.9718
 7.407    2.9087
 7.396    2.9194
 7.386    3.0748
 7.375    3.1515
 7.365    3.0349
 7.354    2.8685
 7.344    2.8776
 7.334    2.9844
 7.323    3.0095
 7.313    3.0229
 7.303    3.0082
 7.292    2.9859
 7.282    3.1161
 7.272    3.1915
 7.262    3.1313
 7.252    3.1391
 7.241    3.2315
 7.231    3.3157
 7.221    3.3410
 7.211    3.3375
 7.201    3.3242
 7.191    3.3371
 7.181    3.3098
 7.171    3.2529
 7.161    3.3316
 7.152    3.3977
 7.142    3.3872
 7.132    3.3413
 7.122    3.3674
 7.112    3.4649
 7.103    3.4611
 7.093    3.4180
 7.083    3.4225
 7.073    3.5105
 7.064    3.6044
 7.054    3.5066
 7.045    3.4365
 7.035    3.5001
 7.026    3.5347
 7.016    3.5001
 7.007    3.5022
 6.997    3.5748
 6.988    3.5962
 6.978    3.6209
 6.969    3.6850
 6.960    3.7258
 6.950    3.7636
 6.941    3.8410
 6.932    3.9206
 6.922    4.0171
 6.913    4.0706
 6.904    4.0997
 6.895    4.1078
 6.886    4.1022
 6.876    4.1360
 6.867    4.1855
 6.858    4.2073
 6.849    4.2134
 6.840    4.2326
 6.831    4.2541
 6.822    4.3060
 6.813    4.3373
 6.804    4.3308
 6.795    4.3974
 6.786    4.4455
 6.778    4.5076
 6.769    4.5131
 6.760    4.4674
 6.751    4.4527
 6.742    4.4553
 6.734    4.4074
 6.725    4.3331
 6.716    4.3486
 6.707    4.4325
 6.699    4.4379
 6.690    4.5284
 6.681    4.6065
 6.673    4.6420
 6.664    4.6404
 6.656    4.6251
 6.647    4.7193
 6.639    4.8126
 6.630    4.8297
 6.622    4.7439
 6.613    4.6024
 6.605    4.5027
 6.596    4.5582
 6.588    4.6335
 6.580    4.5721
 6.571    4.4703
 6.563    4.4827
 6.555    4.5431
 6.547    4.4880
 6.538    4.4864
 6.530    4.5964
 6.522    4.7454
 6.514    5.0008
 6.505    5.1872
 6.497    5.2631
 6.489    5.3553
 6.481    5.4194
 6.473    5.4768
 6.465    5.5988
 6.457    5.6908
 6.449    5.7726
 6.441    5.8017
 6.433    5.9053
 6.425    5.9514
 6.417    5.9405
 6.409    5.8718
 6.401    5.7252
 6.393    5.6571
 6.385    5.6679
 6.377    5.5469
 6.370    5.4383
 6.362    5.3117
 6.354    5.1589
 6.346    5.0730
 6.338    5.0465
 6.331    4.9163
 6.323    4.7184
 6.315    4.5650
 6.308    4.4715
 6.300    4.3382
 6.292    4.1479
 6.285    3.9873
 6.277    3.8280
 6.269    3.7167
 6.262    3.6780
 6.254    3.6349
 6.247    3.5608
 6.239    3.4139
 6.232    3.2363
 6.224    3.1795
 6.217    3.0504
 6.209    2.9428
 6.202    2.9049
 6.194    2.9023
 6.187    2.8489
 6.180    2.6948
 6.172    2.5924
 6.165    2.6933
 6.158    2.7377
 6.151    2.7257
 6.143    2.7604
 6.136    2.7585
 6.129    2.6606
 6.121    2.6186
 6.114    2.6851
 6.107    2.7302
 6.100    2.6839
 6.093    2.7710
 6.085    2.8350
 6.078    2.7808
 6.071    2.7497
 6.064    2.7978
 6.057    2.8277
 6.050    2.9078
 6.043    2.9779
 6.036    3.0107
 6.029    3.0561
 6.022    3.0641
 6.015    3.0594
 6.008    3.0768
 6.001    3.1754
 5.994    3.3056
 5.987    3.3363
 5.980    3.3075
 5.973    3.3627
 5.966    3.4548
 5.960    3.5027
 5.953    3.5258
 5.946    3.5638
 5.939    3.6604
 5.932    3.7317
 5.926    3.8497
 5.919    4.0017
 5.912    4.1589
 5.905    4.4533
 5.899    4.7376
 5.892    4.9321
 5.885    5.1800
 5.878    5.4025
 5.872    5.5525
 5.865    5.8332
 5.859    6.1057
 5.852    6.3494
 5.845    6.4962
 5.839    6.7007
 5.832    7.0016
 5.826    7.2520
 5.819    7.4424
 5.813    7.6700
 5.806    7.8422
 5.800    8.0311
 5.793    8.2752
 5.787    8.4532
 5.780    8.6166
 5.774    8.7861
 5.767    8.9719
 5.761    9.1087
 5.755    9.2032
 5.748    9.3825
 5.742    9.5867
 5.735    9.7057
 5.729    9.7950
 5.723    9.9079
 5.716    9.9942
 5.710   10.1156
 5.704   10.1693
 5.698   10.2111
 5.691   10.2348
 5.685   10.1573
 5.679   10.0720
 5.673    9.9154
 5.667    9.7397
 5.660    9.5652
 5.654    9.2980
 5.648    9.0684
 5.642    8.8176
 5.636    8.5289
 5.630    8.2986
 5.623    8.0777
 5.617    7.9305
 5.611    7.8512
 5.605    7.7289
 5.599    7.6101
 5.593    7.5426
 5.587    7.5530
 5.581    7.5847
 5.575    7.5554
 5.569    7.5625
 5.563    7.6039
 5.557    7.6517
 5.551    7.8040
 5.545    7.9270
 5.539    8.0723
 5.533    8.2234
 5.527    8.3424
 5.522    8.4993
 5.516    8.7005
 5.510    8.8669
 5.504    8.9740
 5.498    9.1868
 5.492    9.4323
 5.487    9.6088
 5.481    9.8320
 5.475   10.0047
 5.469   10.0930
 5.463   10.2334
 5.458   10.3377
 5.452   10.3769
 5.446   10.3346
 5.441   10.2802
 5.435   10.1678
 5.429   10.0281
 5.423    9.8704
 5.418    9.5651
 5.412    9.2403
 5.407    8.8746
 5.401    8.4558
 5.395    8.0781
 5.390    7.7944
 5.384    7.5859
 5.378    7.3739
 5.373    7.1593
 5.367    6.8704
 5.362    6.6175
 5.356    6.5736
 5.351    6.6643
 5.345    6.6786
 5.340    6.6994
 5.334    6.7499
 5.329    6.7476
 5.323    6.7444
 5.318    6.7994
 5.312    6.8542
 5.307    6.9509
 5.301    7.1696
 5.296    7.3502
 5.291    7.4444
 5.285    7.5534
 5.280    7.6643
 5.274    7.8130
 5.269    8.1022
 5.264    8.4231
 5.258    8.6879
 5.253    8.9324
 5.248    9.2766
 5.242    9.7165
 5.237   10.1024
 5.232   10.4330
 5.227   10.8010
 5.221   11.1614
 5.216   11.5047
 5.211   11.8341
 5.206   12.0034
 5.200   12.1478
 5.195   12.3202
 5.190   12.3799
 5.185   12.3733
 5.180   12.2725
 5.175   12.2592
 5.169   12.2531
 5.164   12.2400
 5.159   12.2679
 5.154   12.3031
 5.149   12.2972
 5.144   12.2482
 5.139   12.2139
 5.133   12.1902
 5.128   12.2198
 5.123   12.2533
 5.118   12.2651
 5.113   12.3444
 5.108   12.3790
 5.103   12.3671
 5.098   12.3731
 5.093   12.2791
 5.088   12.1103
 5.083   11.9846
 5.078   11.8819
 5.073   11.7501
 5.068   11.7268
 5.063   11.7302
 5.058   11.6819
 5.053   11.6282
 5.048   11.5925
 5.044   11.6168
 5.039   11.6941
 5.034   11.7008
 5.029   11.7030
 5.024   11.7296
 5.019   11.7099
 5.014   11.6642
 5.010   11.6810
 5.005   11.7752
 5.000   11.9415
 4.995   12.0900
 4.990   12.2057
 4.985   12.3360
 4.981   12.5877
 4.976   12.9057
 4.971   13.3030
 4.966   13.7339
 4.962   14.0712
 4.957   14.4451
 4.952   14.7215
 4.947   14.9131
 4.943   15.0972
 4.938   15.2605
 4.933   15.4226
 4.929   15.6692
 4.924   15.9203
 4.919   16.3054
 4.915   16.7831
 4.910   17.3305
 4.905   17.9537
 4.901   18.5267
 4.896   19.1232
 4.891   19.7449
 4.887   20.3188
 4.882   20.8612
 4.878   21.3293
 4.873   21.7262
 4.868   22.0932
 4.864   22.3973
 4.859   22.6790
 4.855   22.9240
 4.850   23.0722
 4.846   23.2385
 4.841   23.5239
 4.837   23.8108
 4.832   23.9598
 4.828   24.0904
 4.823   24.1842
 4.819   24.2901
 4.814   24.4069
 4.810   24.5447
 4.805   24.6578
 4.801   24.7650
 4.796   24.8803
 4.792   24.9315
 4.787   24.9791
 4.783   25.0369
 4.779   25.1466
 4.774   25.2706
 4.770   25.4112
 4.766   25.5558
 4.761   25.6106
 4.757   25.6704
 4.752   25.7268
 4.748   25.7916
 4.744   25.8347
 4.739   25.9059
 4.735   25.9791
 4.731   26.0125
 4.726   26.0910
 4.722   26.0808
 4.718   26.0365
 4.713   26.0320
 4.709   26.0355
 4.705   25.9836
 4.701   25.9329
 4.696   25.8182
 4.692   25.6425
 4.688   25.4967
 4.684   25.4987
 4.680   25.6324
 4.675   25.7490
 4.671   25.8795
 4.667   26.0507
 4.663   26.2073
 4.658   26.3814
 4.654   26.5731
 4.650   26.7281
 4.646   26.9233
 4.642   27.0916
 4.638   27.2374
 4.633   27.3285
 4.629   27.4406
 4.625   27.5725
 4.621   27.7452
 4.617   27.8850
 4.613   27.9979
 4.609   28.1348
 4.605   28.1912
 4.601   28.2559
 4.596   28.3806
 4.592   28.5047
 4.588   28.5876
 4.584   28.6038
 4.580   28.6331
 4.576   28.6653
 4.572   28.7063
 4.568   28.7847
 4.564   28.8609
 4.560   28.8456
 4.556   28.8660
 4.552   28.9264
 4.548   28.9272
 4.544   28.8812
 4.540   28.8579
 4.536   28.7365
 4.532   28.5892
 4.528   28.4560
 4.524   28.3710
 4.520   28.2248
 4.516   28.0185
 4.513   27.8810
 4.509   27.7222
 4.505   27.5392
 4.501   27.4029
 4.497   27.2877
 4.493   27.2490
 4.489   27.2118
 4.485   27.1957
 4.481   27.1455
 4.477   27.0261
 4.473   27.0027
 4.470   27.1181
 4.466   27.1626
 4.462   27.1640
 4.458   27.2838
 4.454   27.4950
 4.450   27.7142
 4.447   27.8698
 4.443   27.9948
 4.439   28.1568
 4.435   28.2341
 4.431   28.2071
 4.428   28.2823
 4.424   28.4864
 4.420   28.6414
 4.416   28.7920
 4.413   28.9263
 4.409   29.1160
 4.405   29.3098
 4.401   29.4571
 4.398   29.5950
 4.394   29.7388
 4.390   29.8629
 4.386   29.9395
 4.383   30.1438
 4.379   30.3324
 4.375   30.4130
 4.372   30.6083
 4.368   30.8334
 4.364   30.9655
 4.361   31.1515
 4.357   31.2596
 4.353   31.3577
 4.350   31.4869
 4.346   31.5791
 4.342   31.6325
 4.339   31.6800
 4.335   31.7679
 4.332   31.8431
 4.328   31.8512
 4.324   31.8785
 4.321   31.9927
 4.317   32.1124
 4.314   32.2052
 4.310   32.1933
 4.306   32.2285
 4.303   32.3063
 4.299   32.3456
 4.296   32.2967
 4.292   32.2912
 4.289   32.2807
 4.285   32.2820
 4.282   32.3532
 4.278   32.3684
 4.274   32.3580
 4.271   32.3662
 4.267   32.4075
 4.264   32.5191
 4.260   32.5931
 4.257   32.7264
 4.253   32.8513
 4.250   32.9165
 4.246   33.0848
 4.243   33.2468
 4.239   33.3202
 4.236   33.4077
 4.232   33.5083
 4.229   33.5246
 4.226   33.5579
 4.222   33.5735
 4.219   33.6210
 4.215   33.6896
 4.212   33.7740
 4.208   33.7866
 4.205   33.7366
 4.202   33.7890
 4.198   33.8688
 4.195   33.8486
 4.191   33.9049
 4.188   34.0147
 4.185   34.1295
 4.181   34.2244
 4.178   34.2945
 4.175   34.3505
 4.171   34.3913
 4.168   34.3951
 4.165   34.4027
 4.161   34.4572
 4.158   34.5628
 4.154   34.6436
 4.151   34.7192
 4.148   34.7416
 4.145   34.7816
 4.141   34.9242
 4.138   34.9824
 4.135   34.9400
 4.131   34.9694
 4.128   35.0829
 4.125   35.1902
 4.122   35.2028
 4.118   35.2216
 4.115   35.2559
 4.112   35.3395
 4.108   35.4545
 4.105   35.4850
 4.102   35.5441
 4.099   35.6785
 4.096   35.7105
 4.092   35.7043
 4.089   35.7519
 4.086   35.8015
 4.083   35.8116
 4.079   35.8275
 4.076   35.8780
 4.073   35.8650
 4.070   35.8872
 4.066   35.9104
 4.063   35.8885
 4.060   35.9353
 4.057   35.9775
 4.054   36.0066
 4.051   36.0255
 4.048   36.0201
 4.044   35.9863
 4.041   35.8744
 4.038   35.7778
 4.035   35.7671
 4.032   35.7698
 4.029   35.7165
 4.026   35.6280
 4.022   35.6152
 4.019   35.5247
 4.016   35.3798
 4.013   35.2962
 4.010   35.2478
 4.007   35.2077
 4.004   35.1395
 4.001   34.9858
 3.998   34.9292
 3.994   34.8673
 3.991   34.6609
 3.988   34.5037
 3.985   34.4827
 3.982   34.4851
 3.979   34.4820
 3.976   34.5514
 3.973   34.6454
 3.970   34.6158
 3.967   34.6141
 3.964   34.6729
 3.961   34.7371
 3.958   34.8855
 3.955   34.9964
 3.952   35.0308
 3.949   35.0752
 3.946   35.1695
 3.943   35.2796
 3.940   35.3319
 3.937   35.3912
 3.934   35.4241
 3.931   35.4765
 3.928   35.5016
 3.925   35.5177
 3.922   35.5060
 3.919   35.4539
 3.916   35.4056
 3.913   35.4020
 3.910   35.4427
 3.907   35.4224
 3.904   35.3772
 3.901   35.3538
 3.898   35.3184
 3.895   35.2934
 3.893   35.3098
 3.890   35.2569
 3.887   35.2379
 3.884   35.2078
 3.881   35.1214
 3.878   35.0991
 3.875   35.0434
 3.872   34.9336
 3.869   34.8808
 3.866   34.7605
 3.864   34.7250
 3.861   34.7778
 3.858   34.7461
 3.855   34.7497
 3.852   34.7057
 3.849   34.6317
 3.846   34.6001
 3.844   34.5896
 3.841   34.5675
 3.838   34.5395
 3.835   34.4501
 3.832   34.3503
 3.829   34.3452
 3.826   34.3610
 3.824   34.3360
 3.821   34.2680
 3.818   34.2846
 3.815   34.2392
 3.812   34.2383
 3.810   34.1925
 3.807   34.1745
 3.804   34.1428
 3.801   34.0096
 3.798   33.9794
 3.796   33.9819
 3.793   33.9244
 3.790   33.8684
 3.787   33.7776
 3.785   33.7186
 3.782   33.6168
 3.779   33.4835
 3.776   33.4601
 3.773   33.4201
 3.771   33.3353
 3.768   33.2832
 3.765   33.1548
 3.763   33.0131
 3.760   32.9099
 3.757   32.8647
 3.754   32.7512
 3.752   32.5872
 3.749   32.5407
 3.746   32.5184
 3.744   32.3640
 3.741   32.2393
 3.738   32.2196
 3.736   32.1502
 3.733   32.0700
 3.730   32.0022
 3.727   31.9743
 3.725   31.8808
 3.722   31.6181
 3.719   31.5080
 3.717   31.5288
 3.714   31.5051
 3.711   31.3910
 3.709   31.2594
 3.706   31.1489
 3.704   31.1136
 3.701   31.1175
 3.698   31.0078
 3.696   30.8907
 3.693   30.8349
 3.690   30.7828
 3.688   30.6991
 3.685   30.6621
 3.682   30.6167
 3.680   30.4990
 3.677   30.3799
 3.675   30.2840
 3.672   30.1948
 3.669   30.1452
 3.667   30.0876
 3.664   30.0188
 3.662   29.8923
 3.659   29.7193
 3.656   29.6684
 3.654   29.6115
 3.651   29.4370
 3.649   29.3141
 3.646   29.3027
 3.644   29.2061
 3.641   29.1012
 3.639   28.9901
 3.636   28.9249
 3.633   28.8469
 3.631   28.7344
 3.628   28.6429
 3.626   28.5283
 3.623   28.3991
 3.621   28.2510
 3.618   28.1429
 3.616   28.0417
 3.613   27.8882
 3.611   27.7905
 3.608   27.7134
 3.606   27.6762
 3.603   27.5929
 3.601   27.3907
 3.598   27.2479
 3.596   27.1349
 3.593   27.0184
 3.591   26.9156
 3.588   26.7906
 3.586   26.6676
 3.583   26.5869
 3.581   26.4859
 3.578   26.3015
 3.576   26.1747
 3.573   26.0268
 3.571   25.8890
 3.568   25.7335
 3.566   25.6156
 3.563   25.5257
 3.561   25.4130
 3.559   25.2959
 3.556   25.2195
 3.554   25.0925
 3.551   24.8581
 3.549   24.6589
 3.546   24.4850
 3.544   24.3552
 3.542   24.1929
 3.539   24.0803
 3.537   24.0511
 3.534   23.8900
 3.532   23.7066
 3.530   23.5773
 3.527   23.3949
 3.525   23.2500
 3.522   22.9795
 3.520   22.7791
 3.518   22.5413
 3.515   22.2361
 3.513   21.9735
 3.510   21.7144
 3.508   21.4717
 3.506   21.3767
 3.503   21.3012
 3.501   21.2139
 3.498   21.1505
 3.496   21.1804
 3.494   21.1649
 3.491   21.0209
 3.489   20.9036
 3.487   20.8784
 3.484   20.7409
 3.482   20.5125
 3.480   20.4264
 3.477   20.3426
 3.475   20.2110
 3.473   20.0962
 3.470   20.0734
 3.468   20.0917
 3.466   19.9790
 3.463   19.8511
 3.461   19.7195
 3.459   19.6042
 3.457   19.4761
 3.454   19.3385
 3.452   19.2202
 3.450   19.1617
 3.447   19.0266
 3.445   18.8663
 3.443   18.7171
 3.441   18.5539
 3.438   18.3787
 3.436   18.2650
 3.434   18.1604
 3.431   17.8905
 3.429   17.6076
 3.427   17.4272
 3.425   17.1541
 3.422   16.9764
 3.420   16.9287
 3.418   16.8444
 3.416   16.7473
 3.413   16.6317
 3.411   16.5566
 3.409   16.5802
 3.407   16.5602
 3.404   16.4796
 3.402   16.4829
 3.400   16.4460
 3.398   16.4291
 3.395   16.3779
 3.393   16.3097
 3.391   16.1939
 3.389   16.1049
 3.387   16.0968
 3.384   16.0794
 3.382   16.0084
 3.380   15.7861
 3.378   15.7014
 3.376   15.6974
 3.373   15.5897
 3.371   15.4814
 3.369   15.4118
 3.367   15.3288
 3.365   15.3012
 3.362   15.2651
 3.360   15.2072
 3.358   15.0921
 3.356   14.9588
 3.354   14.9919
 3.352   14.8830
 3.349   14.6593
 3.347   14.5786
 3.345   14.5486
 3.343   14.6058
 3.341   14.6045
 3.339   14.5487
 3.336   14.4704
 3.334   14.2758
 3.332   14.0939
 3.330   14.0820
 3.328   13.9924
 3.326   13.8579
 3.324   13.7490
 3.321   13.7147
 3.319   13.5631
 3.317   13.4842
 3.315   13.4524
 3.313   13.2832
 3.311   13.1419
 3.309   13.0746
 3.307   13.0071
 3.305   12.8828
 3.302   12.7050
 3.300   12.6204
 3.298   12.5003
 3.296   12.3422
 3.294   12.1971
 3.292   12.0972
 3.290   12.0990
 3.288   12.0232
 3.286   11.8886
 3.284   11.8655
 3.281   11.9163
 3.280   11.7452
 3.277   11.4836
 3.275   11.3581
 3.273   11.3521
 3.271   11.2652
 3.269   11.0950
 3.267   11.0702
 3.265   11.0214
 3.263   10.8401
 3.261   10.7150
 3.259   10.6320
 3.257   10.5993
 3.255   10.4873
 3.253   10.3365
 3.251   10.2227
 3.249   10.2267
 3.247   10.2048
 3.245   10.0750
 3.243    9.8683
 3.240    9.8030
 3.239    9.7677
 3.236    9.7359
 3.235    9.7569
 3.232    9.6112
 3.230    9.4327
 3.228    9.3626
 3.226    9.3197
 3.224    9.2333
 3.222    9.1239
 3.220    9.0269
 3.218    8.9452
 3.216    8.8421
 3.214    8.7925
 3.212    8.7994
 3.210    8.6517
 3.208    8.5253
 3.207    8.5251
 3.204    8.4702
 3.203    8.4913
 3.200    8.4234
 3.199    8.2605
 3.197    8.1489
 3.195    8.0065
 3.193    7.9228
 3.191    7.8805
 3.189    7.8443
 3.187    7.7786
 3.185    7.6435
 3.183    7.5150
 3.181    7.4909
 3.179    7.4919
 3.177    7.4200
 3.175    7.3158
 3.173    7.2364
 3.171    7.1677
 3.169    7.1861
 3.167    7.0982
 3.165    6.9292
 3.163    6.9070
 3.162    6.9368
 3.160    6.8750
 3.158    6.7755
 3.156    6.6971
 3.154    6.6495
 3.152    6.5260
 3.150    6.4458
 3.148    6.4038
 3.146    6.3392
 3.144    6.3211
 3.142    6.1970
 3.140    6.0809
 3.139    6.0649
 3.137    6.0894
 3.135    6.0748
 3.133    5.9964
 3.131    6.0638
 3.129    5.9204
 3.127    5.7768
 3.125    5.7593
 3.123    5.7563
 3.122    5.6968
 3.120    5.6857
 3.118    5.5641
 3.116    5.4736
 3.114    5.4501
 3.112    5.3554
 3.110    5.4435
 3.108    5.5167
 3.107    5.5097
 3.105    5.3609
 3.103    5.2126
 3.101    5.2009
 3.099    5.2514
 3.097    5.2540
 3.095    5.1952
 3.094    5.1344
 3.092    5.1165
 3.090    5.0366
 3.088    4.9995
 3.086    5.0063
 3.084    4.9447
 3.083    4.8207
 3.081    4.7903
 3.079    4.8284
 3.077    4.8048
 3.075    4.8234
 3.073    5.0324
 3.072    4.9881
 3.070    4.8896
 3.068    4.8244
 3.066    4.8323
 3.064    4.8183
 3.063    4.7232
 3.061    4.7344
 3.059    4.7320
 3.057    4.6420
 3.055    4.5750
 3.054    4.5965
 3.052    4.5760
 3.050    4.5411
 3.048    4.5787
 3.046    4.5826
 3.045    4.5818
 3.043    4.6058
 3.041    4.5193
 3.039    4.4381
 3.037    4.3804
 3.036    4.3314
 3.034    4.4584
 3.032    4.4667
 3.030    4.3957
 3.029    4.3662
 3.027    4.2969
 3.025    4.3421
 3.023    4.4055
 3.022    4.4549
 3.020    4.3982
 3.018    4.3619
 3.016    4.4052
 3.014    4.3480
 3.013    4.2237
 3.011    4.1828
 3.009    4.2021
 3.007    4.1493
 3.006    4.0516
 3.004    4.1547
 3.002    4.2709
 3.001    4.2756
 2.999    4.1883
 2.997    4.1802
 2.995    4.1814
 2.994    4.1171
 2.992    3.9705
 2.990    3.8794
 2.988    3.8097
 2.987    3.8520
 2.985    3.9538
 2.983    4.0026
 2.982    4.0678
 2.980    4.0354
 2.978    3.9760
 2.976    3.9459
 2.975    3.9557
 2.973    3.9696
 2.971    3.8624
 2.970    3.7636
 2.968    3.6852
 2.966    3.7625
 2.965    3.8331
 2.963    3.7297
 2.961    3.7487
 2.959    3.9171
 2.958    3.9569
 2.956    3.8790
 2.954    3.8079
 2.953    3.8021
 2.951    3.7761
 2.949    3.7176
 2.948    3.6424
 2.946    3.6015
 2.944    3.6069
 2.943    3.6420
 2.941    3.7118
 2.939    3.6885
 2.938    3.7664
 2.936    3.8515
 2.934    3.8944
 2.933    3.8181
 2.931    3.7423
 2.929    3.6973
 2.928    3.6174
 2.926    3.6295
 2.924    3.6829
 2.923    3.6670
 2.921    3.6234
 2.919    3.5404
 2.918    3.5206
 2.916    3.7416
 2.914    3.9234
 2.913    3.9110
 2.911    3.8345
 2.910    3.7091
 2.908    3.7241
 2.906    3.8399
 2.905    3.8599
 2.903    3.8912
 2.901    3.8207
 2.900    3.7834
 2.898    3.9037
 2.897    3.7931
 2.895    3.8241
 2.893    4.0255
 2.892    4.1122
 2.890    3.9360
 2.889    3.9003
 2.887    3.9252
 2.885    3.7875
 2.884    3.8035
 2.882    3.9881
 2.881    4.0964
 2.879    4.0942
 2.877    4.1078
 2.876    4.1343
 2.874    4.1748
 2.873    4.0686
 2.871    3.9909
 2.869    4.0677
 2.868    4.1849
 2.866    4.2785
 2.865    4.1694
 2.863    4.0905
 2.861    4.1690
 2.860    4.2084
 2.858    4.2414
 2.857    4.1963
 2.855    4.1023
 2.853    4.2082
 2.852    4.3165
 2.850    4.2546
 2.849    4.3146
 2.847    4.2580
 2.846    4.2332
 2.844    4.2467
 2.843    4.1708
 2.841    4.2565
 2.840    4.3920
 2.838    4.3433
 2.836    4.2155
 2.835    4.0906
 2.833    4.2594
 2.832    4.2761
 2.830    4.1366
 2.829    4.1315
 2.827    4.0739
 2.825    4.1967
 2.824    4.2508
 2.822    4.1191
 2.821    4.0551
 2.819    4.0443
 2.818    4.1033
 2.816    4.1266
 2.815    4.0207
 2.813    4.0024
 2.812    4.0687
 2.810    4.0702
 2.809    3.9753
 2.807    4.0939
 2.806    4.0775
 2.804    4.0415
 2.803    3.7978
 2.801    3.5791
 2.800    3.6170
 2.798    3.7027
 2.797    3.5010
 2.795    3.5583
 2.794    3.6979
 2.792    3.7174
 2.791    3.7222
 2.789    3.6616
 2.788    3.5548
 2.786    3.1602
 2.785    3.2062
 2.783    3.3607
 2.782    3.2784
 2.780    3.0891
 2.779    3.0702
 2.777    3.1336
 2.776    3.0130
 2.774    2.8435
 2.773    2.8935
 2.771    2.9349
 2.770    2.9057
 2.768    2.7843
 2.767    2.6971
 2.765    2.6620
 2.764    2.4698
 2.762    2.1781
 2.761    2.0858
 2.759    2.1479
 2.758    2.2812
 2.756    2.4202
 2.755    2.5583
 2.753    2.6089
 2.752    2.7318
 2.751    2.8177
 2.749    2.7687
 2.748    2.7230
 2.746    2.8346
 2.745    2.9947
 2.743    3.0387
 2.742    2.9798
 2.740    3.0758
 2.739    3.2875
 2.737    3.3316
 2.736    3.4919
 2.735    3.6487
 2.733    3.7778
 2.732    3.8470
 2.730    3.9754
 2.729    4.2144
 2.727    4.4433
 2.726    4.5745
 2.725    4.7730
 2.723    5.1579
 2.722    5.6003
 2.720    6.0406
 2.719    6.3637
 2.717    6.5027
 2.716    6.5924
 2.715    6.5912
 2.713    6.3887
 2.712    6.1955
 2.710    5.7063
 2.709    5.1279
 2.708    4.6505
 2.706    4.3452
 2.705    4.3403
 2.703    4.7490
 2.702    5.4132
 2.700    6.2752
 2.699    7.3893
 2.698    8.7466
 2.696   10.1010
 2.695   11.6176
 2.693   13.3158
 2.692   14.9138
 2.691   16.4485
 2.689   18.1730
 2.688   19.7784
 2.686   21.2989
 2.685   22.6389
 2.684   23.8860
 2.682   25.0243
 2.681   26.0411
 2.680   26.9849
 2.678   27.8926
 2.677   28.7290
 2.675   29.4232
 2.674   29.9607
 2.673   30.5782
 2.671   31.2312
 2.670   31.7987
 2.668   32.2116
 2.667   32.6605
 2.666   33.0873
 2.664   33.4952
 2.663   33.8593
 2.662   34.2177
 2.660   34.6456
 2.659   35.0252
 2.658   35.3318
 2.656   35.6705
 2.655   35.8428
 2.654   36.0003
 2.652   36.2459
 2.651   36.5010
 2.649   36.7212
 2.648   36.9244
 2.647   37.1120
 2.645   37.3440
 2.644   37.4658
 2.643   37.6048
 2.641   37.8356
 2.640   38.1571
 2.639   38.2941
 2.637   38.3788
 2.636   38.5148
 2.635   38.7627
 2.633   38.9111
 2.632   39.1225
 2.631   39.3443
 2.629   39.3512
 2.628   39.3879
 2.627   39.4989
 2.625   39.5379
 2.624   39.6934
 2.623   39.8672
 2.621   39.9678
 2.620   40.0896
 2.619   40.1429
 2.617   40.2624
 2.616   40.3086
 2.615   40.4104
 2.613   40.5071
 2.612   40.4141
 2.611   40.4220
 2.609   40.5248
 2.608   40.6570
 2.607   40.8529
 2.605   41.0292
 2.604   40.9516
 2.603   40.9566
 2.602   41.0110
 2.600   40.9807
 2.599   40.8988
 2.598   40.9909
 2.596   41.2364
 2.595   41.6037
 2.594   41.5965
 2.592   41.4248
 2.591   41.3225
 2.590   41.3721
 2.588   41.5090
 2.587   41.6414
 2.586   41.6478
 2.585   41.6264
 2.583   41.5942
 2.582   41.6615
 2.581   41.7158
 2.579   41.6958
 2.578   41.7843
 2.577   41.9665
 2.576   42.0712
 2.574   42.1193
 2.573   41.9617
 2.572   41.9071
 2.571   42.0497
 2.569   42.1145
 2.568   42.0738
 2.567   42.0620
 2.566   42.2628
 2.564   42.4747
 2.563   42.4664
 2.562   42.4227
 2.560   42.3866
 2.559   42.3832
 2.558   42.4833
 2.557   42.6260
 2.555   42.6163
 2.554   42.5705
 2.553   42.6001
 2.552   42.6145
 2.550   42.6366
 2.549   42.5736
 2.548   42.5788
 2.547   42.6251
 2.545   42.6892
 2.544   42.6705
 2.543   42.6181
 2.542   42.5750
 2.540   42.6109
 2.539   42.6946
 2.538   42.7215
 2.537   42.7032
 2.535   42.7181
 2.534   42.8015
 2.533   42.7933
 2.532   42.8236
 2.530   42.7559
 2.529   42.7881
 2.528   42.8718
 2.527   42.9428
 2.526   43.0281
 2.524   43.0663
 2.523   43.0783
 2.522   43.1210
 2.521   43.0181
 2.519   42.9953
 2.518   43.0949
 2.517   43.0138
 2.516   42.9941
 2.515   43.1020
 2.513   43.1058
 2.512   43.1902
 2.511   43.2522
 2.510   43.1640
 2.508   43.1187
 2.507   43.1686
 2.506   43.2485
 2.505   43.3561
 2.503   43.3081
 2.502   43.3333
 2.501   43.3631
 2.500   43.5201
 2.499   43.5418
 2.498   43.4893
 2.496   43.4888
 2.495   43.6142
 2.494   43.6865
 2.493   43.6866
 2.491   43.7227
 2.490   43.7171
 2.489   43.7340
 2.488   43.7809
 2.487   43.9007
 2.486   44.0158
 2.484   44.0218
 2.483   44.0173
 2.482   44.1300
 2.481   44.1300
 2.480   44.2138
 2.478   44.3898
 2.477   44.3947
 2.476   44.3839
 2.475   44.4305
 2.474   44.4745
 2.473   44.5835
 2.471   44.7061
 2.470   44.6502
 2.469   44.5887
 2.468   44.6475
 2.467   44.7029
 2.466   44.7236
 2.464   44.8363
 2.463   44.9365
 2.462   44.9847
 2.461   45.0824
 2.460   45.1655
 2.458   45.1318
 2.457   45.1533
 2.456   45.2061
 2.455   45.2710
 2.454   45.2883
 2.453   45.2387
 2.451   45.2328
 2.450   45.3564
 2.449   45.3749
 2.448   45.3729
 2.447   45.3822
 2.446   45.4681
 2.445   45.6023
 2.443   45.7022
 2.442   45.7258
 2.441   45.7309
 2.440   45.8139
 2.439   46.0263
 2.438   46.1623
 2.437   46.2111
 2.435   46.3676
 2.434   46.4701
 2.433   46.4145
 2.432   46.4999
 2.431   46.7192
 2.430   46.9989
 2.429   47.0327
 2.427   46.9893
 2.426   47.0720
 2.425   47.1252
 2.424   47.2056
 2.423   47.2485
 2.422   47.2841
 2.421   47.3618
 2.419   47.5627
 2.418   47.7527
 2.417   47.7696
 2.416   47.7487
 2.415   47.9245
 2.414   48.0218
 2.413   48.0124
 2.412   48.1108
 2.410   48.1682
 2.409   48.2349
 2.408   48.3603
 2.407   48.4178
 2.406   48.3342
 2.405   48.4435
 2.404   48.4698
 2.403   48.3884
 2.402   48.3416
 2.400   48.4315
 2.399   48.5621
 2.398   48.5416
 2.397   48.5054
 2.396   48.5395
 2.395   48.5253
 2.394   48.5263
 2.393   48.6041
 2.392   48.5803
 2.390   48.4450
 2.389   48.4692
 2.388   48.5552
 2.387   48.5590
 2.386   48.5809
 2.385   48.6320
 2.384   48.6734
 2.383   48.6208
 2.382   48.6512
 2.381   48.7691
 2.380   48.7521
 2.378   48.7446
 2.377   48.8958
 2.376   48.9059
 2.375   48.9611
 2.374   49.1555
 2.373   49.0662
 2.372   48.9360
 2.371   48.9350
 2.370   49.1548
 2.369   49.2166
 2.368   49.2561
 2.366   49.2635
 2.365   49.2596
 2.364   49.1815
 2.363   49.1238
 2.362   49.2745
 2.361   49.3328
 2.360   49.2614
 2.359   49.2975
 2.358   49.3814
 2.357   49.4051
 2.356   49.4247
 2.355   49.4388
 2.353   49.4637
 2.353   49.4476
 2.351   49.3896
 2.350   49.4502
 2.349   49.5735
 2.348   49.6163
 2.347   49.6916
 2.346   49.8111
 2.345   49.8580
 2.344   49.8917
 2.343   50.0382
 2.342   50.1271
 2.341   50.1885
 2.340   50.3394
 2.339   50.4063
 2.338   50.4400
 2.337   50.6430
 2.336   50.6937
 2.334   50.7880
 2.333   50.9669
 2.332   50.9990
 2.331   50.9525
 2.330   51.0781
 2.329   51.1209
 2.328   51.1339
 2.327   51.3295
 2.326   51.4987
 2.325   51.5591
 2.324   51.5174
 2.323   51.6411
 2.322   51.7639
 2.321   51.9608
 2.320   51.9189
 2.319   51.9881
 2.318   52.1815
 2.317   52.1833
 2.316   52.1123
 2.315   52.1179
 2.314   52.2697
 2.313   52.3895
 2.312   52.3038
 2.311   52.3455
 2.309   52.5157
 2.309   52.5473
 2.308   52.5913
 2.306   52.6099
 2.305   52.5825
 2.304   52.6892
 2.303   52.7847
 2.302   52.8736
 2.301   52.9493
 2.300   53.0081
 2.299   53.0732
 2.298   53.0964
 2.297   53.0630
 2.296   53.2192
 2.295   53.2611
 2.294   53.2564
 2.293   53.2970
 2.292   53.3747
 2.291   53.3785
 2.290   53.2951
 2.289   53.4045
 2.288   53.5683
 2.287   53.5103
 2.286   53.4081
 2.285   53.5158
 2.284   53.6740
 2.283   53.7124
 2.282   53.6232
 2.281   53.6567
 2.280   53.8234
 2.279   53.9403
 2.278   53.9802
 2.277   53.9578
 2.276   54.0619
 2.275   54.0974
 2.274   54.0576
 2.273   53.9828
 2.272   53.9288
 2.271   53.9381
 2.270   54.0816
 2.269   54.0772
 2.268   53.9599
 2.267   53.9936
 2.266   53.9437
 2.265   53.8809
 2.264   53.9955
 2.263   53.8952
 2.262   53.7741
 2.261   53.8253
 2.260   53.8024
 2.259   53.6799
 2.258   53.5433
 2.257   53.4554
 2.256   53.5577
 2.255   53.5861
 2.254   53.4651
 2.253   53.4061
 2.252   53.4527
 2.251   53.4487
 2.250   53.3245
 2.249   53.2947
 2.248   53.3553
 2.247   53.3876
 2.247   53.3799
 2.245   53.3716
 2.244   53.3134
 2.244   53.2911
 2.243   53.3272
 2.242   53.2358
 2.241   53.0742
 2.240   53.0595
 2.239   53.1454
 2.238   53.1575
 2.237   53.2905
 2.236   53.3490
 2.235   53.1998
 2.234   53.1660
 2.233   53.2233
 2.232   53.1616
 2.231   53.0159
 2.230   52.9722
 2.229   53.0997
 2.228   52.9859
 2.227   52.7777
 2.226   52.6037
 2.225   52.4708
 2.224   52.4395
 2.223   52.3969
 2.222   52.2889
 2.221   52.1971
 2.220   52.0880
 2.220   51.9323
 2.219   51.8343
 2.218   51.7376
 2.217   51.6346
 2.216   51.4359
 2.215   51.1534
 2.214   50.9298
 2.213   50.6286
 2.212   50.2109
 2.211   49.7823
 2.210   49.4634
 2.209   49.2777
 2.208   49.4083
 2.207   49.7501
 2.206   50.0040
 2.205   50.3174
 2.204   50.7023
 2.204   50.9809
 2.203   51.1957
 2.202   51.5675
 2.201   51.7236
 2.200   51.8696
 2.199   51.9887
 2.198   52.0353
 2.197   52.1318
 2.196   52.3852
 2.195   52.6180
 2.194   52.7192
 2.193   52.8107
 2.192   52.9652
 2.191   53.1189
 2.191   53.1976
 2.189   53.3695
 2.189   53.6711
 2.188   53.8392
 2.187   53.8452
 2.186   53.8378
 2.185   53.9083
 2.184   54.0484
 2.183   54.0170
 2.182   54.0283
 2.181   54.3013
 2.180   54.4773
 2.179   54.5480
 2.179   54.5093
 2.178   54.4659
 2.177   54.5546
 2.176   54.7389
 2.175   54.8594
 2.174   54.8388
 2.173   55.0025
 2.172   55.1059
 2.171   55.0551
 2.170   54.9136
 2.169   54.8884
 2.168   55.1100
 2.168   55.1967
 2.167   55.2949
 2.166   55.3782
 2.165   55.3224
 2.164   55.3892
 2.163   55.4549
 2.162   55.3189
 2.161   55.2743
 2.160   55.3490
 2.160   55.4046
 2.159   55.5154
 2.158   55.7200
 2.157   55.7267
 2.156   55.7670
 2.155   55.9691
 2.154   56.1773
 2.153   56.1548
 2.152   55.9980
 2.151   55.9927
 2.151   56.2568
 2.150   56.4007
 2.149   56.4804
 2.148   56.6741
 2.147   56.7637
 2.146   56.7411
 2.145   56.6554
 2.144   56.6918
 2.143   56.8221
 2.143   57.0305
 2.142   57.2449
 2.141   57.2890
 2.140   57.3207
 2.139   57.1760
 2.138   57.0626
 2.137   57.1720
 2.136   57.2964
 2.135   57.3538
 2.135   57.2485
 2.134   57.3176
 2.133   57.2573
 2.132   57.1900
 2.131   57.3057
 2.130   57.2794
 2.129   57.1156
 2.128   57.0195
 2.128   57.0256
 2.127   57.1210
 2.126   57.2320
 2.125   57.2462
 2.124   57.2481
 2.123   57.3813
 2.122   57.4858
 2.122   57.3682
 2.121   57.2902
 2.120   57.2625
 2.119   57.1777
 2.118   57.1659
 2.117   57.2428
 2.116   57.1843
 2.115   57.1887
 2.115   57.3490
 2.114   57.2840
 2.113   57.2173
 2.112   57.2708
 2.111   57.4614
 2.110   57.4031
 2.109   57.1932
 2.108   57.1481
 2.108   57.2628
 2.107   57.3941
 2.106   57.3834
 2.105   57.4195
 2.104   57.3534
 2.103   57.2809
 2.103   57.4344
 2.102   57.5969
 2.101   57.6853
 2.100   57.6244
 2.099   57.3638
 2.098   57.2408
 2.097   57.4312
 2.097   57.3109
 2.096   57.1618
 2.095   57.4010
 2.094   57.6264
 2.093   57.6391
 2.092   57.5144
 2.091   57.4413
 2.091   57.4794
 2.090   57.4970
 2.089   57.5798
 2.088   57.4890
 2.087   57.2393
 2.087   57.3009
 2.086   57.3291
 2.085   57.2912
 2.084   57.3985
 2.083   57.5858
 2.082   57.6445
 2.081   57.4864
 2.081   57.4605
 2.080   57.4148
 2.079   57.3065
 2.078   57.2654
 2.077   57.5126
 2.076   57.7849
 2.076   57.5909
 2.075   57.3138
 2.074   57.1226
 2.073   57.1036
 2.072   57.2561
 2.071   57.6016
 2.071   57.5211
 2.070   57.1146
 2.069   57.3633
 2.068   57.4175
 2.067   57.4186
 2.067   57.6735
 2.066   57.4393
 2.065   57.2737
 2.064   57.4393
 2.063   57.5395
 2.062   57.2673
 2.062   57.1326
 2.061   57.2571
 2.060   57.4368
 2.059   57.3942
 2.058   57.3149
 2.058   57.2744
 2.057   57.1065
 2.056   57.0016
 2.055   57.0805
 2.054   57.1744
 2.053   57.4845
 2.053   57.3177
 2.052   56.9577
 2.051   56.9638
 2.050   57.1638
 2.049   57.0681
 2.049   56.9857
 2.048   57.0435
 2.047   57.1673
 2.046   57.3512
 2.045   57.4032
 2.045   57.2665
 2.044   57.0380
 2.043   57.0627
 2.042   56.9678
 2.041   56.8803
 2.041   56.8276
 2.040   56.9514
 2.039   56.9152
 2.038   56.6746
 2.037   56.5611
 2.037   56.5557
 2.036   56.6290
 2.035   56.7240
 2.034   56.8205
 2.033   56.8875
 2.033   56.7841
 2.032   56.7438
 2.031   56.7405
 2.030   56.8322
 2.029   56.7234
 2.029   56.6200
 2.028   56.4481
 2.027   56.5036
 2.026   56.7475
 2.025   56.7694
 2.025   56.5268
 2.024   56.4343
 2.023   56.4577
 2.022   56.3512
 2.021   56.1748
 2.021   56.2925
 2.020   56.5142
 2.019   56.4611
 2.018   56.1652
 2.017   56.1293
 2.017   56.2660
 2.016   56.1761
 2.015   55.9882
 2.014   56.0551
 2.014   56.1037
 2.013   56.0959
 2.012   56.0131
 2.011   55.7438
 2.010   55.5756
 2.010   55.7667
 2.009   56.0021
 2.008   56.0494
 2.007   56.0047
 2.007   55.7690
 2.006   55.4336
 2.005   55.3937
 2.004   55.6458
 2.003   55.8112
 2.003   55.7072
 2.002   55.4619
 2.001   55.2592
 2.000   55.1902
