Name: Calcite CaCO_3
Type: Mineral
Class: Carbonates
Subclass: 
Particle Size: 45-125um
Sample No.: C-3E
Owner: JPL
Wavelength range: IR
Origin: 
Collected by JPL
Description: 





Measurement: Hemispherical reflectance
First Column: X
Second Column: Y
X Units:  Wavelength (micrometers)
Y Units:  Reflectance (percent)
First X Value: 15.3853
Last X Value: 2.00032
Number of X Values: 2256
Additional information: c03ea.txt
 
15.3853	20.4282
15.3397	21.08
15.2945	21.5956
15.2495	22.2168
15.2048	22.7038
15.1603	23.0683
15.1161	23.3167
15.0722	23.7602
15.0285	24.1608
14.9851	24.3613
14.9419	24.9276
14.8989	25.634
14.8563	26.0308
14.8138	26.2001
14.7716	26.3372
14.7296	26.3371
14.6879	26.1148
14.6464	25.7348
14.6052	25.4745
14.5641	24.842
14.5233	23.7807
14.4828	22.2739
14.4424	20.1687
14.4023	18.365
14.3624	16.9754
14.3227	14.7003
14.2833	12.2753
14.244	10.2
14.205	7.71378
14.1662	5.6094
14.1276	4.06799
14.0892	3.71367
14.051	3.92564
14.0131	2.8914
13.9753	1.69
13.9377	2.05924
13.9004	3.58283
13.8632	6.36361
13.8262	9.98028
13.7895	13.436
13.7529	16.4468
13.7165	19.1857
13.6803	21.6378
13.6443	23.8654
13.6085	25.9193
13.5729	27.7419
13.5374	29.0904
13.5022	30.322
13.4671	31.2049
13.4322	31.8968
13.3975	32.2734
13.363	32.4413
13.3286	32.3552
13.2944	31.8678
13.2604	31.3526
13.2266	30.7556
13.193	29.9497
13.1595	28.8406
13.1262	27.4008
13.093	25.9556
13.06	24.6278
13.0272	23.3143
12.9946	22.0292
12.9621	21.0934
12.9298	20.515
12.8976	20.392
12.8656	20.512
12.8337	20.4317
12.8021	20.1813
12.7705	20.0982
12.7391	20.1987
12.7079	20.5588
12.6769	21.1308
12.6459	21.6526
12.6152	22.1466
12.5845	22.6152
12.5541	22.9105
12.5238	22.8824
12.4936	23.1733
12.4635	23.6838
12.4337	24.0795
12.4039	24.3562
12.3743	24.283
12.3448	23.9723
12.3155	23.8508
12.2863	24.0127
12.2573	24.4037
12.2284	25.0359
12.1996	25.6348
12.171	26.021
12.1425	26.0545
12.1141	26.0328
12.0859	25.8797
12.0578	25.6155
12.0298	25.311
12.0019	24.9071
11.9742	24.0602
11.9466	22.9466
11.9192	21.8187
11.8918	20.3292
11.8646	17.8376
11.8375	14.098
11.8106	9.58078
11.7837	8.02496
11.757	10.7984
11.7304	13.1446
11.7039	13.1389
11.6776	12.1405
11.6513	11.1103
11.6252	10.1948
11.5992	9.31721
11.5733	8.66199
11.5475	8.32377
11.5219	8.13141
11.4963	8.07635
11.4709	8.41799
11.4455	9.20478
11.4203	11.1081
11.3952	14.4768
11.3702	17.4953
11.3454	18.6429
11.3206	19.2118
11.2959	20.7967
11.2714	21.6938
11.2469	19.3966
11.2226	16.5819
11.1983	15.8937
11.1742	16.3732
11.1502	17.2886
11.1263	18.3028
11.1024	19.0383
11.0787	19.5177
11.0551	20.0242
11.0316	20.5599
11.0081	21.1642
10.9848	21.7394
10.9616	22.261
10.9385	22.6588
10.9154	22.8387
10.8925	22.6864
10.8697	22.2739
10.8469	21.6184
10.8243	20.7414
10.8017	19.8677
10.7793	18.9809
10.7569	17.9971
10.7346	17.1625
10.7125	16.5964
10.6904	16.2493
10.6684	16.0959
10.6465	16.1945
10.6247	16.373
10.6029	16.4587
10.5813	16.3065
10.5597	16.1502
10.5383	16.3208
10.5169	16.5501
10.4956	16.9634
10.4744	17.5804
10.4533	18.4154
10.4323	19.0948
10.4113	19.495
10.3904	19.6777
10.3697	19.788
10.349	19.9154
10.3284	19.8818
10.3078	19.7228
10.2874	19.3224
10.267	18.6478
10.2467	17.8594
10.2265	17.1029
10.2064	16.7585
10.1863	16.8836
10.1663	17.0818
10.1464	17.1054
10.1266	16.8665
10.1069	16.3515
10.0872	15.6897
10.0676	15.1039
10.0481	14.8087
10.0287	14.587
10.0093	14.2837
9.99005	14.0743
9.97084	14.004
9.95169	13.9162
9.93263	13.6984
9.91364	13.3228
9.89472	12.9744
9.87587	12.916
9.8571	13.0134
9.83839	13.0849
9.81976	13.2526
9.80119	13.4967
9.78271	13.7134
9.76428	13.8735
9.74592	14.1815
9.72764	14.7568
9.70943	15.5005
9.69128	16.241
9.6732	17.0868
9.65518	17.8608
9.63724	18.3816
9.61935	18.6042
9.60155	18.6527
9.5838	18.6764
9.56611	18.8203
9.5485	19.1935
9.53094	19.5968
9.51345	19.8628
9.49604	19.959
9.47867	19.8532
9.46137	19.7536
9.44414	19.5981
9.42697	19.3045
9.40986	18.8158
9.39281	18.0454
9.37583	17.2502
9.35891	17.196
9.34204	17.5182
9.32524	17.8978
9.3085	18.196
9.29182	18.5489
9.27519	18.5178
9.25863	17.6715
9.24213	16.0052
9.22568	15.3733
9.2093	15.963
9.19297	16.8461
9.17669	17.9861
9.16048	18.6853
9.14433	18.9987
9.12823	19.0539
9.11218	19.0416
9.0962	19.2257
9.08027	19.2501
9.06439	19.1104
9.04858	19.0531
9.03281	18.8986
9.0171	18.7687
9.00145	18.6626
8.98585	18.4228
8.9703	18.2266
8.9548	17.9674
8.93937	17.5631
8.92398	17.3518
8.90865	17.189
8.89337	16.8235
8.87814	16.4218
8.86296	15.9859
8.84784	15.6955
8.83277	15.4276
8.81774	15.1088
8.80277	14.7746
8.78786	14.1671
8.77298	13.4722
8.75816	12.8952
8.7434	12.2656
8.72868	11.5254
8.714	10.9398
8.69938	10.4315
8.68481	9.92778
8.67029	9.35542
8.65581	8.85397
8.64139	8.31569
8.62701	7.70053
8.61268	7.20985
8.5984	6.88624
8.58416	6.81301
8.56997	6.87865
8.55583	6.86519
8.54174	6.81315
8.52769	6.87723
8.51368	6.84524
8.49973	6.67194
8.48582	6.5063
8.47195	6.49708
8.45813	6.67162
8.44436	6.91253
8.43062	7.0578
8.41693	7.18788
8.4033	7.19578
8.3897	7.25714
8.37614	7.52193
8.36264	7.86603
8.34917	8.0829
8.33574	8.27273
8.32236	8.36816
8.30903	8.42308
8.29573	8.56467
8.28248	8.67423
8.26927	8.75875
8.2561	8.83667
8.24298	8.80451
8.2299	8.78654
8.21685	8.76954
8.20385	8.82436
8.19089	8.85996
8.17797	8.76073
8.16509	8.64733
8.15225	8.50877
8.13946	8.46988
8.1267	8.50601
8.11398	8.47118
8.10131	8.20811
8.08867	7.98754
8.07606	7.89525
8.0635	7.83282
8.05099	7.85859
8.0385	8.00738
8.02606	8.04469
8.01366	8.0955
8.00129	8.2325
7.98896	8.34977
7.97667	8.36336
7.96442	8.35187
7.9522	8.23316
7.94002	7.97891
7.92788	7.77334
7.91578	7.61594
7.90371	7.5778
7.89168	7.58317
7.87969	7.55968
7.86773	7.64619
7.85581	7.70483
7.84392	7.66064
7.83207	7.58528
7.82026	7.51793
7.80849	7.47045
7.79674	7.39643
7.78503	7.38309
7.77337	7.46397
7.76173	7.51605
7.75012	7.42455
7.73856	7.40747
7.72703	7.39336
7.71553	7.26448
7.70406	7.19789
7.69263	7.10352
7.68123	6.99367
7.66987	6.97123
7.65855	6.94362
7.64725	6.89299
7.63598	6.82635
7.62475	6.81397
7.61356	6.7795
7.60239	6.78552
7.59126	6.77469
7.58017	6.76026
7.5691	6.80436
7.55806	6.8408
7.54707	6.93227
7.5361	7.04678
7.52516	7.12945
7.51425	7.14414
7.50338	7.12339
7.49253	7.18092
7.48172	7.30573
7.47094	7.42018
7.46019	7.422
7.44947	7.46425
7.43879	7.45776
7.42813	7.47285
7.4175	7.55939
7.4069	7.74098
7.39634	7.93859
7.3858	8.04675
7.37529	8.18032
7.36482	8.28364
7.35437	8.36545
7.34396	8.5655
7.33357	8.71748
7.32321	8.8241
7.31288	8.98665
7.30258	9.18298
7.29231	9.38983
7.28207	9.5834
7.27185	9.78112
7.26167	9.97189
7.25152	10.2127
7.24139	10.4938
7.23129	10.8318
7.22122	11.2901
7.21117	11.7468
7.20116	12.0678
7.19117	12.613
7.18121	13.3285
7.17128	14.0204
7.16137	14.6425
7.1515	15.1945
7.14164	15.6113
7.13182	15.9825
7.12203	16.8344
7.11225	18.1146
7.10251	19.2202
7.0928	20.0913
7.08311	20.737
7.07344	21.2482
7.06381	21.6027
7.0542	21.8906
7.04461	22.042
7.03506	21.9763
7.02552	22.0274
7.01601	22.1058
7.00653	22.2472
6.99708	22.3652
6.98765	22.3653
6.97824	22.3437
6.96886	22.5308
6.95951	22.7521
6.95018	22.5391
6.94087	22.4339
6.9316	22.5
6.92234	22.7463
6.91311	23.0657
6.90391	23.3045
6.89473	23.5768
6.88557	23.9619
6.87644	24.2853
6.86733	24.9202
6.85824	25.1555
6.84918	24.9715
6.84015	25.1962
6.83114	25.6733
6.82215	25.9345
6.81319	26.097
6.80424	26.497
6.79532	27.1187
6.78643	27.589
6.77756	27.8418
6.76871	28.1633
6.75989	28.5938
6.75109	29.2285
6.74231	29.9143
6.73355	30.7617
6.72482	31.7744
6.71611	32.7448
6.70742	33.5493
6.69875	34.0314
6.69011	34.7708
6.68149	35.6314
6.67289	35.9793
6.66431	36.1467
6.65576	36.4896
6.64722	37.4241
6.63871	38.5733
6.63022	38.6004
6.62175	38.4059
6.61331	38.6932
6.60488	39.0407
6.59648	39.6012
6.5881	40.0937
6.57974	40.6614
6.5714	41.2478
6.56308	41.1281
6.55478	41.1426
6.54651	41.1489
6.53825	41.0753
6.53001	41.0863
6.5218	41.2745
6.51361	40.9836
6.50544	40.7634
6.49729	41.0874
6.48915	40.7331
6.48104	39.5396
6.47295	38.1504
6.46488	36.3245
6.45683	34.0606
6.4488	30.8208
6.44079	27.0653
6.4328	23.4898
6.42482	20.6179
6.41687	18.4423
6.40894	16.0192
6.40103	13.7707
6.39314	12.1457
6.38526	10.7763
6.37741	9.45853
6.36957	8.21748
6.36176	7.18689
6.35396	6.29932
6.34618	5.48621
6.33843	4.57951
6.33069	3.852
6.32297	3.34152
6.31527	2.86026
6.30758	2.35037
6.29992	2.03957
6.29227	1.8202
6.28465	1.66822
6.27704	1.60314
6.26945	1.45632
6.26188	1.23289
6.25432	1.08609
6.24679	0.915422
6.23927	0.7987
6.23177	0.733614
6.22429	0.626008
6.21683	0.584211
6.20938	0.573204
6.20195	0.592901
6.19454	0.628601
6.18715	0.547207
6.17978	0.441186
6.17242	0.412505
6.16508	0.390797
6.15776	0.43688
6.15045	0.519392
6.14317	0.597719
6.1359	0.657378
6.12864	0.627938
6.12141	0.564024
6.11419	0.472927
6.10699	0.551907
6.0998	0.576433
6.09263	0.585319
6.08549	0.706416
6.07835	0.724634
6.07123	0.654271
6.06413	0.580525
6.05705	0.62755
6.04998	0.80833
6.04293	0.917206
6.0359	0.899104
6.02888	1.02099
6.02187	1.1511
6.01489	1.16266
6.00792	1.22757
6.00096	1.39995
5.99403	1.5059
5.98711	1.46304
5.9802	1.39893
5.97331	1.39865
5.96644	1.43038
5.95958	1.55666
5.95274	1.69933
5.94591	1.74757
5.9391	1.89462
5.9323	2.00594
5.92552	2.06755
5.91876	2.1746
5.91201	2.18495
5.90528	2.21223
5.89856	2.39445
5.89186	2.49124
5.88517	2.49583
5.8785	2.50406
5.87184	2.50968
5.8652	2.65485
5.85857	2.71022
5.85196	2.66231
5.84536	2.66519
5.83878	2.59644
5.83221	2.53355
5.82566	2.48967
5.81912	2.44916
5.81259	2.41369
5.80608	2.42223
5.79959	2.42213
5.79311	2.33843
5.78665	2.331
5.78019	2.30045
5.77376	2.32634
5.76734	2.37549
5.76093	2.40953
5.75453	2.45249
5.74815	2.48486
5.74179	2.48407
5.73543	2.45058
5.7291	2.52074
5.72277	2.71361
5.71646	2.86134
5.71017	2.99238
5.70389	3.15807
5.69762	3.31863
5.69136	3.47232
5.68513	3.69454
5.6789	3.93434
5.67268	4.13811
5.66648	4.33137
5.6603	4.63961
5.65413	4.93798
5.64797	5.20488
5.64182	5.35255
5.63569	5.33351
5.62957	5.16208
5.62347	4.74863
5.61737	4.19165
5.61129	3.55989
5.60522	2.91933
5.59917	2.27776
5.59313	1.7424
5.5871	1.32352
5.58109	1.14446
5.57509	1.06402
5.5691	0.994068
5.56312	0.91573
5.55716	0.881908
5.55121	0.918452
5.54528	1.19036
5.53935	1.86235
5.53344	2.87315
5.52754	3.99945
5.52166	5.17505
5.51578	6.37143
5.50992	7.52035
5.50407	8.5825
5.49823	9.61826
5.49241	10.6237
5.4866	11.6366
5.4808	12.6349
5.47501	13.493
5.46923	14.4049
5.46347	15.3795
5.45772	16.2943
5.45198	17.2782
5.44625	18.2652
5.44054	19.2685
5.43484	20.2907
5.42914	21.4254
5.42347	22.7011
5.4178	23.6602
5.41214	24.4844
5.4065	25.4215
5.40087	26.4119
5.39525	27.3914
5.38964	28.3462
5.38404	29.313
5.37846	30.2048
5.37288	31.0789
5.36732	31.9828
5.36177	32.8322
5.35623	33.7339
5.35071	34.6813
5.34519	35.4417
5.33968	36.1532
5.33419	36.9794
5.32871	37.8447
5.32324	38.6916
5.31778	39.5358
5.31233	40.4015
5.30689	41.1962
5.30147	42.0206
5.29605	42.8262
5.29065	43.4674
5.28525	43.9734
5.27987	44.5345
5.2745	45.1023
5.26914	45.6254
5.26379	46.135
5.25845	46.7557
5.25312	47.2975
5.24781	47.8828
5.2425	48.4468
5.23721	48.8929
5.23192	49.3155
5.22665	49.7307
5.22138	50.1397
5.21613	50.667
5.21089	51.1197
5.20566	51.4745
5.20044	51.9841
5.19522	52.4244
5.19002	52.8112
5.18483	53.2062
5.17965	53.5031
5.17448	53.6785
5.16933	53.8561
5.16418	54.2316
5.15904	54.6648
5.15391	54.9999
5.14879	55.35
5.14368	55.5567
5.13859	55.6668
5.1335	55.7599
5.12842	55.601
5.12335	55.0489
5.1183	53.7718
5.11325	50.6738
5.10821	45.5988
5.10318	40.393
5.09817	38.8564
5.09316	43.6697
5.08816	50.1617
5.08317	54.5991
5.07819	57.1263
5.07322	58.4739
5.06826	59.2047
5.06331	59.6378
5.05837	59.84
5.05344	59.96
5.04852	60.0718
5.04361	60.1603
5.03871	60.1644
5.03382	60.0945
5.02894	59.9993
5.02406	59.9831
5.0192	59.9471
5.01435	59.8884
5.0095	59.7507
5.00467	59.6762
4.99984	59.6218
4.99502	59.5061
4.99021	59.3467
4.98542	59.2615
4.98063	59.1759
4.97585	59.0024
4.97108	58.8045
4.96632	58.6422
4.96156	58.5081
4.95682	58.3622
4.95209	58.1829
4.94736	58.0947
4.94264	58.0772
4.93794	58.0475
4.93324	57.9696
4.92855	57.9392
4.92387	57.9315
4.9192	57.9907
4.91453	58.1213
4.90988	58.2642
4.90524	58.3251
4.9006	58.372
4.89597	58.4501
4.89135	58.5308
4.88674	58.5921
4.88214	58.6672
4.87755	58.7829
4.87296	58.8658
4.86839	58.8593
4.86382	58.9554
4.85926	59.0872
4.85471	59.1304
4.85017	59.149
4.84564	59.2459
4.84111	59.3251
4.8366	59.4311
4.83209	59.5212
4.82759	59.5212
4.8231	59.5522
4.81862	59.6408
4.81415	59.618
4.80968	59.5404
4.80522	59.44
4.80077	59.4428
4.79633	59.4291
4.7919	59.3906
4.78747	59.3116
4.78306	59.0916
4.77865	58.7329
4.77425	58.2637
4.76986	57.6066
4.76547	56.7607
4.7611	55.8448
4.75673	54.9467
4.75237	54.0371
4.74802	53.0102
4.74367	51.7709
4.73934	50.4288
4.73501	48.9785
4.73069	47.3387
4.72638	45.2783
4.72207	42.6288
4.71777	39.5915
4.71348	36.4799
4.7092	33.4861
4.70493	30.8053
4.70066	28.5898
4.69641	26.8187
4.69216	25.4595
4.68791	24.427
4.68368	23.6426
4.67945	23.0687
4.67523	22.7099
4.67102	22.628
4.66682	22.74
4.66262	23.0684
4.65843	23.6519
4.65425	24.6308
4.65007	26.1052
4.64591	27.8603
4.64175	29.7794
4.6376	31.8725
4.63345	33.8501
4.62932	35.5287
4.62519	36.9693
4.62106	38.3882
4.61695	39.7723
4.61284	40.8788
4.60874	41.606
4.60465	42.0545
4.60056	42.2985
4.59648	42.6843
4.59241	43.0984
4.58835	43.3237
4.58429	43.4599
4.58024	43.57
4.5762	43.7332
4.57216	43.853
4.56814	43.8863
4.56411	43.9481
4.5601	44.0261
4.55609	44.0589
4.55209	44.0815
4.5481	44.1409
4.54411	44.1488
4.54013	44.1593
4.53616	44.1483
4.5322	44.1202
4.52824	44.1375
4.52429	44.234
4.52034	44.3483
4.51641	44.4486
4.51247	44.4608
4.50855	44.6251
4.50463	44.9278
4.50072	45.2445
4.49682	45.6773
4.49292	46.1263
4.48903	46.6315
4.48515	47.3382
4.48127	48.2314
4.4774	49.1907
4.47354	50.0245
4.46968	50.7583
4.46584	51.4805
4.46199	52.1232
4.45815	52.6341
4.45432	53.087
4.4505	53.609
4.44668	54.2921
4.44287	55.0439
4.43907	55.8473
4.43527	56.6511
4.43148	57.2975
4.4277	57.8151
4.42392	58.2322
4.42015	58.6014
4.41638	58.9474
4.41262	59.3208
4.40887	59.6646
4.40513	59.8319
4.40139	60.0187
4.39765	60.2068
4.39393	60.4396
4.39021	60.7442
4.38649	60.9411
4.38278	61.0478
4.37908	61.0875
4.37539	60.9659
4.3717	60.686
4.36801	60.1698
4.36434	59.5214
4.36067	58.7673
4.357	57.9237
4.35335	57.0703
4.34969	56.4533
4.34605	56.1327
4.34241	55.9835
4.33877	55.7934
4.33514	55.6549
4.33152	55.5464
4.32791	55.5051
4.3243	55.511
4.32069	55.477
4.3171	55.3129
4.31351	55.2313
4.30992	55.3509
4.30634	55.6242
4.30277	56.0412
4.2992	56.4622
4.29564	56.694
4.29208	56.7304
4.28853	56.7778
4.28499	56.8022
4.28145	56.7545
4.27792	56.7419
4.27439	56.6447
4.27087	56.4176
4.26735	56.1208
4.26384	55.8231
4.26034	55.5679
4.25684	55.3221
4.25335	55.1597
4.24986	55.0047
4.24638	54.7161
4.24291	54.4088
4.23944	54.0887
4.23598	53.7323
4.23252	53.4377
4.22906	53.248
4.22562	53.0098
4.22218	52.7319
4.21874	52.5875
4.21531	52.4273
4.21189	52.26
4.20847	52.0231
4.20506	51.7652
4.20165	51.5118
4.19825	51.1739
4.19485	50.7024
4.19146	50.2849
4.18807	49.8828
4.18469	49.4565
4.18132	49.0042
4.17795	48.6231
4.17458	48.2389
4.17123	47.8089
4.16787	47.3433
4.16453	46.8696
4.16118	46.3824
4.15785	45.8523
4.15451	45.2527
4.15119	44.6186
4.14787	43.9958
4.14455	43.3133
4.14124	42.5638
4.13794	41.7656
4.13464	40.9602
4.13134	40.2787
4.12805	39.4824
4.12477	38.5534
4.12149	37.6723
4.11822	36.8874
4.11495	36.1693
4.11168	35.3306
4.10843	34.4896
4.10517	33.7228
4.10192	33.0121
4.09868	32.2722
4.09545	31.4488
4.09221	30.5925
4.08899	29.8129
4.08576	29.0295
4.08255	28.1371
4.07933	27.1838
4.07613	26.1562
4.07292	25.072
4.06973	24.0438
4.06654	23.0393
4.06335	21.9638
4.06017	21.0262
4.05699	20.0599
4.05382	18.867
4.05065	17.3709
4.04749	15.6008
4.04433	13.7543
4.04118	12.0344
4.03803	10.5179
4.03489	9.28367
4.03175	8.33483
4.02862	7.40785
4.02549	6.57149
4.02237	5.90364
4.01925	5.32008
4.01614	4.85579
4.01303	4.40367
4.00993	3.83158
4.00683	3.30538
4.00373	2.97305
4.00064	2.71146
3.99756	2.57137
3.99448	2.45504
3.9914	2.28196
3.98833	2.15848
3.98527	2.1606
3.98221	2.0284
3.97915	1.8555
3.9761	1.97608
3.97305	2.09563
3.97001	2.05228
3.96697	2.03109
3.96394	2.06809
3.96091	2.22025
3.95789	2.35924
3.95487	2.40869
3.95186	2.54417
3.94885	2.74536
3.94584	2.9937
3.94284	3.33947
3.93984	3.65285
3.93685	3.92461
3.93386	4.1008
3.93088	4.18781
3.9279	4.29545
3.92493	4.41764
3.92196	4.53337
3.919	4.67693
3.91604	4.75059
3.91308	4.79384
3.91013	4.92707
3.90718	5.01035
3.90424	5.02642
3.9013	5.05145
3.89837	5.08276
3.89544	5.14957
3.89252	5.26154
3.8896	5.31359
3.88668	5.31175
3.88377	5.31966
3.88086	5.3404
3.87796	5.40587
3.87506	5.50958
3.87217	5.4965
3.86928	5.45697
3.86639	5.53665
3.86351	5.63843
3.86064	5.66201
3.85776	5.71233
3.8549	5.78377
3.85203	5.87162
3.84917	5.90614
3.84631	6.05237
3.84346	6.19972
3.84062	6.32478
3.83777	6.71098
3.83494	7.15264
3.8321	7.6766
3.82927	8.39526
3.82644	9.17899
3.82362	10.0304
3.82081	10.7911
3.81799	11.6137
3.81518	12.6687
3.81238	13.8417
3.80958	15.1884
3.80678	16.6775
3.80399	18.4207
3.8012	20.606
3.79841	23.1916
3.79563	26.0366
3.79286	29.0526
3.79008	31.9111
3.78731	34.3278
3.78455	36.2804
3.78179	37.8737
3.77903	39.1793
3.77628	40.3151
3.77353	41.3759
3.77079	42.3758
3.76805	43.2243
3.76531	43.9692
3.76258	44.672
3.75985	45.2782
3.75713	45.679
3.7544	45.9708
3.75169	46.323
3.74898	46.7032
3.74627	47.1582
3.74356	47.691
3.74086	48.3002
3.73816	49.0133
3.73547	49.6787
3.73278	50.2005
3.7301	50.7465
3.72741	51.2113
3.72474	51.5885
3.72206	51.9054
3.71939	52.2413
3.71673	52.5
3.71406	52.7639
3.71141	52.9438
3.70875	53.1484
3.7061	53.4163
3.70345	53.5756
3.70081	53.6207
3.69817	53.7114
3.69553	53.8748
3.6929	54.0317
3.69027	54.0917
3.68765	54.1066
3.68503	54.1911
3.68241	54.1748
3.6798	54.1227
3.67719	54.1184
3.67458	54.0087
3.67198	53.9857
3.66938	53.9316
3.66678	53.7593
3.66419	53.5815
3.66161	53.4608
3.65902	53.3562
3.65644	53.1403
3.65387	52.9369
3.65129	52.6234
3.64872	52.3548
3.64616	52.2622
3.64359	52.047
3.64103	51.7709
3.63848	51.5179
3.63593	51.2268
3.63338	50.9078
3.63084	50.7185
3.6283	50.4421
3.62576	50.1488
3.62322	49.8038
3.62069	49.3232
3.61817	48.9135
3.61564	48.5266
3.61312	48.1241
3.61061	47.6905
3.6081	47.1526
3.60559	46.5018
3.60308	45.7521
3.60058	44.927
3.59808	44.0623
3.59558	43.2139
3.59309	42.2827
3.59061	41.1197
3.58812	39.8121
3.58564	38.4045
3.58316	36.8306
3.58069	35.1569
3.57822	33.4643
3.57575	31.9925
3.57328	31.0493
3.57082	30.6883
3.56836	30.7084
3.56591	30.9687
3.56346	31.1083
3.56101	30.9089
3.55857	30.5376
3.55613	29.9086
3.55369	29.1351
3.55126	28.2598
3.54883	27.3
3.5464	26.1874
3.54397	24.8734
3.54155	23.5068
3.53914	21.994
3.53672	20.3785
3.53431	18.6494
3.5319	16.8275
3.5295	14.8427
3.5271	12.8068
3.5247	10.9991
3.52231	9.39718
3.51991	8.05843
3.51753	7.16567
3.51514	6.50865
3.51276	5.95163
3.51038	5.6085
3.50801	5.34593
3.50563	5.15175
3.50327	4.89235
3.5009	4.66996
3.49854	4.48249
3.49618	4.28733
3.49382	4.13577
3.49147	3.90563
3.48912	3.74474
3.48677	3.61937
3.48443	3.47788
3.48209	3.38275
3.47975	3.36154
3.47742	3.41649
3.47509	3.41048
3.47276	3.5214
3.47044	3.83314
3.46812	4.30111
3.4658	4.97282
3.46348	5.67617
3.46117	6.15492
3.45886	6.42965
3.45656	6.62481
3.45425	6.82532
3.45195	6.97261
3.44966	7.03812
3.44736	7.13076
3.44507	7.18408
3.44279	7.23187
3.4405	7.26305
3.43822	7.22906
3.43594	7.21923
3.43367	7.31556
3.43139	7.38648
3.42912	7.45266
3.42686	7.43977
3.42459	7.40279
3.42233	7.38985
3.42007	7.36274
3.41782	7.25286
3.41557	7.22899
3.41332	7.22211
3.41108	7.3132
3.40883	7.29325
3.40659	7.11911
3.40435	7.095
3.40212	7.07473
3.39989	6.87838
3.39766	6.83464
3.39544	6.80601
3.39322	6.79998
3.391	6.84311
3.38878	6.76201
3.38657	6.59761
3.38436	6.45933
3.38215	6.37018
3.37994	6.26835
3.37774	6.22138
3.37554	6.23852
3.37335	6.31082
3.37115	6.22268
3.36896	6.08798
3.36678	6.05838
3.36459	5.96986
3.36241	5.68344
3.36023	5.34998
3.35805	5.02719
3.35588	4.86889
3.35371	4.7538
3.35154	4.59742
3.34938	4.76737
3.34721	5.11245
3.34505	5.74185
3.3429	7.12389
3.34074	9.22222
3.33859	11.8373
3.33644	14.5481
3.3343	17.1482
3.33215	19.4494
3.33001	21.4241
3.32788	23.193
3.32574	24.81
3.32361	26.3311
3.32148	27.5942
3.31936	28.6972
3.31723	29.7111
3.31511	30.7123
3.31299	31.7941
3.31088	32.7605
3.30876	33.5126
3.30665	34.2876
3.30455	35.0565
3.30244	35.7671
3.30034	36.4341
3.29824	37.1503
3.29614	37.7901
3.29405	38.4539
3.29196	39.1045
3.28987	39.6858
3.28778	40.2246
3.2857	40.8489
3.28362	41.4639
3.28154	42.1021
3.27946	42.744
3.27739	43.3431
3.27532	43.8481
3.27325	44.4759
3.27119	44.9764
3.26913	45.3315
3.26707	45.7202
3.26501	46.1737
3.26295	46.6705
3.2609	47.1165
3.25885	47.5548
3.2568	48.0199
3.25476	48.4058
3.25272	48.7563
3.25068	49.1619
3.24864	49.542
3.24661	49.8866
3.24458	50.1708
3.24255	50.3927
3.24052	50.6151
3.2385	50.9234
3.23648	51.39
3.23446	51.8353
3.23244	52.1553
3.23043	52.5066
3.22841	52.9239
3.2264	53.2845
3.2244	53.6046
3.22239	53.8831
3.22039	54.1655
3.21839	54.505
3.2164	54.8629
3.2144	55.1829
3.21241	55.4105
3.21042	55.7514
3.20844	55.9771
3.20645	56.2074
3.20447	56.4829
3.20249	56.72
3.20051	56.9707
3.19854	57.2007
3.19657	57.3562
3.1946	57.4719
3.19263	57.6143
3.19067	57.7052
3.1887	57.8568
3.18674	58.0033
3.18479	57.9079
3.18283	57.7708
3.18088	57.7975
3.17893	57.7564
3.17698	57.5973
3.17504	57.3027
3.17309	56.8606
3.17115	56.4476
3.16921	55.8796
3.16728	55.1446
3.16534	54.2702
3.16341	53.289
3.16148	52.2231
3.15956	51.2443
3.15763	50.491
3.15571	49.9742
3.15379	49.5891
3.15187	49.3413
3.14996	49.3689
3.14805	49.5634
3.14614	49.9197
3.14423	50.3263
3.14232	50.7662
3.14042	51.1526
3.13852	51.5677
3.13662	51.9846
3.13472	52.3894
3.13283	52.6462
3.13094	52.8436
3.12905	53.0574
3.12716	53.1545
3.12528	52.9702
3.12339	52.5054
3.12151	51.8375
3.11964	51.0057
3.11776	50.2032
3.11589	49.4551
3.11401	48.8013
3.11214	48.2969
3.11028	48.0383
3.10841	48.0295
3.10655	48.2193
3.10469	48.6307
3.10283	49.244
3.10098	49.9757
3.09912	50.6439
3.09727	51.2865
3.09542	52.003
3.09358	52.7095
3.09173	53.4176
3.08989	54.2602
3.08805	55.1096
3.08621	55.8306
3.08437	56.5926
3.08254	57.4108
3.08071	58.0713
3.07888	58.6196
3.07705	59.1367
3.07523	59.5151
3.0734	59.8688
3.07158	60.2118
3.06977	60.4264
3.06795	60.63
3.06613	60.9885
3.06432	61.384
3.06251	61.6503
3.0607	61.9695
3.0589	62.3812
3.0571	62.8666
3.05529	63.3296
3.05349	63.7375
3.0517	64.0939
3.0499	64.5136
3.04811	64.8498
3.04632	65.1487
3.04453	65.4894
3.04274	65.8194
3.04096	66.286
3.03918	66.6217
3.0374	66.7995
3.03562	67.1348
3.03384	67.5455
3.03207	67.851
3.03029	68.112
3.02852	68.4066
3.02676	68.6954
3.02499	69.0529
3.02323	69.3591
3.02146	69.5535
3.0197	69.7841
3.01795	69.9512
3.01619	70.2711
3.01444	70.6055
3.01269	70.9151
3.01094	71.1607
3.00919	71.4327
3.00744	71.6877
3.0057	71.9069
3.00396	72.0877
3.00222	72.2386
3.00048	72.4214
2.99875	72.6403
2.99701	72.8992
2.99528	73.1029
2.99355	73.257
2.99183	73.3926
2.9901	73.4242
2.98838	73.5524
2.98666	73.7174
2.98494	73.8336
2.98322	73.941
2.9815	74.004
2.97979	74.1378
2.97808	74.23
2.97637	74.1823
2.97466	74.208
2.97295	74.31
2.97125	74.3034
2.96955	74.2231
2.96785	74.254
2.96615	74.2557
2.96446	74.1577
2.96276	74.1156
2.96107	74.2384
2.95938	74.3373
2.95769	74.3695
2.95601	74.4406
2.95432	74.4887
2.95264	74.4031
2.95096	74.2888
2.94928	74.3082
2.9476	74.469
2.94593	74.6272
2.94425	74.7375
2.94258	74.7218
2.94092	74.7039
2.93925	74.7927
2.93758	75.0347
2.93592	75.1422
2.93426	75.1598
2.9326	75.2869
2.93094	75.3607
2.92928	75.3042
2.92763	75.3295
2.92598	75.4259
2.92433	75.4632
2.92268	75.4797
2.92103	75.5352
2.91939	75.5258
2.91775	75.5242
2.9161	75.6101
2.91447	75.6283
2.91283	75.6045
2.91119	75.6213
2.90956	75.7088
2.90793	75.7464
2.9063	75.686
2.90467	75.7365
2.90304	75.8059
2.90142	75.775
2.89979	75.8072
2.89817	75.8654
2.89656	75.828
2.89494	75.7849
2.89332	75.9141
2.89171	75.8925
2.8901	75.8654
2.88849	75.984
2.88688	75.9262
2.88527	75.8694
2.88367	75.8072
2.88206	75.8373
2.88046	75.9564
2.87886	75.9568
2.87727	75.8133
2.87567	75.7817
2.87408	75.7522
2.87248	75.7523
2.87089	75.8115
2.8693	75.7772
2.86772	75.7738
2.86613	75.7322
2.86455	75.6667
2.86297	75.667
2.86139	75.5577
2.85981	75.4407
2.85823	75.248
2.85666	75.1223
2.85508	75.1447
2.85351	74.9882
2.85194	74.9198
2.85038	74.9532
2.84881	74.8439
2.84724	74.4431
2.84568	74.1045
2.84412	73.9702
2.84256	73.8266
2.841	73.5402
2.83945	73.2047
2.83789	72.944
2.83634	72.5889
2.83479	72.1524
2.83324	71.6959
2.83169	71.1022
2.83015	70.4149
2.82861	69.8627
2.82706	69.3942
2.82552	68.785
2.82398	68.1363
2.82245	67.5884
2.82091	67.1187
2.81938	66.606
2.81784	65.9424
2.81631	65.1368
2.81479	64.4117
2.81326	63.5473
2.81173	62.6886
2.81021	61.9337
2.80869	61.2234
2.80716	60.415
2.80565	59.5194
2.80413	58.7619
2.80261	57.9158
2.8011	56.7864
2.79959	55.5844
2.79808	54.3551
2.79657	52.8153
2.79506	51.0909
2.79355	49.6423
2.79205	48.403
2.79055	47.414
2.78904	46.992
2.78754	47.1283
2.78605	47.4079
2.78455	47.9781
2.78306	49.1394
2.78156	50.469
2.78007	51.7465
2.77858	53.1113
2.77709	54.5722
2.77561	55.84
2.77412	57.2188
2.77264	58.7556
2.77116	60.2855
2.76968	61.534
2.7682	62.8128
2.76672	64.1254
2.76524	65.2221
2.76377	66.397
2.7623	67.2787
2.76083	67.6921
2.75936	68.275
2.75789	68.8729
2.75642	69.6078
2.75496	69.9207
2.7535	69.4454
2.75203	69.4667
2.75057	69.706
2.74912	70.0176
2.74766	70.2988
2.7462	70.5919
2.74475	70.8716
2.7433	71.1469
2.74185	71.7423
2.7404	72.4376
2.73895	72.5207
2.7375	72.096
2.73606	72.2012
2.73462	72.5727
2.73318	72.5919
2.73174	72.7712
2.7303	72.9063
2.72886	73.1255
2.72742	73.5677
2.72599	74.3262
2.72456	75.088
2.72313	75.1032
2.7217	75.659
2.72027	76.3945
2.71884	76.1101
2.71742	76.1395
2.71599	76.3557
2.71457	76.7445
2.71315	77.333
2.71173	78.5111
2.71032	79.2403
2.7089	79.3427
2.70748	79.4351
2.70607	79.7723
2.70466	80.4296
2.70325	81.0383
2.70184	81.6491
2.70043	82.0942
2.69903	82.488
2.69762	83.0004
2.69622	83.7361
2.69482	84.625
2.69342	84.9957
2.69202	84.8147
2.69062	85.0285
2.68923	85.4495
2.68783	85.8421
2.68644	86.1757
2.68505	86.3486
2.68366	86.5127
2.68227	86.3667
2.68089	86.4876
2.6795	87.2925
2.67812	87.6586
2.67673	88.0013
2.67535	87.7411
2.67397	87.3594
2.6726	87.5666
2.67122	88.7576
2.66984	88.9698
2.66847	88.384
2.6671	88.9108
2.66572	89.1428
2.66435	88.7483
2.66299	88.0242
2.66162	88.0513
2.66025	88.2845
2.65889	88.2543
2.65753	87.9507
2.65616	88.1847
2.65481	88.2915
2.65345	88.4017
2.65209	88.5872
2.65073	88.4148
2.64938	88.1846
2.64803	88.1999
2.64667	88.4634
2.64532	88.5722
2.64397	88.3153
2.64263	88.247
2.64128	88.1319
2.63994	88.1094
2.63859	88.1089
2.63725	88.2164
2.63591	88.2014
2.63457	88.2612
2.63323	88.2353
2.6319	88.5431
2.63056	88.9968
2.62923	88.3737
2.62789	88.1736
2.62656	88.5143
2.62523	88.0368
2.6239	87.6034
2.62258	87.5708
2.62125	88.2126
2.61993	88.3193
2.6186	87.8674
2.61728	88.1156
2.61596	87.6962
2.61464	87.1568
2.61332	87.2162
2.61201	87.0354
2.61069	87.0241
2.60938	86.968
2.60807	86.9733
2.60675	87.2921
2.60544	87.4128
2.60414	86.6912
2.60283	86.1708
2.60152	85.7367
2.60022	85.2721
2.59891	85.0676
2.59761	85.1375
2.59631	85.7792
2.59501	86.5225
2.59371	85.2526
2.59242	83.7212
2.59112	83.0743
2.58983	82.8962
2.58853	82.7056
2.58724	82.3119
2.58595	81.6953
2.58466	81.6668
2.58338	81.3064
2.58209	80.5837
2.5808	80.3271
2.57952	79.9255
2.57824	79.7309
2.57695	79.5958
2.57567	79.1547
2.5744	79.0716
2.57312	78.7698
2.57184	77.8504
2.57057	77.4914
2.56929	76.9448
2.56802	75.8674
2.56675	74.9676
2.56548	74.3085
2.56421	73.5621
2.56294	72.5838
2.56168	71.411
2.56041	69.8333
2.55915	68.1172
2.55789	66.4527
2.55662	64.882
2.55536	63.4181
2.5541	61.9039
2.55285	60.3926
2.55159	58.7329
2.55034	56.9771
2.54908	55.4011
2.54783	53.9475
2.54658	52.4947
2.54533	51.1776
2.54408	49.9264
2.54283	48.813
2.54159	47.8654
2.54034	47.157
2.5391	46.7766
2.53785	46.5154
2.53661	46.5344
2.53537	46.5894
2.53413	46.7346
2.53289	47.2216
2.53166	47.711
2.53042	48.2683
2.52919	48.9498
2.52795	49.6261
2.52672	50.4748
2.52549	51.2557
2.52426	51.9891
2.52303	52.8183
2.52181	53.5225
2.52058	54.1728
2.51936	54.7652
2.51813	55.2311
2.51691	55.6798
2.51569	56.1247
2.51447	56.5592
2.51325	56.913
2.51203	57.1787
2.51082	57.3472
2.5096	57.5348
2.50839	57.7423
2.50717	57.8803
2.50596	57.9319
2.50475	58.0121
2.50354	58.2748
2.50233	58.4083
2.50113	58.4883
2.49992	58.7521
2.49872	58.9333
2.49751	58.9593
2.49631	59.149
2.49511	59.3306
2.49391	59.4219
2.49271	59.5953
2.49151	59.7444
2.49031	59.839
2.48912	60.1378
2.48792	60.4963
2.48673	60.8203
2.48554	61.1594
2.48435	61.5127
2.48316	61.9711
2.48197	62.461
2.48078	62.8892
2.4796	63.4073
2.47841	63.9224
2.47723	64.4944
2.47604	65.1284
2.47486	65.66
2.47368	66.172
2.4725	66.8398
2.47132	67.6481
2.47014	68.4411
2.46897	69.0712
2.46779	69.669
2.46662	70.3653
2.46545	71.0547
2.46427	71.7082
2.4631	72.3844
2.46193	72.9976
2.46077	73.4929
2.4596	73.9271
2.45843	74.3952
2.45727	74.8761
2.4561	75.4994
2.45494	76.094
2.45378	76.5171
2.45262	76.924
2.45146	77.2662
2.4503	77.6192
2.44914	78.0355
2.44799	78.3273
2.44683	78.5128
2.44568	78.8958
2.44452	79.347
2.44337	79.6545
2.44222	79.9426
2.44107	80.2935
2.43992	80.612
2.43877	80.8266
2.43763	81.1211
2.43648	81.476
2.43534	81.8655
2.43419	82.1303
2.43305	82.2437
2.43191	82.4307
2.43077	82.7507
2.42963	83.0515
2.42849	83.2724
2.42736	83.559
2.42622	83.8939
2.42509	84.1021
2.42395	84.343
2.42282	84.5774
2.42169	84.6604
2.42056	84.7518
2.41943	85.0239
2.4183	85.2504
2.41717	85.3196
2.41605	85.4511
2.41492	85.5858
2.4138	85.7486
2.41267	85.8887
2.41155	85.8564
2.41043	85.892
2.40931	85.9849
2.40819	85.9728
2.40707	85.8097
2.40595	85.7287
2.40484	85.6467
2.40372	85.5541
2.40261	85.4893
2.4015	85.4781
2.40039	85.5751
2.39928	85.7393
2.39817	85.8664
2.39706	85.9846
2.39595	86.1765
2.39484	86.2761
2.39374	86.2946
2.39263	86.2238
2.39153	86.1539
2.39043	86.2388
2.38932	86.2045
2.38822	86.062
2.38712	86.0007
2.38603	85.9615
2.38493	85.8657
2.38383	85.7228
2.38274	85.6026
2.38164	85.5378
2.38055	85.2351
2.37946	84.8324
2.37836	84.6003
2.37727	84.433
2.37618	84.1707
2.3751	83.794
2.37401	83.381
2.37292	83.0404
2.37184	82.682
2.37075	82.2321
2.36967	81.6932
2.36859	81.1195
2.3675	80.4282
2.36642	79.6891
2.36534	79.003
2.36427	78.224
2.36319	77.2115
2.36211	76.0512
2.36104	75.0773
2.35996	74.0307
2.35889	72.8378
2.35781	71.8053
2.35674	70.818
2.35567	69.691
2.3546	68.6153
2.35353	67.7504
2.35247	66.8337
2.3514	65.9287
2.35033	65.1438
2.34927	64.4092
2.3482	63.8381
2.34714	63.4109
2.34608	62.9859
2.34502	62.4866
2.34396	62.1886
2.3429	61.9368
2.34184	61.7254
2.34078	61.5796
2.33973	61.4198
2.33867	61.4907
2.33762	61.6579
2.33656	61.7324
2.33551	61.8497
2.33446	62.13
2.33341	62.6707
2.33236	63.2139
2.33131	63.5847
2.33026	63.9632
2.32922	64.4373
2.32817	64.9679
2.32712	65.5143
2.32608	66.0271
2.32504	66.4323
2.324	66.7546
2.32295	67.178
2.32191	67.5862
2.32087	68.0213
2.31984	68.3582
2.3188	68.6016
2.31776	68.9789
2.31673	69.2083
2.31569	69.3999
2.31466	69.6728
2.31362	69.844
2.31259	69.9629
2.31156	70.1254
2.31053	70.2969
2.3095	70.4184
2.30847	70.6284
2.30745	70.7464
2.30642	70.7073
2.3054	70.8502
2.30437	70.9727
2.30335	71.1284
2.30232	71.4057
2.3013	71.6355
2.30028	71.6977
2.29926	71.7929
2.29824	72.0483
2.29722	72.2447
2.29621	72.3453
2.29519	72.5591
2.29417	72.7984
2.29316	72.9965
2.29215	73.1748
2.29113	73.2807
2.29012	73.6019
2.28911	73.9748
2.2881	74.3219
2.28709	74.6106
2.28608	74.9161
2.28507	75.2411
2.28407	75.5667
2.28306	75.9309
2.28206	76.1948
2.28105	76.5639
2.28005	76.9883
2.27905	77.4097
2.27805	77.8228
2.27705	78.0939
2.27605	78.4942
2.27505	78.9355
2.27405	79.2981
2.27305	79.5729
2.27206	79.9068
2.27106	80.1664
2.27007	80.4463
2.26907	80.7653
2.26808	81.0931
2.26709	81.2974
2.2661	81.5
2.26511	81.7658
2.26412	82.0119
2.26313	82.215
2.26214	82.4251
2.26116	82.6515
2.26017	82.9158
2.25919	83.1701
2.2582	83.3756
2.25722	83.5446
2.25624	83.8033
2.25526	84.0369
2.25428	84.1506
2.2533	84.3031
2.25232	84.4871
2.25134	84.7078
2.25036	84.9038
2.24939	84.9091
2.24841	85.003
2.24744	85.1608
2.24646	85.3978
2.24549	85.6372
2.24452	85.7729
2.24355	85.8982
2.24257	86.1482
2.24161	86.1612
2.24064	86.2362
2.23967	86.5224
2.2387	86.6582
2.23774	86.5725
2.23677	86.6902
2.23581	86.8194
2.23484	86.9795
2.23388	87.1642
2.23292	87.1925
2.23196	87.3428
2.231	87.4453
2.23004	87.5245
2.22908	87.6704
2.22812	87.7976
2.22716	87.8306
2.22621	87.7897
2.22525	87.8873
2.2243	88.1632
2.22334	88.3606
2.22239	88.4208
2.22144	88.4628
2.22049	88.3689
2.21953	88.3019
2.21859	88.4015
2.21764	88.6081
2.21669	88.8334
2.21574	88.8234
2.21479	88.7297
2.21385	88.8207
2.2129	88.9434
2.21196	88.9487
2.21102	89.0023
2.21007	89.0318
2.20913	89.1917
2.20819	89.306
2.20725	89.2509
2.20631	89.2486
2.20537	89.2087
2.20444	89.3243
2.2035	89.4706
2.20256	89.4406
2.20163	89.3691
2.20069	89.3803
2.19976	89.4088
2.19883	89.5162
2.19789	89.5999
2.19696	89.6881
2.19603	89.7582
2.1951	89.6094
2.19417	89.5385
2.19325	89.6972
2.19232	89.6972
2.19139	89.6571
2.19047	89.6838
2.18954	89.6895
2.18862	89.6452
2.18769	89.636
2.18677	89.722
2.18585	89.7225
2.18493	89.59
2.18401	89.5921
2.18309	89.6752
2.18217	89.6019
2.18125	89.5365
2.18033	89.5229
2.17942	89.4414
2.1785	89.3716
2.17759	89.3515
2.17667	89.3733
2.17576	89.2586
2.17485	89.1864
2.17393	89.0605
2.17302	89.0302
2.17211	88.943
2.1712	88.7452
2.17029	88.7357
2.16939	88.7557
2.16848	88.6888
2.16757	88.6353
2.16667	88.5746
2.16576	88.4067
2.16486	88.2299
2.16395	88.3169
2.16305	88.2842
2.16215	88.0907
2.16125	88.1256
2.16035	88.2617
2.15945	88.3023
2.15855	88.2006
2.15765	88.1087
2.15675	88.084
2.15586	88.084
2.15496	88.2171
2.15406	88.3124
2.15317	88.2885
2.15228	88.3862
2.15138	88.3934
2.15049	88.3516
2.1496	88.449
2.14871	88.5367
2.14782	88.5225
2.14693	88.5455
2.14604	88.5869
2.14515	88.7667
2.14427	89.0198
2.14338	89.1137
2.14249	89.1263
2.14161	89.2896
2.14072	89.4989
2.13984	89.6832
2.13896	89.7502
2.13808	89.7529
2.13719	89.7062
2.13631	89.8165
2.13543	90.0865
2.13455	90.1798
2.13368	90.1146
2.1328	90.0649
2.13192	90.1464
2.13105	90.1876
2.13017	90.1892
2.1293	90.1865
2.12842	90.1449
2.12755	90.1401
2.12668	90.2462
2.1258	90.1938
2.12493	90.2594
2.12406	90.3699
2.12319	90.384
2.12232	90.4156
2.12145	90.5273
2.12059	90.4829
2.11972	90.2808
2.11885	90.1455
2.11799	90.1611
2.11712	90.4648
2.11626	90.5441
2.1154	90.4092
2.11453	90.5768
2.11367	90.744
2.11281	90.7759
2.11195	90.7462
2.11109	90.8181
2.11023	90.7391
2.10937	90.6796
2.10851	90.8284
2.10766	90.9487
2.1068	90.8447
2.10594	90.9545
2.10509	91.066
2.10423	90.8909
2.10338	90.7439
2.10253	90.8767
2.10168	91.0679
2.10082	91.0371
2.09997	90.9591
2.09912	90.9785
2.09827	91.0771
2.09742	91.0418
2.09658	91.006
2.09573	90.9259
2.09488	90.9349
2.09404	90.9657
2.09319	90.9895
2.09235	91.2111
2.0915	91.3729
2.09066	91.3296
2.08982	91.3639
2.08897	91.3399
2.08813	90.9791
2.08729	90.8147
2.08645	90.9484
2.08561	90.977
2.08477	91.071
2.08394	91.2427
2.0831	91.1981
2.08226	91.1434
2.08143	91.1794
2.08059	91.3879
2.07976	91.3919
2.07892	91.2735
2.07809	91.3271
2.07726	91.3901
2.07643	91.3875
2.07559	91.3597
2.07476	91.2329
2.07393	90.7354
2.0731	90.7942
2.07228	91.1988
2.07145	91.3647
2.07062	91.0912
2.06979	90.8918
2.06897	90.9083
2.06814	91.1139
2.06732	91.2846
2.06649	91.4814
2.06567	91.6012
2.06485	91.3407
2.06403	91.0991
2.0632	91.2872
2.06238	91.4779
2.06156	91.3447
2.06074	91.1799
2.05993	91.1909
2.05911	91.4156
2.05829	91.4342
2.05747	91.4206
2.05666	91.4463
2.05584	91.285
2.05503	91.2671
2.05421	91.2924
2.0534	91.2653
2.05259	91.2734
2.05177	91.2936
2.05096	91.4733
2.05015	91.507
2.04934	91.3097
2.04853	91.367
2.04772	91.2544
2.04691	91.139
2.04611	91.2688
2.0453	91.2511
2.04449	91.2309
2.04369	91.46
2.04288	91.5236
2.04208	91.3081
2.04127	91.1701
2.04047	91.0918
2.03967	91.0153
2.03886	90.9367
2.03806	91.02
2.03726	91.2169
2.03646	91.1846
2.03566	91.2947
2.03486	91.2861
2.03407	91.1762
2.03327	90.99
2.03247	90.9975
2.03167	91.2098
2.03088	91.2214
2.03008	91.0716
2.02929	91.1763
2.0285	91.124
2.0277	90.9398
2.02691	91.0166
2.02612	90.9058
2.02533	90.8053
2.02453	90.6297
2.02374	90.6245
2.02295	90.75
2.02217	90.7726
2.02138	90.7295
2.02059	90.6536
2.0198	90.5799
2.01902	90.5567
2.01823	90.5075
2.01744	90.4889
2.01666	90.6194
2.01588	90.6748
2.01509	90.5669
2.01431	90.3552
2.01353	90.1981
2.01275	90.3698
2.01196	90.3043
2.01118	90.1985
2.0104	90.1263
2.00963	89.9162
2.00885	89.8316
2.00807	89.7667
2.00729	89.7069
2.00651	89.6031
2.00574	89.3054
2.00496	88.9821
2.00419	88.9802
2.00341	88.9275
2.00264	88.7641
2.00187	88.6058
2.00109	88.3741
2.00032	88.2071
