Name: Lepidolite K(Li,Al)3(Si,Al)_4O_10(F,OH)_2
Type: Mineral
Class: Silicates
Subclass: Phyllosilicates
Particle Size: 0-45um
Sample No.: PS-13B
Owner: JPL
Wavelength range: IR
Origin: South Africa
Collected by Ward's
Description:  Lavender lepidolite. 





Measurement: Hemispherical reflectance
First Column: X
Second Column: Y
X Units:  Wavelength (micrometers)
Y Units:  Reflectance (percent)
First X Value: 15.3853
Last X Value: 2.00032
Number of X Values: 2256
Additional information: ps13ba.txt
 
15.3853	1.95228
15.3397	1.88018
15.2945	1.76374
15.2495	1.84403
15.2048	1.95698
15.1603	2.01351
15.1161	2.1935
15.0722	2.63341
15.0285	2.90739
14.9851	2.64576
14.9419	2.53536
14.8989	2.8226
14.8563	2.93665
14.8138	2.76662
14.7716	2.76211
14.7296	2.79959
14.6879	2.80837
14.6464	2.80019
14.6052	2.81251
14.5641	2.88275
14.5233	2.98781
14.4828	3.04676
14.4424	3.09795
14.4023	3.22568
14.3624	3.09239
14.3227	3.04821
14.2833	3.05324
14.244	3.16202
14.205	3.34954
14.1662	3.30615
14.1276	3.19581
14.0892	3.31618
14.051	3.27269
14.0131	3.22071
13.9753	2.99344
13.9377	2.90109
13.9004	3.11877
13.8632	3.17316
13.8262	3.05253
13.7895	3.03604
13.7529	2.92821
13.7165	2.86843
13.6803	2.9
13.6443	2.78735
13.6085	2.6336
13.5729	2.62846
13.5374	2.62709
13.5022	2.71725
13.4671	2.75599
13.4322	2.71787
13.3975	2.72324
13.363	2.71015
13.3286	2.70762
13.2944	2.63397
13.2604	2.59686
13.2266	2.66582
13.193	2.73246
13.1595	2.54624
13.1262	2.37686
13.093	2.26167
13.06	2.34829
13.0272	2.43898
12.9946	2.45043
12.9621	2.56684
12.9298	2.83101
12.8976	2.81656
12.8656	2.67205
12.8337	2.77623
12.8021	2.79815
12.7705	2.72828
12.7391	2.79842
12.7079	2.76777
12.6769	2.77345
12.6459	2.93355
12.6152	3.17004
12.5845	3.31844
12.5541	3.36141
12.5238	3.42013
12.4936	3.5132
12.4635	3.38245
12.4337	3.23629
12.4039	3.4616
12.3743	3.65476
12.3448	3.84575
12.3155	4.11876
12.2863	4.39472
12.2573	4.59605
12.2284	4.8563
12.1996	5.05943
12.171	5.22899
12.1425	5.364
12.1141	5.4609
12.0859	5.51294
12.0578	5.50734
12.0298	5.57049
12.0019	5.62825
11.9742	5.69601
11.9466	5.91325
11.9192	6.29769
11.8918	6.60697
11.8646	6.77982
11.8375	6.91856
11.8106	7.0839
11.7837	7.19095
11.757	7.25421
11.7304	7.23282
11.7039	7.24103
11.6776	7.28747
11.6513	7.2692
11.6252	7.19794
11.5992	7.21718
11.5733	7.12645
11.5475	6.94884
11.5219	6.82099
11.4963	6.76037
11.4709	6.73043
11.4455	6.6476
11.4203	6.58424
11.3952	6.43716
11.3702	6.4112
11.3454	6.48561
11.3206	6.49603
11.2959	6.42972
11.2714	6.47107
11.2469	6.468
11.2226	6.39122
11.1983	6.39424
11.1742	6.36413
11.1502	6.30503
11.1263	6.24735
11.1024	6.03213
11.0787	5.88024
11.0551	5.84902
11.0316	5.8003
11.0081	5.76581
10.9848	5.82644
10.9616	5.88199
10.9385	5.89671
10.9154	5.79201
10.8925	5.64738
10.8697	5.66937
10.8469	5.73537
10.8243	5.69259
10.8017	5.72094
10.7793	5.59463
10.7569	5.4962
10.7346	5.59457
10.7125	5.59537
10.6904	5.5192
10.6684	5.42989
10.6465	5.52366
10.6247	5.71286
10.6029	5.7475
10.5813	5.62729
10.5597	5.77739
10.5383	5.95853
10.5169	5.97035
10.4956	5.98762
10.4744	5.95902
10.4533	5.96474
10.4323	6.02188
10.4113	6.05311
10.3904	6.15009
10.3697	6.22035
10.349	6.16644
10.3284	6.1368
10.3078	6.1623
10.2874	6.17531
10.267	6.26335
10.2467	6.41052
10.2265	6.51374
10.2064	6.55917
10.1863	6.51132
10.1663	6.59665
10.1464	6.78835
10.1266	7.09308
10.1069	7.22148
10.0872	7.30262
10.0676	7.56889
10.0481	7.72946
10.0287	7.74519
10.0093	7.83033
9.99005	8.05459
9.97084	8.1889
9.95169	8.19754
9.93263	8.35595
9.91364	8.52448
9.89472	8.5676
9.87587	8.61668
9.8571	8.75818
9.83839	8.87024
9.81976	8.91833
9.80119	9.03404
9.78271	9.17755
9.76428	9.31561
9.74592	9.42186
9.72764	9.47815
9.70943	9.64824
9.69128	9.88498
9.6732	10.1403
9.65518	10.3329
9.63724	10.5785
9.61935	10.8066
9.60155	10.9623
9.5838	10.9303
9.56611	10.8048
9.5485	10.6386
9.53094	10.3636
9.51345	10.1025
9.49604	9.89152
9.47867	9.50014
9.46137	9.13959
9.44414	8.99376
9.42697	8.99552
9.40986	9.12986
9.39281	9.37589
9.37583	9.48974
9.35891	9.62365
9.34204	9.79689
9.32524	9.96056
9.3085	10.0534
9.29182	10.1619
9.27519	10.216
9.25863	10.0913
9.24213	9.91258
9.22568	10.0085
9.2093	10.1086
9.19297	10.1204
9.17669	10.005
9.16048	9.86762
9.14433	9.73973
9.12823	9.64392
9.11218	9.64813
9.0962	9.66721
9.08027	9.67944
9.06439	9.65255
9.04858	9.60326
9.03281	9.51367
9.0171	9.48835
9.00145	9.57525
8.98585	9.5259
8.9703	9.27838
8.9548	9.18933
8.93937	9.07586
8.92398	9.00255
8.90865	8.93205
8.89337	8.80426
8.87814	8.4902
8.86296	8.3303
8.84784	8.20604
8.83277	7.97264
8.81774	7.88342
8.80277	7.79668
8.78786	7.71777
8.77298	7.70612
8.75816	7.58642
8.7434	7.45584
8.72868	7.26961
8.714	6.98276
8.69938	6.76653
8.68481	6.64178
8.67029	6.49441
8.65581	6.21649
8.64139	6.11315
8.62701	6.18636
8.61268	6.03286
8.5984	5.7512
8.58416	5.7055
8.56997	5.61639
8.55583	5.5027
8.54174	5.44667
8.52769	5.34193
8.51368	5.17269
8.49973	5.09574
8.48582	4.921
8.47195	4.63984
8.45813	4.6222
8.44436	4.69193
8.43062	4.5193
8.41693	4.28248
8.4033	4.14471
8.3897	3.95999
8.37614	3.67197
8.36264	3.5605
8.34917	3.49739
8.33574	3.4397
8.32236	3.25264
8.30903	3.02444
8.29573	3.02262
8.28248	3.03628
8.26927	2.89982
8.2561	2.77242
8.24298	2.7517
8.2299	2.77702
8.21685	2.61355
8.20385	2.48567
8.19089	2.38566
8.17797	2.30362
8.16509	2.2383
8.15225	2.19828
8.13946	2.14745
8.1267	2.06289
8.11398	2.00979
8.10131	1.95972
8.08867	1.85505
8.07606	1.77673
8.0635	1.76846
8.05099	1.74164
8.0385	1.71993
8.02606	1.71878
8.01366	1.69462
8.00129	1.72655
7.98896	1.81609
7.97667	1.78516
7.96442	1.6925
7.9522	1.69054
7.94002	1.79403
7.92788	1.91706
7.91578	1.96539
7.90371	1.94205
7.89168	1.926
7.87969	1.95769
7.86773	2.10452
7.85581	2.21108
7.84392	2.22887
7.83207	2.35447
7.82026	2.47808
7.80849	2.44382
7.79674	2.5225
7.78503	2.66701
7.77337	2.74599
7.76173	2.79573
7.75012	2.86581
7.73856	3.02199
7.72703	3.25713
7.71553	3.41452
7.70406	3.45212
7.69263	3.54285
7.68123	3.682
7.66987	3.77087
7.65855	3.93396
7.64725	4.20683
7.63598	4.32768
7.62475	4.45322
7.61356	4.61935
7.60239	4.75777
7.59126	4.89844
7.58017	5.04506
7.5691	5.23942
7.55806	5.42147
7.54707	5.53216
7.5361	5.64266
7.52516	5.78302
7.51425	5.96862
7.50338	6.1021
7.49253	6.27524
7.48172	6.45401
7.47094	6.58728
7.46019	6.71102
7.44947	6.88148
7.43879	6.99503
7.42813	7.17421
7.4175	7.41674
7.4069	7.53667
7.39634	7.51452
7.3858	7.65207
7.37529	7.87063
7.36482	7.94621
7.35437	8.09497
7.34396	8.32803
7.33357	8.46072
7.32321	8.58032
7.31288	8.72171
7.30258	8.84053
7.29231	9.02264
7.28207	9.27831
7.27185	9.44519
7.26167	9.65055
7.25152	9.92573
7.24139	10.0312
7.23129	10.0553
7.22122	10.2268
7.21117	10.483
7.20116	10.7306
7.19117	10.8406
7.18121	10.9939
7.17128	11.2775
7.16137	11.4893
7.1515	11.6269
7.14164	11.7734
7.13182	11.9071
7.12203	12.1534
7.11225	12.3786
7.10251	12.521
7.0928	12.6774
7.08311	12.9091
7.07344	13.0966
7.06381	13.2694
7.0542	13.5071
7.04461	13.7205
7.03506	13.7524
7.02552	13.8237
7.01601	13.9478
7.00653	14.0527
6.99708	14.1444
6.98765	14.3396
6.97824	14.5453
6.96886	14.8169
6.95951	15.0436
6.95018	15.0546
6.94087	15.1503
6.9316	15.3311
6.92234	15.5864
6.91311	15.8586
6.90391	16.0522
6.89473	16.1801
6.88557	16.331
6.87644	16.5748
6.86733	16.9608
6.85824	17.1023
6.84918	17.0253
6.84015	17.0305
6.83114	17.2382
6.82215	17.4183
6.81319	17.465
6.80424	17.6081
6.79532	17.9252
6.78643	18.1198
6.77756	18.1712
6.76871	18.3387
6.75989	18.4915
6.75109	18.728
6.74231	18.9378
6.73355	19.1714
6.72482	19.4356
6.71611	19.7284
6.70742	19.8996
6.69875	19.8899
6.69011	20.079
6.68149	20.3813
6.67289	20.4814
6.66431	20.5276
6.65576	20.6717
6.64722	21.1004
6.63871	21.6176
6.63022	21.5631
6.62175	21.3602
6.61331	21.3599
6.60488	21.3794
6.59648	21.5522
6.5881	21.7586
6.57974	21.9997
6.5714	22.1782
6.56308	22.0538
6.55478	22.1389
6.54651	22.2396
6.53825	22.2247
6.53001	22.3741
6.5218	22.6513
6.51361	22.6921
6.50544	22.9057
6.49729	23.4576
6.48915	23.5815
6.48104	23.3252
6.47295	23.2246
6.46488	23.147
6.45683	23.1356
6.4488	23.131
6.44079	23.1681
6.4328	23.3416
6.42482	23.4225
6.41687	23.7727
6.40894	23.6445
6.40103	23.1332
6.39314	23.0409
6.38526	23.0531
6.37741	23.0806
6.36957	23.1067
6.36176	22.9366
6.35396	22.898
6.34618	23.0698
6.33843	22.9026
6.33069	22.7213
6.32297	22.6972
6.31527	22.6883
6.30758	22.6863
6.29992	22.649
6.29227	22.6764
6.28465	22.7151
6.27704	22.7063
6.26945	22.6082
6.26188	22.5291
6.25432	22.4887
6.24679	22.4433
6.23927	22.413
6.23177	22.425
6.22429	22.4272
6.21683	22.4667
6.20938	22.4698
6.20195	22.3704
6.19454	22.4124
6.18715	22.6495
6.17978	22.53
6.17242	22.358
6.16508	22.4735
6.15776	22.4091
6.15045	22.3143
6.14317	22.3487
6.1359	22.2859
6.12864	22.1991
6.12141	22.3736
6.11419	22.633
6.10699	22.4834
6.0998	22.2651
6.09263	22.1717
6.08549	22.1441
6.07835	22.336
6.07123	22.4395
6.06413	22.187
6.05705	22.3647
6.04998	22.9855
6.04293	22.5728
6.0359	21.9858
6.02888	21.7998
6.02187	21.8049
6.01489	21.8576
6.00792	21.7479
6.00096	21.6122
5.99403	21.6778
5.98711	21.6185
5.9802	21.4879
5.97331	21.5332
5.96644	21.4995
5.95958	21.305
5.95274	21.3446
5.94591	21.4309
5.9391	21.7571
5.9323	21.6519
5.92552	21.3057
5.91876	21.3706
5.91201	21.4533
5.90528	21.5348
5.89856	21.9113
5.89186	22.0243
5.88517	22.2151
5.8785	22.283
5.87184	21.9391
5.8652	22.0308
5.85857	22.0132
5.85196	22.0042
5.84536	22.0955
5.83878	22.314
5.83221	22.6001
5.82566	22.7794
5.81912	22.7249
5.81259	22.4369
5.80608	22.3472
5.79959	22.324
5.79311	22.2159
5.78665	22.2147
5.78019	22.2554
5.77376	22.3434
5.76734	22.5399
5.76093	22.2699
5.75453	21.9571
5.74815	21.9418
5.74179	21.7983
5.73543	21.6583
5.7291	21.5135
5.72277	21.478
5.71646	21.4819
5.71017	21.4306
5.70389	21.2157
5.69762	21.0585
5.69136	20.9953
5.68513	20.8602
5.6789	20.8655
5.67268	20.7607
5.66648	20.5467
5.6603	20.5424
5.65413	20.5306
5.64797	20.5932
5.64182	20.684
5.63569	20.579
5.62957	20.5142
5.62347	20.5444
5.61737	20.6745
5.61129	20.834
5.60522	20.9275
5.59917	20.9309
5.59313	20.9726
5.5871	21.0962
5.58109	21.2282
5.57509	21.1919
5.5691	21.0529
5.56312	21.0019
5.55716	21.0765
5.55121	21.1269
5.54528	21.1365
5.53935	21.2197
5.53344	21.3549
5.52754	21.5425
5.52166	21.7098
5.51578	21.8579
5.50992	21.9722
5.50407	22.1039
5.49823	22.1901
5.49241	22.2762
5.4866	22.3063
5.4808	22.3892
5.47501	22.4815
5.46923	22.641
5.46347	22.782
5.45772	22.7684
5.45198	22.7621
5.44625	22.8231
5.44054	22.8909
5.43484	22.9606
5.42914	23.1226
5.42347	23.3803
5.4178	23.427
5.41214	23.3661
5.4065	23.4151
5.40087	23.5177
5.39525	23.5934
5.38964	23.6371
5.38404	23.6776
5.37846	23.6915
5.37288	23.7228
5.36732	23.8639
5.36177	24.046
5.35623	24.2203
5.35071	24.4624
5.34519	24.6557
5.33968	24.8324
5.33419	25.1042
5.32871	25.4061
5.32324	25.6309
5.31778	25.8828
5.31233	26.1757
5.30689	26.503
5.30147	26.8454
5.29605	27.2028
5.29065	27.5495
5.28525	27.8403
5.27987	28.1768
5.2745	28.5929
5.26914	29.0462
5.26379	29.4585
5.25845	29.8726
5.25312	30.2853
5.24781	30.673
5.2425	31.106
5.23721	31.5935
5.23192	32.072
5.22665	32.4989
5.22138	33.0126
5.21613	33.5599
5.21089	34.0055
5.20566	34.4309
5.20044	34.9144
5.19522	35.4401
5.19002	35.9604
5.18483	36.4038
5.17965	36.798
5.17448	37.2705
5.16933	37.7619
5.16418	38.2322
5.15904	38.7216
5.15391	39.1922
5.14879	39.5406
5.14368	39.856
5.13859	40.1551
5.1335	40.5731
5.12842	40.9666
5.12335	41.3496
5.1183	41.6843
5.11325	41.9731
5.10821	42.2054
5.10318	42.4864
5.09817	42.7682
5.09316	42.9583
5.08816	43.1618
5.08317	43.3183
5.07819	43.377
5.07322	43.4485
5.06826	43.5042
5.06331	43.5331
5.05837	43.5476
5.05344	43.5733
5.04852	43.5987
5.04361	43.6623
5.03871	43.729
5.03382	43.8064
5.02894	43.9427
5.02406	44.094
5.0192	44.1965
5.01435	44.2541
5.0095	44.2624
5.00467	44.2581
4.99984	44.2473
4.99502	44.2729
4.99021	44.3199
4.98542	44.4075
4.98063	44.5142
4.97585	44.5631
4.97108	44.6037
4.96632	44.5879
4.96156	44.5098
4.95682	44.4335
4.95209	44.3666
4.94736	44.3309
4.94264	44.3083
4.93794	44.3117
4.93324	44.2842
4.92855	44.3729
4.92387	44.4792
4.9192	44.5703
4.91453	44.7203
4.90988	44.7948
4.90524	44.897
4.9006	45.0534
4.89597	45.2341
4.89135	45.3835
4.88674	45.5119
4.88214	45.6633
4.87755	45.8015
4.87296	45.9536
4.86839	46.0807
4.86382	46.1583
4.85926	46.277
4.85471	46.4292
4.85017	46.5446
4.84564	46.6166
4.84111	46.6819
4.8366	46.7633
4.83209	46.854
4.82759	46.9237
4.8231	46.933
4.81862	46.9402
4.81415	47.0362
4.80968	47.1603
4.80522	47.2587
4.80077	47.2968
4.79633	47.3459
4.7919	47.4028
4.78747	47.5337
4.78306	47.6644
4.77865	47.7684
4.77425	47.8675
4.76986	48.0545
4.76547	48.208
4.7611	48.2835
4.75673	48.4715
4.75237	48.7228
4.74802	48.9625
4.74367	49.1516
4.73934	49.3361
4.73501	49.4979
4.73069	49.6187
4.72638	49.7446
4.72207	49.8711
4.71777	49.9283
4.71348	50.0724
4.7092	50.2471
4.70493	50.3214
4.70066	50.4121
4.69641	50.6158
4.69216	50.7708
4.68791	50.9103
4.68368	51.0823
4.67945	51.3192
4.67523	51.5435
4.67102	51.7469
4.66682	51.9542
4.66262	52.2192
4.65843	52.4983
4.65425	52.7723
4.65007	53.0267
4.64591	53.3035
4.64175	53.607
4.6376	53.9507
4.63345	54.2702
4.62932	54.5239
4.62519	54.7583
4.62106	55.0324
4.61695	55.3163
4.61284	55.5784
4.60874	55.8512
4.60465	56.1116
4.60056	56.3441
4.59648	56.5546
4.59241	56.7466
4.58835	56.9795
4.58429	57.1863
4.58024	57.3487
4.5762	57.6315
4.57216	57.9136
4.56814	58.1376
4.56411	58.3863
4.5601	58.6014
4.55609	58.8541
4.55209	59.144
4.5481	59.4556
4.54411	59.7477
4.54013	59.9682
4.53616	60.1602
4.5322	60.4487
4.52824	60.7485
4.52429	60.9373
4.52034	61.1602
4.51641	61.4014
4.51247	61.588
4.50855	61.7785
4.50463	61.9323
4.50072	62.1193
4.49682	62.3392
4.49292	62.5432
4.48903	62.7286
4.48515	62.9724
4.48127	63.1936
4.4774	63.4362
4.47354	63.6948
4.46968	63.955
4.46584	64.1252
4.46199	64.397
4.45815	64.6998
4.45432	64.925
4.4505	65.1649
4.44668	65.4167
4.44287	65.6291
4.43907	65.8969
4.43527	66.1434
4.43148	66.3863
4.4277	66.6481
4.42392	66.8264
4.42015	67.0192
4.41638	67.2529
4.41262	67.5078
4.40887	67.7073
4.40513	67.8803
4.40139	68.027
4.39765	68.211
4.39393	68.4504
4.39021	68.6549
4.38649	68.7984
4.38278	68.9252
4.37908	69.1271
4.37539	69.2518
4.3717	69.4007
4.36801	69.6213
4.36434	69.8025
4.36067	69.8736
4.357	69.9317
4.35335	70.0361
4.34969	70.1472
4.34605	70.3255
4.34241	70.4619
4.33877	70.5295
4.33514	70.5804
4.33152	70.6872
4.32791	70.7644
4.3243	70.7808
4.32069	70.8823
4.3171	70.9709
4.31351	71.0237
4.30992	71.0632
4.30634	71.095
4.30277	71.1019
4.2992	71.1445
4.29564	71.2291
4.29208	71.2784
4.28853	71.3133
4.28499	71.3515
4.28145	71.2797
4.27792	71.211
4.27439	71.2235
4.27087	71.1712
4.26735	71.1565
4.26384	71.2317
4.26034	71.2729
4.25684	71.3163
4.25335	71.451
4.24986	71.5615
4.24638	71.5527
4.24291	71.5936
4.23944	71.6948
4.23598	71.8268
4.23252	72.0211
4.22906	72.1452
4.22562	72.2304
4.22218	72.2824
4.21874	72.262
4.21531	72.2592
4.21189	72.3033
4.20847	72.3065
4.20506	72.2866
4.20165	72.2279
4.19825	72.1868
4.19485	72.2506
4.19146	72.3421
4.18807	72.3319
4.18469	72.362
4.18132	72.4206
4.17795	72.4341
4.17458	72.4502
4.17123	72.434
4.16787	72.4571
4.16453	72.517
4.16118	72.5779
4.15785	72.5698
4.15451	72.5687
4.15119	72.5991
4.14787	72.6262
4.14455	72.6571
4.14124	72.6021
4.13794	72.6091
4.13464	72.68
4.13134	72.6939
4.12805	72.7371
4.12477	72.7922
4.12149	72.8096
4.11822	72.7844
4.11495	72.7784
4.11168	72.8012
4.10843	72.8186
4.10517	72.8598
4.10192	72.8395
4.09868	72.8274
4.09545	72.8906
4.09221	72.9576
4.08899	72.983
4.08576	72.9994
4.08255	73.0198
4.07933	73.0322
4.07613	73.0243
4.07292	72.9784
4.06973	72.989
4.06654	73.0038
4.06335	73.0541
4.06017	73.089
4.05699	73.0797
4.05382	73.0755
4.05065	73.0654
4.04749	73.0605
4.04433	73.0935
4.04118	73.1197
4.03803	73.1292
4.03489	73.1481
4.03175	73.137
4.02862	73.0901
4.02549	73.0783
4.02237	73.0714
4.01925	73.0804
4.01614	73.0574
4.01303	73.0461
4.00993	73.0816
4.00683	73.0994
4.00373	73.0866
4.00064	73.1053
3.99756	73.0965
3.99448	73.1076
3.9914	73.1391
3.98833	73.12
3.98527	73.0962
3.98221	73.0751
3.97915	73.0338
3.9761	73.0745
3.97305	73.1658
3.97001	73.1873
3.96697	73.12
3.96394	73.1312
3.96091	73.2175
3.95789	73.2639
3.95487	73.299
3.95186	73.3595
3.94885	73.3805
3.94584	73.4326
3.94284	73.5037
3.93984	73.5704
3.93685	73.6032
3.93386	73.6254
3.93088	73.6661
3.9279	73.6768
3.92493	73.6834
3.92196	73.7257
3.919	73.7458
3.91604	73.7046
3.91308	73.7093
3.91013	73.7819
3.90718	73.8402
3.90424	73.9019
3.9013	73.9106
3.89837	73.83
3.89544	73.8309
3.89252	73.8855
3.8896	73.8319
3.88668	73.8508
3.88377	73.9221
3.88086	73.9116
3.87796	73.8554
3.87506	73.8976
3.87217	73.9315
3.86928	73.9642
3.86639	74.0505
3.86351	74.0316
3.86064	74.0338
3.85776	74.0568
3.8549	74.0236
3.85203	74.014
3.84917	73.9529
3.84631	73.9231
3.84346	73.9505
3.84062	74.0301
3.83777	74.0736
3.83494	74.0862
3.8321	74.0773
3.82927	74.0382
3.82644	74.0592
3.82362	74.0695
3.82081	74.049
3.81799	74.0633
3.81518	74.0522
3.81238	74.0062
3.80958	73.9777
3.80678	73.9355
3.80399	73.9446
3.8012	73.9175
3.79841	73.8939
3.79563	73.8843
3.79286	73.8119
3.79008	73.7814
3.78731	73.8034
3.78455	73.8344
3.78179	73.7763
3.77903	73.6416
3.77628	73.5536
3.77353	73.5027
3.77079	73.4881
3.76805	73.3789
3.76531	73.3121
3.76258	73.2832
3.75985	73.2552
3.75713	73.1642
3.7544	72.999
3.75169	72.904
3.74898	72.7706
3.74627	72.5765
3.74356	72.4202
3.74086	72.3468
3.73816	72.2935
3.73547	72.177
3.73278	72.0816
3.7301	72.0051
3.72741	71.8851
3.72474	71.8368
3.72206	71.837
3.71939	71.8238
3.71673	71.742
3.71406	71.7095
3.71141	71.6337
3.70875	71.5136
3.7061	71.492
3.70345	71.557
3.70081	71.5845
3.69817	71.5575
3.69553	71.4957
3.6929	71.4943
3.69027	71.4901
3.68765	71.516
3.68503	71.493
3.68241	71.4461
3.6798	71.4719
3.67719	71.3954
3.67458	71.2718
3.67198	71.259
3.66938	71.2492
3.66678	71.2588
3.66419	71.223
3.66161	71.1475
3.65902	71.1114
3.65644	71.1368
3.65387	71.1232
3.65129	71.0766
3.64872	71.0823
3.64616	71.0622
3.64359	71.048
3.64103	71.0424
3.63848	70.9306
3.63593	70.8695
3.63338	70.8841
3.63084	70.892
3.6283	70.8668
3.62576	70.7872
3.62322	70.7624
3.62069	70.7561
3.61817	70.746
3.61564	70.7696
3.61312	70.7698
3.61061	70.7347
3.6081	70.6692
3.60559	70.6399
3.60308	70.5884
3.60058	70.5204
3.59808	70.4693
3.59558	70.3904
3.59309	70.3318
3.59061	70.2934
3.58812	70.2546
3.58564	70.1212
3.58316	70.0249
3.58069	69.9756
3.57822	69.879
3.57575	69.6946
3.57328	69.596
3.57082	69.6191
3.56836	69.5387
3.56591	69.4454
3.56346	69.4405
3.56101	69.4279
3.55857	69.3799
3.55613	69.3597
3.55369	69.255
3.55126	69.1441
3.54883	69.1217
3.5464	69.0748
3.54397	68.9538
3.54155	68.8658
3.53914	68.8183
3.53672	68.7087
3.53431	68.5724
3.5319	68.535
3.5295	68.3892
3.5271	68.2254
3.5247	68.1228
3.52231	67.9253
3.51991	67.707
3.51753	67.515
3.51514	67.3279
3.51276	67.123
3.51038	66.8796
3.50801	66.7352
3.50563	66.5849
3.50327	66.4367
3.5009	66.3619
3.49854	66.2471
3.49618	66.1965
3.49382	66.2669
3.49147	66.2979
3.48912	66.3022
3.48677	66.3454
3.48443	66.3092
3.48209	66.2122
3.47975	66.1444
3.47742	66.1165
3.47509	66.0895
3.47276	66.0573
3.47044	66.0045
3.46812	66.0068
3.4658	66.0023
3.46348	66.005
3.46117	65.914
3.45886	65.8084
3.45656	65.6788
3.45425	65.5374
3.45195	65.4767
3.44966	65.4625
3.44736	65.3256
3.44507	65.0875
3.44279	64.9503
3.4405	64.9091
3.43822	64.7676
3.43594	64.6075
3.43367	64.4265
3.43139	64.2159
3.42912	64.0785
3.42686	63.8379
3.42459	63.5778
3.42233	63.3771
3.42007	63.2516
3.41782	63.143
3.41557	62.9991
3.41332	62.858
3.41108	62.8204
3.40883	62.8718
3.40659	62.9073
3.40435	62.985
3.40212	62.9968
3.39989	62.9743
3.39766	63.053
3.39544	63.0611
3.39322	63.0486
3.391	63.0468
3.38878	62.9819
3.38657	62.885
3.38436	62.8367
3.38215	62.8562
3.37994	62.7944
3.37774	62.6326
3.37554	62.5108
3.37335	62.5562
3.37115	62.6886
3.36896	62.7647
3.36678	62.7443
3.36459	62.6578
3.36241	62.6504
3.36023	62.7441
3.35805	62.8341
3.35588	62.7713
3.35371	62.6639
3.35154	62.615
3.34938	62.6853
3.34721	62.716
3.34505	62.6543
3.3429	62.5889
3.34074	62.6145
3.33859	62.6536
3.33644	62.5048
3.3343	62.362
3.33215	62.359
3.33001	62.3224
3.32788	62.2448
3.32574	62.1802
3.32361	62.0905
3.32148	62.0899
3.31936	62.0604
3.31723	61.927
3.31511	61.8386
3.31299	61.8418
3.31088	61.7478
3.30876	61.6222
3.30665	61.5954
3.30455	61.5446
3.30244	61.4539
3.30034	61.3374
3.29824	61.2493
3.29614	61.2351
3.29405	61.1293
3.29196	60.9973
3.28987	60.9565
3.28778	60.9711
3.2857	60.9033
3.28362	60.7513
3.28154	60.6712
3.27946	60.6167
3.27739	60.5431
3.27532	60.5023
3.27325	60.3789
3.27119	60.2434
3.26913	60.1816
3.26707	60.1353
3.26501	60.0874
3.26295	59.9169
3.2609	59.8849
3.25885	59.8844
3.2568	59.7672
3.25476	59.6914
3.25272	59.5905
3.25068	59.5424
3.24864	59.4846
3.24661	59.3726
3.24458	59.259
3.24255	59.1588
3.24052	59.0809
3.2385	59.0418
3.23648	58.9932
3.23446	58.8301
3.23244	58.7556
3.23043	58.7107
3.22841	58.5734
3.2264	58.4129
3.2244	58.3898
3.22239	58.282
3.22039	58.1012
3.21839	57.96
3.2164	57.844
3.2144	57.8332
3.21241	57.8947
3.21042	57.8332
3.20844	57.6689
3.20645	57.6665
3.20447	57.6236
3.20249	57.4361
3.20051	57.2382
3.19854	57.1382
3.19657	57.1237
3.1946	57.0537
3.19263	56.8314
3.19067	56.7154
3.1887	56.5903
3.18674	56.4402
3.18479	56.3984
3.18283	56.4342
3.18088	56.3626
3.17893	56.2709
3.17698	56.2373
3.17504	56.1331
3.17309	56.0855
3.17115	56.0165
3.16921	55.7565
3.16728	55.5611
3.16534	55.5049
3.16341	55.4828
3.16148	55.4481
3.15956	55.3941
3.15763	55.2765
3.15571	55.2411
3.15379	55.2059
3.15187	55.0795
3.14996	54.9166
3.14805	54.7471
3.14614	54.5998
3.14423	54.6501
3.14232	54.6701
3.14042	54.5871
3.13852	54.4571
3.13662	54.2491
3.13472	54.1385
3.13283	54.1631
3.13094	54.1461
3.12905	54.0962
3.12716	54.0293
3.12528	53.8259
3.12339	53.7205
3.12151	53.6537
3.11964	53.5534
3.11776	53.4681
3.11589	53.3397
3.11401	53.262
3.11214	53.242
3.11028	53.1815
3.10841	53.0169
3.10655	52.9535
3.10469	52.9878
3.10283	52.8683
3.10098	52.7781
3.09912	52.7537
3.09727	52.715
3.09542	52.5776
3.09358	52.4841
3.09173	52.4197
3.08989	52.334
3.08805	52.2092
3.08621	52.1648
3.08437	52.1482
3.08254	52.0719
3.08071	52.0336
3.07888	52.0207
3.07705	51.9709
3.07523	51.9094
3.0734	51.8376
3.07158	51.8408
3.06977	51.8037
3.06795	51.6833
3.06613	51.6441
3.06432	51.6192
3.06251	51.4152
3.0607	51.285
3.0589	51.2513
3.0571	51.2911
3.05529	51.3164
3.05349	51.2134
3.0517	51.1298
3.0499	51.0758
3.04811	51.0337
3.04632	50.9681
3.04453	50.9412
3.04274	51.0042
3.04096	50.9416
3.03918	50.8581
3.0374	50.9066
3.03562	50.772
3.03384	50.5659
3.03207	50.5033
3.03029	50.5423
3.02852	50.5726
3.02676	50.5192
3.02499	50.5056
3.02323	50.5656
3.02146	50.5502
3.0197	50.3834
3.01795	50.3793
3.01619	50.4591
3.01444	50.3502
3.01269	50.1294
3.01094	50.073
3.00919	50.0037
3.00744	49.9494
3.0057	50.0576
3.00396	50.1344
3.00222	49.9841
3.00048	49.9301
2.99875	49.9676
2.99701	49.947
2.99528	49.9634
2.99355	49.9566
2.99183	49.8479
2.9901	49.7431
2.98838	49.697
2.98666	49.6674
2.98494	49.6512
2.98322	49.5746
2.9815	49.4167
2.97979	49.3401
2.97808	49.3169
2.97637	49.238
2.97466	49.225
2.97295	49.1523
2.97125	49.0793
2.96955	49.0858
2.96785	49.1153
2.96615	49.0207
2.96446	48.9258
2.96276	48.8506
2.96107	48.8473
2.95938	48.7664
2.95769	48.8036
2.95601	48.7337
2.95432	48.595
2.95264	48.4722
2.95096	48.4486
2.94928	48.4279
2.9476	48.259
2.94593	48.1621
2.94425	48.1261
2.94258	48.0905
2.94092	47.9934
2.93925	47.9727
2.93758	48.0136
2.93592	47.9266
2.93426	47.8571
2.9326	47.7904
2.93094	47.6999
2.92928	47.6038
2.92763	47.5077
2.92598	47.4591
2.92433	47.3771
2.92268	47.273
2.92103	47.1255
2.91939	47.044
2.91775	46.9489
2.9161	46.889
2.91447	46.9699
2.91283	46.8956
2.91119	46.6998
2.90956	46.5546
2.90793	46.4838
2.9063	46.4234
2.90467	46.4391
2.90304	46.4327
2.90142	46.3671
2.89979	46.289
2.89817	46.2647
2.89656	46.1567
2.89494	46.1928
2.89332	46.2868
2.89171	46.2319
2.8901	46.2058
2.88849	46.3364
2.88688	46.3674
2.88527	46.3575
2.88367	46.3055
2.88206	46.2245
2.88046	46.3127
2.87886	46.3838
2.87727	46.4458
2.87567	46.3842
2.87408	46.29
2.87248	46.378
2.87089	46.4474
2.8693	46.4819
2.86772	46.5233
2.86613	46.583
2.86455	46.549
2.86297	46.5472
2.86139	46.6436
2.85981	46.6813
2.85823	46.6826
2.85666	46.7614
2.85508	46.8486
2.85351	46.6705
2.85194	46.5838
2.85038	46.4305
2.84881	46.3675
2.84724	46.1595
2.84568	45.9001
2.84412	45.9089
2.84256	45.7893
2.841	45.4921
2.83945	45.278
2.83789	45.2507
2.83634	45.1701
2.83479	45.0928
2.83324	44.9813
2.83169	44.7831
2.83015	44.5369
2.82861	44.4391
2.82706	44.4577
2.82552	44.3004
2.82398	44.2173
2.82245	44.0162
2.82091	43.689
2.81938	43.5684
2.81784	43.4763
2.81631	43.3201
2.81479	43.0173
2.81326	42.6083
2.81173	42.213
2.81021	41.7745
2.80869	41.271
2.80716	40.7514
2.80565	40.4166
2.80413	40.2873
2.80261	39.8768
2.8011	39.2679
2.79959	38.596
2.79808	37.7973
2.79657	36.9505
2.79506	35.9795
2.79355	34.9521
2.79205	33.8695
2.79055	32.7173
2.78904	31.4732
2.78754	30.0308
2.78605	28.635
2.78455	26.9864
2.78306	25.0622
2.78156	23.1441
2.78007	21.412
2.77858	19.4971
2.77709	17.4657
2.77561	15.7448
2.77412	14.259
2.77264	12.8602
2.77116	11.7864
2.76968	10.607
2.7682	9.70062
2.76672	8.86028
2.76524	8.19332
2.76377	7.67767
2.7623	6.85115
2.76083	6.4322
2.75936	6.41351
2.75789	6.25008
2.75642	5.97599
2.75496	5.88594
2.7535	6.0576
2.75203	6.08633
2.75057	6.11684
2.74912	6.28323
2.74766	6.37788
2.7462	6.4221
2.74475	6.59889
2.7433	6.65606
2.74185	6.58345
2.7404	6.71224
2.73895	6.9894
2.7375	7.0657
2.73606	7.15298
2.73462	7.33716
2.73318	7.43634
2.73174	7.64047
2.7303	8.09311
2.72886	8.63633
2.72742	9.22093
2.72599	10.2488
2.72456	11.5862
2.72313	12.8975
2.7217	14.3667
2.72027	16.4958
2.71884	18.7194
2.71742	21.1231
2.71599	23.7757
2.71457	26.5599
2.71315	29.1744
2.71173	31.795
2.71032	33.938
2.7089	35.3314
2.70748	36.448
2.70607	37.4682
2.70466	38.4701
2.70325	39.5661
2.70184	41.1049
2.70043	42.9782
2.69903	45.2578
2.69762	48.0906
2.69622	51.1144
2.69482	54.0441
2.69342	56.3498
2.69202	57.5706
2.69062	58.4544
2.68923	59.191
2.68783	59.7825
2.68644	60.2702
2.68505	60.673
2.68366	61.1429
2.68227	61.5442
2.68089	61.9382
2.6795	62.6304
2.67812	63.1483
2.67673	63.5886
2.67535	63.4731
2.67397	63.3627
2.6726	63.8044
2.67122	65.038
2.66984	65.565
2.66847	65.327
2.6671	66.1398
2.66572	66.6195
2.66435	66.3841
2.66299	66.0156
2.66162	66.3144
2.66025	66.6855
2.65889	66.871
2.65753	66.7761
2.65616	67.1101
2.65481	67.3713
2.65345	67.634
2.65209	67.9194
2.65073	67.9527
2.64938	67.9231
2.64803	67.9619
2.64667	68.1159
2.64532	68.2875
2.64397	68.2464
2.64263	68.3068
2.64128	68.3309
2.63994	68.2883
2.63859	68.3052
2.63725	68.2981
2.63591	68.3136
2.63457	68.5328
2.63323	68.569
2.6319	68.6463
2.63056	69.0781
2.62923	68.6913
2.62789	68.5382
2.62656	68.7757
2.62523	68.342
2.6239	68.1171
2.62258	68.1264
2.62125	68.5962
2.61993	68.7969
2.6186	68.5406
2.61728	68.8575
2.61596	68.8043
2.61464	68.4156
2.61332	68.3998
2.61201	68.3862
2.61069	68.4478
2.60938	68.5898
2.60807	68.7445
2.60675	69.0352
2.60544	69.3365
2.60414	69.2483
2.60283	69.2819
2.60152	69.3061
2.60022	69.2631
2.59891	69.4755
2.59761	69.8295
2.59631	70.6838
2.59501	71.9702
2.59371	71.4812
2.59242	70.5494
2.59112	70.4745
2.58983	70.7832
2.58853	71.0195
2.58724	71.2919
2.58595	71.1753
2.58466	71.4018
2.58338	71.5546
2.58209	71.3639
2.5808	71.3488
2.57952	71.0026
2.57824	71.0955
2.57695	71.3923
2.57567	71.256
2.5744	71.3583
2.57312	71.5696
2.57184	71.3933
2.57057	71.6274
2.56929	71.7362
2.56802	71.4632
2.56675	71.4613
2.56548	71.7295
2.56421	72.0177
2.56294	72.1106
2.56168	72.1728
2.56041	72.1422
2.55915	72.0248
2.55789	71.9436
2.55662	72.0083
2.55536	72.0916
2.5541	72.197
2.55285	72.3026
2.55159	72.3514
2.55034	72.4697
2.54908	72.5006
2.54783	72.4692
2.54658	72.4083
2.54533	72.4794
2.54408	72.6641
2.54283	72.7776
2.54159	72.7385
2.54034	72.6977
2.5391	72.7065
2.53785	72.7147
2.53661	72.9047
2.53537	72.9256
2.53413	72.797
2.53289	72.6863
2.53166	72.6628
2.53042	72.5977
2.52919	72.4501
2.52795	72.3631
2.52672	72.3327
2.52549	72.2853
2.52426	72.1866
2.52303	72.0612
2.52181	72.0032
2.52058	71.9265
2.51936	71.7889
2.51813	71.6648
2.51691	71.4224
2.51569	71.2784
2.51447	71.2035
2.51325	71.0805
2.51203	70.9795
2.51082	70.7991
2.5096	70.6774
2.50839	70.5972
2.50717	70.5689
2.50596	70.4527
2.50475	70.3134
2.50354	70.2034
2.50233	69.9889
2.50113	69.8758
2.49992	69.7868
2.49872	69.5894
2.49751	69.4475
2.49631	69.3545
2.49511	69.2942
2.49391	69.2802
2.49271	69.2437
2.49151	69.169
2.49031	69.1892
2.48912	69.1524
2.48792	69.0739
2.48673	69.0082
2.48554	68.9445
2.48435	68.9188
2.48316	68.9103
2.48197	68.8465
2.48078	68.6751
2.4796	68.6994
2.47841	68.7548
2.47723	68.6449
2.47604	68.6129
2.47486	68.5386
2.47368	68.4838
2.4725	68.4278
2.47132	68.3051
2.47014	68.2281
2.46897	68.1716
2.46779	68.0404
2.46662	68.0556
2.46545	68.0017
2.46427	67.7683
2.4631	67.5384
2.46193	67.508
2.46077	67.438
2.4596	67.3943
2.45843	67.303
2.45727	67.154
2.4561	67.1052
2.45494	67.0682
2.45378	67.0587
2.45262	66.9499
2.45146	66.6804
2.4503	66.5587
2.44914	66.5304
2.44799	66.4255
2.44683	66.3351
2.44568	66.2697
2.44452	66.1935
2.44337	66.115
2.44222	66.0171
2.44107	65.9218
2.43992	65.9244
2.43877	66.0567
2.43763	66.1024
2.43648	66.0221
2.43534	65.9718
2.43419	66.0107
2.43305	66.1004
2.43191	66.2391
2.43077	66.2788
2.42963	66.3142
2.42849	66.557
2.42736	66.8235
2.42622	66.9988
2.42509	67.2266
2.42395	67.4569
2.42282	67.6002
2.42169	67.8155
2.42056	67.9987
2.41943	68.1643
2.4183	68.3007
2.41717	68.5065
2.41605	68.7535
2.41492	68.9987
2.4138	69.2417
2.41267	69.4005
2.41155	69.6012
2.41043	69.9083
2.40931	70.22
2.40819	70.4274
2.40707	70.6029
2.40595	70.8084
2.40484	71.0129
2.40372	71.1953
2.40261	71.2188
2.4015	71.3558
2.40039	71.6562
2.39928	71.7027
2.39817	71.8157
2.39706	71.8936
2.39595	71.8884
2.39484	71.9397
2.39374	71.9392
2.39263	71.9558
2.39153	72.0299
2.39043	72.0631
2.38932	72.1006
2.38822	72.1465
2.38712	72.151
2.38603	72.091
2.38493	72.0572
2.38383	72.1802
2.38274	72.1194
2.38164	72.0105
2.38055	72.0521
2.37946	72.0107
2.37836	71.9589
2.37727	72.0159
2.37618	72.1325
2.3751	72.2072
2.37401	72.2294
2.37292	72.161
2.37184	72.0436
2.37075	72.0015
2.36967	72.124
2.36859	72.3346
2.3675	72.2255
2.36642	71.8919
2.36534	71.9031
2.36427	71.9702
2.36319	71.9061
2.36211	71.8223
2.36104	71.6086
2.35996	71.4257
2.35889	71.3935
2.35781	71.3156
2.35674	71.1573
2.35567	71.0472
2.3546	70.8907
2.35353	70.7431
2.35247	70.6434
2.3514	70.5231
2.35033	70.4664
2.34927	70.3541
2.3482	70.2959
2.34714	70.3785
2.34608	70.4657
2.34502	70.6147
2.34396	70.5635
2.3429	70.5197
2.34184	70.6097
2.34078	70.9034
2.33973	71.1746
2.33867	71.321
2.33762	71.4336
2.33656	71.5942
2.33551	71.8593
2.33446	72.0199
2.33341	72.0001
2.33236	72.1523
2.33131	72.5109
2.33026	72.8437
2.32922	73.1316
2.32817	73.4895
2.32712	73.7348
2.32608	73.899
2.32504	74.1732
2.324	74.5029
2.32295	74.747
2.32191	74.8944
2.32087	75.1566
2.31984	75.4843
2.3188	75.6654
2.31776	75.9627
2.31673	76.2042
2.31569	76.3791
2.31466	76.7491
2.31362	76.8949
2.31259	76.9198
2.31156	77.1625
2.31053	77.3365
2.3095	77.4899
2.30847	77.7355
2.30745	77.8593
2.30642	77.8669
2.3054	78.127
2.30437	78.5272
2.30335	78.6709
2.30232	78.714
2.3013	78.9648
2.30028	79.1225
2.29926	79.187
2.29824	79.2681
2.29722	79.397
2.29621	79.5821
2.29519	79.6349
2.29417	79.7857
2.29316	79.9182
2.29215	80.0526
2.29113	80.1641
2.29012	80.0561
2.28911	80.0135
2.2881	80.2358
2.28709	80.3674
2.28608	80.42
2.28507	80.5017
2.28407	80.5227
2.28306	80.5284
2.28206	80.6038
2.28105	80.5914
2.28005	80.676
2.27905	80.7617
2.27805	80.8193
2.27705	80.8301
2.27605	80.7593
2.27505	80.785
2.27405	80.8756
2.27305	80.8316
2.27206	80.8288
2.27106	80.8759
2.27007	80.8919
2.26907	80.7783
2.26808	80.7331
2.26709	80.8174
2.2661	80.9614
2.26511	81.0124
2.26412	80.9134
2.26313	80.8791
2.26214	80.8731
2.26116	80.9269
2.26017	80.9813
2.25919	80.9116
2.2582	80.8925
2.25722	80.8758
2.25624	80.8847
2.25526	80.7766
2.25428	80.7904
2.2533	80.8238
2.25232	80.7977
2.25134	80.7333
2.25036	80.7338
2.24939	80.7821
2.24841	80.7632
2.24744	80.697
2.24646	80.6476
2.24549	80.5684
2.24452	80.5235
2.24355	80.5492
2.24257	80.4467
2.24161	80.451
2.24064	80.399
2.23967	80.3617
2.2387	80.477
2.23774	80.3824
2.23677	80.207
2.23581	80.3295
2.23484	80.4233
2.23388	80.3329
2.23292	80.2752
2.23196	80.0992
2.231	79.937
2.23004	79.9016
2.22908	79.8228
2.22812	79.5126
2.22716	79.3632
2.22621	79.1779
2.22525	78.8996
2.2243	78.6487
2.22334	78.4844
2.22239	78.3326
2.22144	78.0781
2.22049	77.6734
2.21953	77.2157
2.21859	76.7786
2.21764	76.3049
2.21669	75.8418
2.21574	75.3002
2.21479	74.808
2.21385	74.1142
2.2129	73.1738
2.21196	72.5461
2.21102	71.9216
2.21007	71.0539
2.20913	70.2358
2.20819	69.6144
2.20725	68.9113
2.20631	68.1846
2.20537	67.4249
2.20444	66.682
2.2035	66.0938
2.20256	65.5452
2.20163	65.094
2.20069	64.6309
2.19976	64.244
2.19883	64.037
2.19789	63.9691
2.19696	63.8299
2.19603	63.695
2.1951	63.642
2.19417	63.6101
2.19325	63.7069
2.19232	64.1556
2.19139	64.6025
2.19047	64.9351
2.18954	65.4654
2.18862	66.1161
2.18769	66.695
2.18677	67.224
2.18585	67.8565
2.18493	68.5207
2.18401	69.1178
2.18309	69.8221
2.18217	70.8122
2.18125	71.6862
2.18033	72.3978
2.17942	73.0527
2.1785	73.7009
2.17759	74.1459
2.17667	74.669
2.17576	75.3331
2.17485	75.9345
2.17393	76.5048
2.17302	77.0275
2.17211	77.4772
2.1712	78.0747
2.17029	78.6524
2.16939	78.9345
2.16848	79.1471
2.16757	79.4647
2.16667	79.7455
2.16576	79.9675
2.16486	80.1931
2.16395	80.3295
2.16305	80.619
2.16215	80.9521
2.16125	81.122
2.16035	81.2681
2.15945	81.4194
2.15855	81.3873
2.15765	81.4355
2.15675	81.7811
2.15586	82.1569
2.15496	82.1936
2.15406	82.1476
2.15317	82.2883
2.15228	82.4241
2.15138	82.4939
2.15049	82.729
2.1496	82.8455
2.14871	82.9125
2.14782	82.9221
2.14693	82.872
2.14604	82.97
2.14515	83.1505
2.14427	83.1469
2.14338	83.1468
2.14249	83.2459
2.14161	83.2158
2.14072	83.5046
2.13984	83.7888
2.13896	83.6246
2.13808	83.5022
2.13719	83.3898
2.13631	83.4051
2.13543	83.506
2.13455	83.7238
2.13368	83.7431
2.1328	83.4618
2.13192	83.4068
2.13105	83.6317
2.13017	83.742
2.1293	83.6883
2.12842	83.7104
2.12755	83.5496
2.12668	83.5054
2.1258	83.5299
2.12493	83.5415
2.12406	83.5426
2.12319	83.4669
2.12232	83.4652
2.12145	83.4723
2.12059	83.3903
2.11972	83.3427
2.11885	83.1979
2.11799	83.1184
2.11712	83.1896
2.11626	83.4275
2.1154	83.5022
2.11453	83.597
2.11367	83.8543
2.11281	83.8901
2.11195	83.646
2.11109	83.7341
2.11023	83.8332
2.10937	83.8955
2.10851	83.9067
2.10766	83.7961
2.1068	83.7961
2.10594	83.905
2.10509	83.9658
2.10423	83.9579
2.10338	84.1924
2.10253	84.4212
2.10168	84.4793
2.10082	84.5422
2.09997	84.4787
2.09912	84.4862
2.09827	84.6914
2.09742	84.6208
2.09658	84.6698
2.09573	84.8348
2.09488	84.8284
2.09404	84.7666
2.09319	84.8168
2.09235	84.9217
2.0915	84.8283
2.09066	84.91
2.08982	85.1706
2.08897	85.0488
2.08813	84.8914
2.08729	85.069
2.08645	85.0214
2.08561	85.0228
2.08477	85.2743
2.08394	85.3223
2.0831	85.3274
2.08226	85.1959
2.08143	85.3798
2.08059	85.4216
2.07976	85.492
2.07892	85.7026
2.07809	85.6586
2.07726	85.418
2.07643	85.3101
2.07559	85.6086
2.07476	85.7141
2.07393	85.9234
2.0731	85.7364
2.07228	85.7888
2.07145	85.8258
2.07062	85.5488
2.06979	85.5348
2.06897	85.8755
2.06814	85.7775
2.06732	85.2073
2.06649	85.3621
2.06567	85.6867
2.06485	85.9135
2.06403	85.8443
2.0632	85.5691
2.06238	85.7599
2.06156	86.0602
2.06074	86.1958
2.05993	86.1957
2.05911	86.0483
2.05829	86.0381
2.05747	86.0801
2.05666	86.0059
2.05584	85.8555
2.05503	85.906
2.05421	85.9788
2.0534	85.9302
2.05259	85.8461
2.05177	85.7807
2.05096	85.9156
2.05015	85.9755
2.04934	85.8324
2.04853	85.8468
2.04772	85.9512
2.04691	85.9591
2.04611	85.8421
2.0453	85.8082
2.04449	85.949
2.04369	85.987
2.04288	86.0001
2.04208	85.9711
2.04127	85.9341
2.04047	86.0138
2.03967	86.0501
2.03886	85.9525
2.03806	86.0289
2.03726	85.981
2.03646	85.9766
2.03566	85.9364
2.03486	85.8751
2.03407	86.0736
2.03327	86.1842
2.03247	86.0114
2.03167	85.9739
2.03088	86.1097
2.03008	86.1619
2.02929	86.3026
2.0285	86.2356
2.0277	86.0664
2.02691	85.8987
2.02612	85.8509
2.02533	85.8686
2.02453	85.9249
2.02374	86.0602
2.02295	86.1118
2.02217	86.2729
2.02138	86.133
2.02059	85.998
2.0198	86.0792
2.01902	86.1556
2.01823	86.3324
2.01744	86.4199
2.01666	86.1728
2.01588	85.9813
2.01509	85.9193
2.01431	86.0372
2.01353	86.1327
2.01275	86.0224
2.01196	85.8963
2.01118	85.9276
2.0104	85.8006
2.00963	85.7953
2.00885	85.8764
2.00807	85.803
2.00729	85.9113
2.00651	86.2495
2.00574	86.4286
2.00496	86.4224
2.00419	86.3122
2.00341	86.1355
2.00264	86.0917
2.00187	86.0547
2.00109	85.9725
2.00032	86.0265
