Name: Dolomite CaMg(CO_3)_2
Type: Mineral
Class: Carbonates
Subclass: 
Particle Size: 45-125um
Sample No.: C-5A
Owner: JPL
Wavelength range: IR
Origin: USA, Colorado
Collected by Ward's
Description:  Red banded dolomite. 





Measurement: Hemispherical reflectance
First Column: X
Second Column: Y
X Units:  Wavelength (micrometers)
Y Units:  Reflectance (percent)
First X Value: 15.3853
Last X Value: 2.00032
Number of X Values: 2256
Additional information: c05aa.txt
 
15.3853	4.63324
15.3397	4.57751
15.2945	4.84833
15.2495	5.24708
15.2048	5.22158
15.1603	5.62033
15.1161	6.05088
15.0722	6.24263
15.0285	5.97886
14.9851	5.78326
14.9419	5.98366
14.8989	6.37446
14.8563	6.65298
14.8138	6.79957
14.7716	6.8509
14.7296	6.8665
14.6879	6.78646
14.6464	6.64052
14.6052	6.50556
14.5641	6.26275
14.5233	5.85471
14.4828	5.5566
14.4424	5.32513
14.4023	5.04864
14.3624	5.11413
14.3227	5.55279
14.2833	5.79442
14.244	5.93956
14.205	6.03406
14.1662	5.80804
14.1276	5.52599
14.0892	5.06004
14.051	4.84785
14.0131	4.76505
13.9753	4.36534
13.9377	3.87024
13.9004	3.38156
13.8632	2.83962
13.8262	2.6234
13.7895	2.69318
13.7529	2.78355
13.7165	2.74561
13.6803	1.95329
13.6443	1.11823
13.6085	1.14314
13.5729	1.68242
13.5374	2.44212
13.5022	3.34198
13.4671	4.33775
13.4322	5.31366
13.3975	6.30926
13.363	7.27088
13.3286	7.97885
13.2944	8.81794
13.2604	9.49877
13.2266	9.93365
13.193	10.4775
13.1595	10.7052
13.1262	10.6411
13.093	10.4267
13.06	10.0459
13.0272	9.57887
12.9946	8.9779
12.9621	8.24984
12.9298	7.59206
12.8976	7.06531
12.8656	6.80423
12.8337	6.85737
12.8021	7.05883
12.7705	7.33572
12.7391	7.52423
12.7079	7.49351
12.6769	7.36625
12.6459	7.0959
12.6152	6.69349
12.5845	6.32893
12.5541	5.94355
12.5238	5.6838
12.4936	5.82816
12.4635	6.48924
12.4337	7.4453
12.4039	8.40213
12.3743	9.51589
12.3448	10.7975
12.3155	11.711
12.2863	12.5535
12.2573	13.3117
12.2284	13.8045
12.1996	14.2073
12.171	14.4165
12.1425	14.5926
12.1141	14.7975
12.0859	14.9064
12.0578	14.8972
12.0298	14.999
12.0019	15.0376
11.9742	14.972
11.9466	14.9802
11.9192	14.7394
11.8918	14.3689
11.8646	14.0636
11.8375	13.5256
11.8106	12.5057
11.7837	10.5535
11.757	7.89151
11.7304	5.59955
11.7039	6.15923
11.6776	8.44982
11.6513	9.21037
11.6252	8.81987
11.5992	8.01024
11.5733	7.08369
11.5475	6.18618
11.5219	5.62872
11.4963	5.44036
11.4709	5.38941
11.4455	5.52145
11.4203	6.07415
11.3952	6.86948
11.3702	7.88983
11.3454	9.07837
11.3206	10.5717
11.2959	12.2442
11.2714	13.7083
11.2469	14.987
11.2226	16.4881
11.1983	17.9001
11.1742	19.1871
11.1502	20.0287
11.1263	19.2152
11.1024	17.0829
11.0787	15.4279
11.0551	14.5355
11.0316	14.0136
11.0081	13.6407
10.9848	13.3184
10.9616	13.0881
10.9385	13.0613
10.9154	13.1512
10.8925	13.2015
10.8697	13.2451
10.8469	13.2721
10.8243	13.2647
10.8017	13.2657
10.7793	13.2368
10.7569	13.4017
10.7346	13.4092
10.7125	13.4212
10.6904	13.4242
10.6684	13.32
10.6465	13.2874
10.6247	13.3435
10.6029	13.1868
10.5813	12.9256
10.5597	12.7979
10.5383	12.9876
10.5169	13.1273
10.4956	12.8925
10.4744	12.6888
10.4533	12.6266
10.4323	12.54
10.4113	12.2657
10.3904	11.9431
10.3697	11.6483
10.349	11.175
10.3284	10.667
10.3078	10.345
10.2874	10.0491
10.267	9.69592
10.2467	9.39762
10.2265	9.06282
10.2064	8.63848
10.1863	8.34961
10.1663	8.22358
10.1464	8.13386
10.1266	7.82675
10.1069	7.37162
10.0872	7.06458
10.0676	6.92187
10.0481	6.87311
10.0287	6.78014
10.0093	6.71431
9.99005	6.62725
9.97084	6.46322
9.95169	6.31721
9.93263	6.26784
9.91364	6.15849
9.89472	6.03431
9.87587	5.82415
9.8571	5.78976
9.83839	5.78601
9.81976	5.86111
9.80119	5.80944
9.78271	5.80352
9.76428	5.61114
9.74592	5.32052
9.72764	5.23238
9.70943	5.17551
9.69128	4.95782
9.6732	4.8571
9.65518	4.86356
9.63724	5.01929
9.61935	4.92542
9.60155	4.75907
9.5838	4.70822
9.56611	4.73098
9.5485	4.68993
9.53094	4.83796
9.51345	4.99846
9.49604	5.09712
9.47867	5.12078
9.46137	5.10571
9.44414	5.17826
9.42697	5.32773
9.40986	5.35546
9.39281	5.46632
9.37583	5.6715
9.35891	5.86888
9.34204	6.17968
9.32524	6.55994
9.3085	6.65621
9.29182	6.6366
9.27519	6.61598
9.25863	6.55022
9.24213	6.5401
9.22568	6.52906
9.2093	6.53621
9.19297	6.49459
9.17669	6.38364
9.16048	6.38805
9.14433	6.252
9.12823	6.11213
9.11218	5.81299
9.0962	5.37997
9.08027	5.34254
9.06439	5.62514
9.04858	5.74688
9.03281	5.86184
9.0171	6.0356
9.00145	6.03893
8.98585	5.97106
8.9703	5.99897
8.9548	6.04484
8.93937	6.1049
8.92398	6.06706
8.90865	5.97413
8.89337	6.14129
8.87814	6.20289
8.86296	6.24184
8.84784	6.30585
8.83277	6.4755
8.81774	6.7251
8.80277	6.80262
8.78786	6.82418
8.77298	6.81545
8.75816	6.8681
8.7434	6.95924
8.72868	6.99049
8.714	7.03059
8.69938	7.21325
8.68481	7.29312
8.67029	7.2725
8.65581	7.12861
8.64139	6.97914
8.62701	6.85127
8.61268	6.73661
8.5984	6.86621
8.58416	6.96063
8.56997	7.00169
8.55583	7.27855
8.54174	7.47728
8.52769	7.50735
8.51368	7.58335
8.49973	7.549
8.48582	7.43718
8.47195	7.28721
8.45813	7.17116
8.44436	7.19415
8.43062	7.22572
8.41693	7.09905
8.4033	7.05359
8.3897	7.06579
8.37614	7.05651
8.36264	7.32478
8.34917	7.78097
8.33574	8.12316
8.32236	8.49708
8.30903	8.90599
8.29573	9.09017
8.28248	9.07323
8.26927	9.05375
8.2561	9.0226
8.24298	8.94277
8.2299	8.85864
8.21685	8.74056
8.20385	8.59493
8.19089	8.26408
8.17797	7.81583
8.16509	7.25543
8.15225	6.86761
8.13946	6.57452
8.1267	6.47263
8.11398	6.48139
8.10131	6.54084
8.08867	6.78437
8.07606	6.91418
8.0635	6.8852
8.05099	6.97461
8.0385	7.03176
8.02606	6.99169
8.01366	7.01547
8.00129	7.03793
7.98896	7.08069
7.97667	7.17767
7.96442	7.14374
7.9522	7.15352
7.94002	7.19784
7.92788	7.21248
7.91578	7.19265
7.90371	7.19811
7.89168	7.21666
7.87969	7.28991
7.86773	7.31314
7.85581	7.32424
7.84392	7.27295
7.83207	7.1629
7.82026	7.03784
7.80849	6.9035
7.79674	6.73682
7.78503	6.61661
7.77337	6.48508
7.76173	6.34545
7.75012	6.19082
7.73856	6.09393
7.72703	6.04931
7.71553	5.96901
7.70406	5.87759
7.69263	5.76944
7.68123	5.80194
7.66987	5.84951
7.65855	5.81289
7.64725	5.92462
7.63598	6.04771
7.62475	6.15086
7.61356	6.26128
7.60239	6.20213
7.59126	6.13025
7.58017	6.11381
7.5691	6.09465
7.55806	6.10539
7.54707	6.01015
7.5361	5.91205
7.52516	5.80409
7.51425	5.70148
7.50338	5.69594
7.49253	5.68668
7.48172	5.7418
7.47094	5.77091
7.46019	5.69671
7.44947	5.62179
7.43879	5.69047
7.42813	5.77591
7.4175	5.745
7.4069	5.7465
7.39634	5.83543
7.3858	5.91857
7.37529	5.93087
7.36482	5.96589
7.35437	5.92962
7.34396	5.96621
7.33357	5.94815
7.32321	5.89621
7.31288	6.01379
7.30258	6.19178
7.29231	6.229
7.28207	6.32012
7.27185	6.3844
7.26167	6.32253
7.25152	6.32322
7.24139	6.52706
7.23129	6.68426
7.22122	6.78744
7.21117	6.94716
7.20116	7.02478
7.19117	7.13377
7.18121	7.34456
7.17128	7.62212
7.16137	7.89089
7.1515	8.08337
7.14164	8.25471
7.13182	8.49817
7.12203	8.84887
7.11225	9.24081
7.10251	9.49631
7.0928	9.55163
7.08311	9.76808
7.07344	10.3716
7.06381	11.1746
7.0542	12.2629
7.04461	13.4824
7.03506	14.2617
7.02552	14.9355
7.01601	15.3917
7.00653	15.576
6.99708	15.7287
6.98765	15.8374
6.97824	15.7597
6.96886	15.9271
6.95951	16.203
6.95018	15.9611
6.94087	15.8421
6.9316	15.8371
6.92234	15.7828
6.91311	15.9541
6.90391	16.1393
6.89473	16.1434
6.88557	16.2586
6.87644	16.5542
6.86733	17.1461
6.85824	17.2176
6.84918	16.9796
6.84015	16.9773
6.83114	17.22
6.82215	17.3868
6.81319	17.4109
6.80424	17.571
6.79532	17.9442
6.78643	18.1709
6.77756	18.0973
6.76871	18.0372
6.75989	18.0701
6.75109	18.3115
6.74231	18.5528
6.73355	18.8257
6.72482	19.1917
6.71611	19.5044
6.70742	19.68
6.69875	19.7057
6.69011	20.2026
6.68149	20.8465
6.67289	20.9697
6.66431	21.1111
6.65576	21.4511
6.64722	22.3153
6.63871	23.5427
6.63022	23.7664
6.62175	23.6346
6.61331	23.9241
6.60488	24.2946
6.59648	24.8575
6.5881	25.3451
6.57974	25.9507
6.5714	26.5884
6.56308	26.5772
6.55478	26.6509
6.54651	26.7906
6.53825	26.9914
6.53001	27.5051
6.5218	28.2827
6.51361	28.4414
6.50544	28.8535
6.49729	30.0306
6.48915	30.4241
6.48104	30.173
6.47295	30.1179
6.46488	29.9854
6.45683	29.9756
6.4488	30.1108
6.44079	30.3295
6.4328	30.5352
6.42482	30.7945
6.41687	31.7406
6.40894	31.2473
6.40103	29.7665
6.39314	29.202
6.38526	28.7948
6.37741	28.3486
6.36957	27.5692
6.36176	25.7903
6.35396	23.7984
6.34618	21.7413
6.33843	19.0304
6.33069	16.6253
6.32297	14.6576
6.31527	12.9169
6.30758	11.354
6.29992	9.96206
6.29227	8.76225
6.28465	7.75241
6.27704	6.74244
6.26945	5.89589
6.26188	5.33356
6.25432	4.96677
6.24679	4.49313
6.23927	4.06784
6.23177	3.81482
6.22429	3.5407
6.21683	3.2686
6.20938	3.1053
6.20195	2.98598
6.19454	2.91386
6.18715	2.88364
6.17978	2.62185
6.17242	2.4657
6.16508	2.47738
6.15776	2.39372
6.15045	2.3867
6.14317	2.30787
6.1359	2.13359
6.12864	1.99299
6.12141	1.95598
6.11419	2.00318
6.10699	1.80133
6.0998	1.52845
6.09263	1.46919
6.08549	1.48338
6.07835	1.56338
6.07123	1.54187
6.06413	1.5541
6.05705	1.54774
6.04998	1.60855
6.04293	1.67364
6.0359	1.66955
6.02888	1.73858
6.02187	1.7377
6.01489	1.69691
6.00792	1.73509
6.00096	1.82695
5.99403	1.89238
5.98711	1.95584
5.9802	1.98731
5.97331	1.96482
5.96644	2.00245
5.95958	1.96498
5.95274	2.03632
5.94591	2.08447
5.9391	2.15781
5.9323	2.16835
5.92552	2.21355
5.91876	2.35213
5.91201	2.4457
5.90528	2.45118
5.89856	2.50101
5.89186	2.58841
5.88517	2.73897
5.8785	2.84555
5.87184	2.80822
5.8652	2.8179
5.85857	2.85739
5.85196	2.94175
5.84536	3.05384
5.83878	3.15824
5.83221	3.2752
5.82566	3.34037
5.81912	3.26225
5.81259	3.2391
5.80608	3.29518
5.79959	3.28968
5.79311	3.34089
5.78665	3.42826
5.78019	3.4599
5.77376	3.52516
5.76734	3.63196
5.76093	3.6691
5.75453	3.63883
5.74815	3.68385
5.74179	3.6752
5.73543	3.75141
5.7291	3.90653
5.72277	4.02608
5.71646	4.18644
5.71017	4.38359
5.70389	4.35256
5.69762	4.2313
5.69136	4.24661
5.68513	4.36347
5.6789	4.343
5.67268	4.26362
5.66648	4.17392
5.6603	4.10018
5.65413	4.04361
5.64797	4.05677
5.64182	4.03274
5.63569	3.81219
5.62957	3.59879
5.62347	3.46625
5.61737	3.41987
5.61129	3.35748
5.60522	3.19562
5.59917	3.04031
5.59313	2.99126
5.5871	2.88963
5.58109	2.7304
5.57509	2.57318
5.5691	2.36524
5.56312	2.10916
5.55716	1.88619
5.55121	1.66905
5.54528	1.50528
5.53935	1.4251
5.53344	1.38851
5.52754	1.29347
5.52166	1.13586
5.51578	1.11097
5.50992	1.10655
5.50407	1.06322
5.49823	1.1032
5.49241	1.07612
5.4866	1.0358
5.4808	1.14687
5.47501	1.28114
5.46923	1.45687
5.46347	1.8864
5.45772	2.48146
5.45198	3.23859
5.44625	4.14582
5.44054	5.03815
5.43484	5.9785
5.42914	7.03371
5.42347	8.20568
5.4178	9.16344
5.41214	10.0329
5.4065	10.9469
5.40087	11.7229
5.39525	12.3964
5.38964	12.9622
5.38404	13.4564
5.37846	13.8513
5.37288	14.21
5.36732	14.5732
5.36177	14.9475
5.35623	15.3767
5.35071	15.8366
5.34519	16.2183
5.33968	16.5084
5.33419	16.8007
5.32871	17.1328
5.32324	17.4514
5.31778	17.7242
5.31233	18.0202
5.30689	18.2936
5.30147	18.5939
5.29605	19.063
5.29065	19.5856
5.28525	20.0272
5.27987	20.5545
5.2745	21.2607
5.26914	22.0058
5.26379	22.7274
5.25845	23.5302
5.25312	24.3939
5.24781	25.2407
5.2425	26.0679
5.23721	26.9579
5.23192	27.829
5.22665	28.6361
5.22138	29.4126
5.21613	30.2963
5.21089	30.8726
5.20566	31.2881
5.20044	31.8379
5.19522	32.2692
5.19002	32.6387
5.18483	33.0078
5.17965	33.3681
5.17448	33.7566
5.16933	34.1288
5.16418	34.4696
5.15904	34.8597
5.15391	35.249
5.14879	35.5881
5.14368	35.7739
5.13859	35.8837
5.1335	36.0453
5.12842	36.2685
5.12335	36.476
5.1183	36.6359
5.11325	36.8765
5.10821	36.9968
5.10318	36.9678
5.09817	36.8471
5.09316	36.6891
5.08816	36.3858
5.08317	35.7876
5.07819	34.6903
5.07322	33.0787
5.06826	31.3386
5.06331	30.372
5.05837	30.8429
5.05344	32.3598
5.04852	34.1029
5.04361	35.5694
5.03871	36.6576
5.03382	37.433
5.02894	37.9685
5.02406	38.4447
5.0192	38.7718
5.01435	38.9009
5.0095	39.0924
5.00467	39.3396
4.99984	39.5567
4.99502	39.8236
4.99021	40.0678
4.98542	40.3019
4.98063	40.6988
4.97585	41.1369
4.97108	41.5418
4.96632	42.0193
4.96156	42.459
4.95682	42.8953
4.95209	43.284
4.94736	43.5638
4.94264	43.7856
4.93794	43.9553
4.93324	44.0734
4.92855	44.3637
4.92387	44.6648
4.9192	44.9703
4.91453	45.3279
4.90988	45.7289
4.90524	46.2395
4.9006	46.8103
4.89597	47.2239
4.89135	47.5008
4.88674	47.7638
4.88214	48.0453
4.87755	48.3016
4.87296	48.4791
4.86839	48.5812
4.86382	48.7362
4.85926	48.8799
4.85471	49.0256
4.85017	49.0885
4.84564	49.0581
4.84111	49.0497
4.8366	49.1095
4.83209	49.152
4.82759	49.1607
4.8231	49.0994
4.81862	49.0951
4.81415	49.0913
4.80968	49.1066
4.80522	49.045
4.80077	49.0292
4.79633	49.0139
4.7919	48.9561
4.78747	48.9018
4.78306	48.8794
4.77865	48.8241
4.77425	48.7998
4.76986	48.7528
4.76547	48.6734
4.7611	48.5937
4.75673	48.4998
4.75237	48.4038
4.74802	48.3236
4.74367	48.1923
4.73934	48.0639
4.73501	47.8547
4.73069	47.6411
4.72638	47.2894
4.72207	46.8237
4.71777	46.3387
4.71348	45.862
4.7092	45.2762
4.70493	44.6421
4.70066	43.9687
4.69641	43.2104
4.69216	42.3486
4.68791	41.2863
4.68368	39.9676
4.67945	38.5771
4.67523	36.9238
4.67102	35.0603
4.66682	33.2282
4.66262	31.5248
4.65843	30.1336
4.65425	29.0656
4.65007	28.2095
4.64591	27.5548
4.64175	27.1741
4.6376	26.8883
4.63345	26.6541
4.62932	26.5086
4.62519	26.375
4.62106	26.2809
4.61695	26.3163
4.61284	26.4009
4.60874	26.5773
4.60465	27.018
4.60056	27.5983
4.59648	28.258
4.59241	29.0563
4.58835	29.9677
4.58429	30.8682
4.58024	31.8015
4.5762	32.6777
4.57216	33.4953
4.56814	34.1738
4.56411	34.7129
4.5601	35.3425
4.55609	36.0097
4.55209	36.6301
4.5481	37.2425
4.54411	37.7331
4.54013	38.109
4.53616	38.4226
4.5322	38.7591
4.52824	39.0759
4.52429	39.3985
4.52034	39.7697
4.51641	40.2376
4.51247	40.8891
4.50855	41.7377
4.50463	42.6961
4.50072	43.6457
4.49682	44.4393
4.49292	45.0032
4.48903	45.3138
4.48515	45.4189
4.48127	45.3589
4.4774	45.1027
4.47354	44.6882
4.46968	44.1291
4.46584	43.462
4.46199	42.7218
4.45815	41.8807
4.45432	41.1145
4.4505	40.4399
4.44668	39.9119
4.44287	39.5319
4.43907	39.2561
4.43527	39.2603
4.43148	39.5164
4.4277	39.864
4.42392	40.4002
4.42015	41.0136
4.41638	41.6377
4.41262	42.3133
4.40887	43.0626
4.40513	43.8076
4.40139	44.5015
4.39765	45.1902
4.39393	45.7764
4.39021	46.411
4.38649	47.0748
4.38278	47.6252
4.37908	48.1273
4.37539	48.6046
4.3717	49.0603
4.36801	49.4553
4.36434	49.9134
4.36067	50.3841
4.357	50.5318
4.35335	50.4175
4.34969	49.977
4.34605	48.9547
4.34241	47.6944
4.33877	46.5316
4.33514	45.6715
4.33152	45.0187
4.32791	44.5108
4.3243	44.0767
4.32069	43.6871
4.3171	43.3004
4.31351	42.801
4.30992	42.3505
4.30634	42.0251
4.30277	41.8
4.2992	41.4666
4.29564	41.1737
4.29208	40.7494
4.28853	40.0425
4.28499	39.3711
4.28145	38.8865
4.27792	38.5381
4.27439	38.3285
4.27087	38.2671
4.26735	38.4753
4.26384	39.0277
4.26034	39.7771
4.25684	40.5473
4.25335	41.27
4.24986	41.833
4.24638	42.2093
4.24291	42.6137
4.23944	43.0666
4.23598	43.4645
4.23252	43.8945
4.22906	44.243
4.22562	44.4679
4.22218	44.5567
4.21874	44.629
4.21531	44.8155
4.21189	45.0941
4.20847	45.5686
4.20506	46.0629
4.20165	46.4961
4.19825	46.8643
4.19485	47.0002
4.19146	46.9165
4.18807	46.7386
4.18469	46.5486
4.18132	46.3893
4.17795	46.1939
4.17458	45.9986
4.17123	45.7583
4.16787	45.4002
4.16453	45.0251
4.16118	44.5697
4.15785	44.0717
4.15451	43.5145
4.15119	42.9962
4.14787	42.7309
4.14455	42.7101
4.14124	42.8304
4.13794	42.8297
4.13464	42.7485
4.13134	42.7883
4.12805	42.8099
4.12477	42.6429
4.12149	42.4737
4.11822	42.3148
4.11495	42.1057
4.11168	41.8514
4.10843	41.5834
4.10517	41.2972
4.10192	40.9945
4.09868	40.668
4.09545	40.3053
4.09221	39.9345
4.08899	39.3836
4.08576	38.7513
4.08255	38.2077
4.07933	37.5998
4.07613	36.904
4.07292	36.1008
4.06973	35.2686
4.06654	34.5637
4.06335	33.7349
4.06017	32.7945
4.05699	31.915
4.05382	30.9382
4.05065	29.9291
4.04749	28.9808
4.04433	28.0068
4.04118	26.9823
4.03803	25.8431
4.03489	24.5321
4.03175	23.2433
4.02862	21.9759
4.02549	20.691
4.02237	19.3144
4.01925	17.8786
4.01614	16.4044
4.01303	14.957
4.00993	13.4949
4.00683	11.9228
4.00373	10.5112
4.00064	9.3758
3.99756	8.29569
3.99448	7.30982
3.9914	6.47762
3.98833	5.7707
3.98527	5.108
3.98221	4.3817
3.97915	3.6337
3.9761	3.14061
3.97305	2.80393
3.97001	2.54769
3.96697	2.36806
3.96394	2.31659
3.96091	2.2534
3.95789	2.24894
3.95487	2.29372
3.95186	2.33378
3.94885	2.38319
3.94584	2.40821
3.94284	2.39429
3.93984	2.3137
3.93685	2.3783
3.93386	2.49686
3.93088	2.54111
3.9279	2.47705
3.92493	2.46106
3.92196	2.5196
3.919	2.56671
3.91604	2.6174
3.91308	2.78111
3.91013	2.9945
3.90718	3.17158
3.90424	3.49705
3.9013	3.84837
3.89837	4.11773
3.89544	4.35272
3.89252	4.51609
3.8896	4.59001
3.88668	4.58713
3.88377	4.62174
3.88086	4.66657
3.87796	4.72218
3.87506	4.87125
3.87217	4.95938
3.86928	5.09119
3.86639	5.33111
3.86351	5.64568
3.86064	6.06454
3.85776	6.60379
3.8549	7.38487
3.85203	8.48163
3.84917	9.79371
3.84631	11.027
3.84346	11.9332
3.84062	12.3135
3.83777	12.2675
3.83494	11.9626
3.8321	11.3449
3.82927	10.6848
3.82644	10.0037
3.82362	9.2483
3.82081	8.52727
3.81799	7.75576
3.81518	6.96204
3.81238	6.25614
3.80958	5.69776
3.80678	5.40363
3.80399	5.40443
3.8012	5.51981
3.79841	5.76383
3.79563	6.15888
3.79286	6.69534
3.79008	7.38145
3.78731	8.12162
3.78455	8.8446
3.78179	9.60971
3.77903	10.6023
3.77628	11.6609
3.77353	12.6024
3.77079	13.6662
3.76805	14.8042
3.76531	15.9329
3.76258	17.2982
3.75985	18.8881
3.75713	20.5434
3.7544	22.4027
3.75169	24.4088
3.74898	26.5134
3.74627	28.7378
3.74356	30.8906
3.74086	32.8098
3.73816	34.4556
3.73547	35.8121
3.73278	36.8269
3.7301	37.7159
3.72741	38.4924
3.72474	39.1312
3.72206	39.6627
3.71939	40.1553
3.71673	40.5551
3.71406	40.9484
3.71141	41.3765
3.70875	41.8272
3.7061	42.2346
3.70345	42.6946
3.70081	43.1651
3.69817	43.6327
3.69553	44.1061
3.6929	44.5513
3.69027	45.0553
3.68765	45.506
3.68503	45.8345
3.68241	46.1052
3.6798	46.4099
3.67719	46.6425
3.67458	46.7991
3.67198	46.9266
3.66938	47.0177
3.66678	47.1489
3.66419	47.3117
3.66161	47.4468
3.65902	47.5239
3.65644	47.693
3.65387	47.8459
3.65129	47.814
3.64872	47.7413
3.64616	47.7172
3.64359	47.7518
3.64103	47.7443
3.63848	47.7617
3.63593	47.7973
3.63338	47.7857
3.63084	47.8045
3.6283	47.7652
3.62576	47.6613
3.62322	47.5332
3.62069	47.3703
3.61817	47.2634
3.61564	47.2588
3.61312	47.1681
3.61061	47.0555
3.6081	46.9342
3.60559	46.8106
3.60308	46.6629
3.60058	46.5653
3.59808	46.46
3.59558	46.2661
3.59309	46.1571
3.59061	46.1132
3.58812	45.9751
3.58564	45.769
3.58316	45.5324
3.58069	45.3419
3.57822	45.0971
3.57575	44.7371
3.57328	44.3841
3.57082	44.0186
3.56836	43.5018
3.56591	42.8872
3.56346	42.1441
3.56101	41.1748
3.55857	40.0314
3.55613	38.6384
3.55369	36.8778
3.55126	35.1153
3.54883	34.0828
3.5464	34.0089
3.54397	34.6357
3.54155	35.4159
3.53914	35.8453
3.53672	35.7831
3.53431	35.4479
3.5319	34.813
3.5295	33.9266
3.5271	32.8938
3.5247	31.6404
3.52231	30.1779
3.51991	28.6943
3.51753	27.0751
3.51514	25.3307
3.51276	23.439
3.51038	21.4416
3.50801	19.5252
3.50563	17.5589
3.50327	15.7388
3.5009	13.9066
3.49854	12.1588
3.49618	10.6073
3.49382	9.30426
3.49147	8.30444
3.48912	7.49549
3.48677	6.89897
3.48443	6.37533
3.48209	6.12805
3.47975	5.90574
3.47742	5.52505
3.47509	5.16362
3.47276	4.90714
3.47044	4.67115
3.46812	4.52889
3.4658	4.4408
3.46348	4.33135
3.46117	4.19237
3.45886	4.07092
3.45656	3.96031
3.45425	3.91624
3.45195	3.87157
3.44966	3.80421
3.44736	3.76137
3.44507	3.92052
3.44279	4.11954
3.4405	4.3223
3.43822	4.62882
3.43594	5.148
3.43367	5.68307
3.43139	6.04361
3.42912	6.36841
3.42686	6.78329
3.42459	7.12011
3.42233	7.32301
3.42007	7.47604
3.41782	7.63137
3.41557	7.71154
3.41332	7.90913
3.41108	8.1437
3.40883	8.11014
3.40659	8.07943
3.40435	8.21185
3.40212	8.33521
3.39989	8.38495
3.39766	8.5641
3.39544	8.80346
3.39322	9.00588
3.391	9.1175
3.38878	9.14769
3.38657	9.23157
3.38436	9.53496
3.38215	10.0465
3.37994	10.4975
3.37774	10.9899
3.37554	11.3557
3.37335	11.2868
3.37115	11.0505
3.36896	10.6903
3.36678	10.2165
3.36459	9.78404
3.36241	9.33847
3.36023	8.94045
3.35805	8.6103
3.35588	8.32904
3.35371	7.98219
3.35154	7.69689
3.34938	7.58185
3.34721	7.36982
3.34505	7.14472
3.3429	6.92616
3.34074	6.8189
3.33859	6.79206
3.33644	6.82776
3.3343	6.78142
3.33215	6.69429
3.33001	6.75208
3.32788	6.82195
3.32574	6.75945
3.32361	6.60223
3.32148	6.49806
3.31936	6.32602
3.31723	6.00796
3.31511	5.76832
3.31299	5.51058
3.31088	5.26922
3.30876	5.16637
3.30665	5.23206
3.30455	5.40633
3.30244	5.84738
3.30034	6.80976
3.29824	8.27544
3.29614	10.3279
3.29405	12.9237
3.29196	15.4842
3.28987	17.4608
3.28778	18.8989
3.2857	20.0386
3.28362	21.0876
3.28154	21.92
3.27946	22.5031
3.27739	22.9549
3.27532	23.4321
3.27325	23.8688
3.27119	24.1059
3.26913	24.365
3.26707	24.6955
3.26501	24.9464
3.26295	25.1546
3.2609	25.3163
3.25885	25.4401
3.2568	25.5459
3.25476	25.6522
3.25272	25.7833
3.25068	25.9261
3.24864	26.0409
3.24661	26.1022
3.24458	26.1321
3.24255	26.1214
3.24052	26.1362
3.2385	26.2398
3.23648	26.2968
3.23446	26.2496
3.23244	26.2494
3.23043	26.1858
3.22841	26.0559
3.2264	26.0031
3.2244	26.0049
3.22239	26.0605
3.22039	26.0079
3.21839	25.9579
3.2164	25.8793
3.2144	25.8353
3.21241	25.8837
3.21042	25.8483
3.20844	25.7086
3.20645	25.5806
3.20447	25.5165
3.20249	25.403
3.20051	25.2118
3.19854	25.0862
3.19657	25.007
3.1946	24.9454
3.19263	24.8388
3.19067	24.6638
3.1887	24.6379
3.18674	24.6522
3.18479	24.511
3.18283	24.2501
3.18088	24.1686
3.17893	24.1534
3.17698	24.0444
3.17504	23.9451
3.17309	23.8933
3.17115	23.7648
3.16921	23.5445
3.16728	23.3381
3.16534	23.2085
3.16341	23.1372
3.16148	23.0854
3.15956	23.0059
3.15763	22.7586
3.15571	22.4404
3.15379	22.2707
3.15187	22.1592
3.14996	21.9846
3.14805	21.8123
3.14614	21.5641
3.14423	21.2997
3.14232	21.1812
3.14042	21.0127
3.13852	20.8198
3.13662	20.7103
3.13472	20.6372
3.13283	20.5476
3.13094	20.332
3.12905	20.169
3.12716	20.1326
3.12528	20.0145
3.12339	19.8502
3.12151	19.7734
3.11964	19.6974
3.11776	19.6197
3.11589	19.5881
3.11401	19.496
3.11214	19.3662
3.11028	19.2533
3.10841	19.0616
3.10655	18.9728
3.10469	18.9122
3.10283	18.8018
3.10098	18.666
3.09912	18.6401
3.09727	18.6127
3.09542	18.4749
3.09358	18.2965
3.09173	18.1719
3.08989	18.0053
3.08805	17.8156
3.08621	17.8446
3.08437	17.8439
3.08254	17.6302
3.08071	17.5177
3.07888	17.6054
3.07705	17.6242
3.07523	17.5205
3.0734	17.4197
3.07158	17.3657
3.06977	17.3789
3.06795	17.3254
3.06613	17.2895
3.06432	17.4214
3.06251	17.5246
3.0607	17.4135
3.0589	17.2841
3.0571	17.201
3.05529	17.192
3.05349	17.1618
3.0517	17.0984
3.0499	17.0202
3.04811	16.9437
3.04632	16.9143
3.04453	16.8533
3.04274	16.8252
3.04096	16.7545
3.03918	16.7524
3.0374	16.7194
3.03562	16.6549
3.03384	16.6693
3.03207	16.7505
3.03029	16.7137
3.02852	16.4981
3.02676	16.3884
3.02499	16.339
3.02323	16.2791
3.02146	16.3511
3.0197	16.3598
3.01795	16.2438
3.01619	16.1579
3.01444	16.1405
3.01269	16.1828
3.01094	16.1756
3.00919	16.0183
3.00744	15.9177
3.0057	16.0222
3.00396	16.0296
3.00222	15.8325
3.00048	15.7056
2.99875	15.6657
2.99701	15.6445
2.99528	15.5253
2.99355	15.4371
2.99183	15.3817
2.9901	15.3052
2.98838	15.2372
2.98666	15.1592
2.98494	15.1136
2.98322	15.0584
2.9815	15.0656
2.97979	15.0696
2.97808	14.9271
2.97637	14.7271
2.97466	14.66
2.97295	14.6739
2.97125	14.6195
2.96955	14.5917
2.96785	14.5493
2.96615	14.4703
2.96446	14.4084
2.96276	14.3701
2.96107	14.3652
2.95938	14.2681
2.95769	14.0915
2.95601	13.9958
2.95432	14.1407
2.95264	14.1704
2.95096	14.0504
2.94928	14.0537
2.9476	14.0785
2.94593	14.0126
2.94425	13.9525
2.94258	13.9002
2.94092	13.9158
2.93925	14.0487
2.93758	14.0297
2.93592	13.8687
2.93426	13.8466
2.9326	13.971
2.93094	13.8914
2.92928	13.9447
2.92763	14.037
2.92598	14.0564
2.92433	13.9921
2.92268	13.9721
2.92103	14.0318
2.91939	14.1345
2.91775	14.1269
2.9161	14.034
2.91447	14.1747
2.91283	14.2178
2.91119	14.2329
2.90956	14.2622
2.90793	14.2501
2.9063	14.3835
2.90467	14.49
2.90304	14.3013
2.90142	14.2545
2.89979	14.455
2.89817	14.4951
2.89656	14.5486
2.89494	14.714
2.89332	14.893
2.89171	14.9084
2.8901	14.8274
2.88849	14.8512
2.88688	15.0201
2.88527	15.1227
2.88367	15.1145
2.88206	15.0611
2.88046	15.1656
2.87886	15.2711
2.87727	15.396
2.87567	15.5803
2.87408	15.6847
2.87248	15.8337
2.87089	16.0506
2.8693	16.1065
2.86772	16.0656
2.86613	16.1745
2.86455	16.3579
2.86297	16.4517
2.86139	16.5866
2.85981	16.7548
2.85823	16.8093
2.85666	16.8811
2.85508	17.1303
2.85351	17.2143
2.85194	17.3136
2.85038	17.4903
2.84881	17.6234
2.84724	17.7627
2.84568	17.9151
2.84412	18.1276
2.84256	18.2219
2.841	18.415
2.83945	18.6394
2.83789	18.8234
2.83634	18.905
2.83479	18.8828
2.83324	19.0694
2.83169	19.295
2.83015	19.4007
2.82861	19.5261
2.82706	19.7204
2.82552	19.7434
2.82398	19.8853
2.82245	20.2268
2.82091	20.4509
2.81938	20.5358
2.81784	20.5522
2.81631	20.6639
2.81479	20.9635
2.81326	21.1075
2.81173	21.2141
2.81021	21.4251
2.80869	21.5628
2.80716	21.6387
2.80565	21.8578
2.80413	22.1533
2.80261	22.2488
2.8011	22.152
2.79959	22.1514
2.79808	22.2564
2.79657	22.3196
2.79506	22.2346
2.79355	22.2193
2.79205	22.3448
2.79055	22.5281
2.78904	22.7037
2.78754	22.6626
2.78605	22.5152
2.78455	22.3789
2.78306	22.371
2.78156	22.4108
2.78007	22.4019
2.77858	22.3693
2.77709	22.2833
2.77561	22.0788
2.77412	21.963
2.77264	22.1533
2.77116	22.2266
2.76968	22.1429
2.7682	22.2584
2.76672	22.1988
2.76524	22.169
2.76377	22.3426
2.7623	22.6034
2.76083	22.7561
2.75936	23.0723
2.75789	23.4828
2.75642	24.2332
2.75496	24.8407
2.7535	25.0277
2.75203	25.6225
2.75057	26.1591
2.74912	26.6673
2.74766	27.1295
2.7462	27.7329
2.74475	28.4942
2.7433	29.3315
2.74185	30.402
2.7404	31.4165
2.73895	31.8974
2.7375	32.1726
2.73606	33.1374
2.73462	34.2203
2.73318	34.8263
2.73174	35.7606
2.7303	36.742
2.72886	37.5895
2.72742	38.6087
2.72599	39.8893
2.72456	41.3103
2.72313	42.1419
2.7217	43.455
2.72027	44.9964
2.71884	45.2565
2.71742	45.7403
2.71599	46.5261
2.71457	47.377
2.71315	48.1139
2.71173	49.2983
2.71032	50.2389
2.7089	50.5743
2.70748	50.5955
2.70607	50.7405
2.70466	51.3578
2.70325	52.1515
2.70184	53.2447
2.70043	54.0052
2.69903	54.5129
2.69762	55.2567
2.69622	56.2128
2.69482	57.314
2.69342	57.8827
2.69202	57.7684
2.69062	58.0593
2.68923	58.663
2.68783	59.3679
2.68644	60.1796
2.68505	60.7658
2.68366	61.2951
2.68227	61.5987
2.68089	62.1903
2.6795	63.3733
2.67812	64.1512
2.67673	64.7818
2.67535	64.7699
2.67397	64.6151
2.6726	65.0822
2.67122	66.7504
2.66984	67.2743
2.66847	66.838
2.6671	67.9019
2.66572	68.3339
2.66435	67.9355
2.66299	67.2949
2.66162	67.5537
2.66025	67.8898
2.65889	67.9365
2.65753	67.8227
2.65616	68.2093
2.65481	68.4244
2.65345	68.8579
2.65209	69.049
2.65073	68.7908
2.64938	68.8216
2.64803	69.0505
2.64667	69.3766
2.64532	69.5057
2.64397	69.3356
2.64263	69.5295
2.64128	69.493
2.63994	69.4584
2.63859	69.5414
2.63725	69.7427
2.63591	69.9121
2.63457	70.3441
2.63323	70.4558
2.6319	70.8285
2.63056	71.6135
2.62923	71.0156
2.62789	70.8977
2.62656	71.4598
2.62523	70.8869
2.6239	70.5526
2.62258	70.6638
2.62125	71.5098
2.61993	71.7663
2.6186	71.5316
2.61728	72.1908
2.61596	71.8961
2.61464	71.3015
2.61332	71.3978
2.61201	71.326
2.61069	71.4442
2.60938	71.5971
2.60807	71.7909
2.60675	72.2819
2.60544	72.7018
2.60414	72.2643
2.60283	71.9419
2.60152	71.6414
2.60022	71.2671
2.59891	71.1033
2.59761	71.5525
2.59631	72.8498
2.59501	74.3357
2.59371	73.2383
2.59242	71.7198
2.59112	71.3977
2.58983	71.6491
2.58853	71.9994
2.58724	72.166
2.58595	71.7394
2.58466	72.0946
2.58338	72.1276
2.58209	71.5491
2.5808	71.4297
2.57952	71.1527
2.57824	71.3128
2.57695	71.5004
2.57567	71.1823
2.5744	71.3405
2.57312	71.397
2.57184	70.7477
2.57057	70.85
2.56929	70.8079
2.56802	70.217
2.56675	69.9077
2.56548	70.0951
2.56421	70.3314
2.56294	70.2299
2.56168	70.2127
2.56041	69.6973
2.55915	69.1243
2.55789	68.8553
2.55662	68.6878
2.55536	68.3208
2.5541	68.1641
2.55285	68.2117
2.55159	67.7789
2.55034	67.1654
2.54908	66.6669
2.54783	66.2938
2.54658	65.643
2.54533	64.8233
2.54408	64.1663
2.54283	63.5055
2.54159	62.525
2.54034	61.5177
2.5391	60.5721
2.53785	59.7256
2.53661	58.9083
2.53537	57.9017
2.53413	57.1144
2.53289	56.537
2.53166	55.7534
2.53042	54.9862
2.52919	54.3979
2.52795	53.7903
2.52672	53.2705
2.52549	52.8103
2.52426	52.363
2.52303	51.9391
2.52181	51.6091
2.52058	51.363
2.51936	51.0764
2.51813	50.957
2.51691	50.8256
2.51569	50.6359
2.51447	50.689
2.51325	50.8478
2.51203	50.9477
2.51082	51.0391
2.5096	51.1247
2.50839	51.2867
2.50717	51.5272
2.50596	51.914
2.50475	52.2713
2.50354	52.5579
2.50233	52.6892
2.50113	52.7909
2.49992	53.0055
2.49872	53.2524
2.49751	53.5411
2.49631	53.7715
2.49511	54.0906
2.49391	54.4395
2.49271	54.6771
2.49151	54.8726
2.49031	55.2031
2.48912	55.6074
2.48792	55.9266
2.48673	56.2785
2.48554	56.6236
2.48435	57.0343
2.48316	57.3849
2.48197	57.6789
2.48078	57.9436
2.4796	58.146
2.47841	58.3734
2.47723	58.5144
2.47604	58.6206
2.47486	58.6943
2.47368	58.7629
2.4725	58.9874
2.47132	59.0836
2.47014	59.0321
2.46897	58.9393
2.46779	58.9852
2.46662	59.1535
2.46545	59.3611
2.46427	59.4431
2.4631	59.4729
2.46193	59.5493
2.46077	59.6863
2.4596	59.7984
2.45843	59.8738
2.45727	60.0948
2.4561	60.4422
2.45494	60.708
2.45378	60.9911
2.45262	61.3373
2.45146	61.6253
2.4503	61.7435
2.44914	61.9269
2.44799	62.3497
2.44683	62.7143
2.44568	63.0208
2.44452	63.4054
2.44337	63.62
2.44222	64.0088
2.44107	64.5733
2.43992	64.9378
2.43877	65.2305
2.43763	65.517
2.43648	65.7601
2.43534	66.1283
2.43419	66.4978
2.43305	66.6843
2.43191	66.9186
2.43077	67.1467
2.42963	67.3272
2.42849	67.646
2.42736	67.999
2.42622	68.3418
2.42509	68.6394
2.42395	68.7679
2.42282	68.9965
2.42169	69.2899
2.42056	69.5319
2.41943	69.786
2.4183	69.9566
2.41717	70.1731
2.41605	70.4912
2.41492	70.7462
2.4138	70.7705
2.41267	70.7827
2.41155	70.9277
2.41043	71.1951
2.40931	71.2926
2.40819	71.2613
2.40707	71.3178
2.40595	71.4444
2.40484	71.5584
2.40372	71.5836
2.40261	71.673
2.4015	71.8044
2.40039	71.8399
2.39928	71.8498
2.39817	71.9748
2.39706	72.2289
2.39595	72.5036
2.39484	72.5986
2.39374	72.5724
2.39263	72.6272
2.39153	72.7524
2.39043	72.6786
2.38932	72.6421
2.38822	72.8671
2.38712	73.0533
2.38603	72.9747
2.38493	72.8969
2.38383	73.0583
2.38274	73.0928
2.38164	72.9925
2.38055	73.1168
2.37946	73.2957
2.37836	73.5021
2.37727	73.76
2.37618	73.84
2.3751	73.8367
2.37401	73.875
2.37292	73.8443
2.37184	73.9144
2.37075	74.0164
2.36967	74.031
2.36859	74.0463
2.3675	74.1969
2.36642	74.2297
2.36534	74.102
2.36427	73.9786
2.36319	73.8955
2.36211	73.9031
2.36104	74.0024
2.35996	73.9596
2.35889	73.8489
2.35781	73.8283
2.35674	73.7678
2.35567	73.5219
2.3546	73.2051
2.35353	72.9417
2.35247	72.5746
2.3514	72.2541
2.35033	71.9866
2.34927	71.6227
2.3482	71.1041
2.34714	70.6257
2.34608	70.1272
2.34502	69.6022
2.34396	69.0959
2.3429	68.544
2.34184	68.0925
2.34078	67.7124
2.33973	67.2837
2.33867	66.7272
2.33762	66.223
2.33656	65.8517
2.33551	65.3401
2.33446	64.852
2.33341	64.3997
2.33236	63.8798
2.33131	63.3599
2.33026	62.9925
2.32922	62.7369
2.32817	62.5065
2.32712	62.2602
2.32608	62.0805
2.32504	61.9757
2.324	61.8183
2.32295	61.8195
2.32191	61.8421
2.32087	61.9554
2.31984	62.0584
2.3188	61.9864
2.31776	62.0875
2.31673	62.2465
2.31569	62.23
2.31466	62.311
2.31362	62.549
2.31259	62.7562
2.31156	62.9293
2.31053	63.0155
2.3095	62.997
2.30847	63.0974
2.30745	63.1925
2.30642	63.2731
2.3054	63.3889
2.30437	63.6312
2.30335	63.8404
2.30232	63.9054
2.3013	64.0914
2.30028	64.3252
2.29926	64.5322
2.29824	64.6811
2.29722	64.6848
2.29621	64.7775
2.29519	64.9964
2.29417	65.2409
2.29316	65.2857
2.29215	65.3914
2.29113	65.5836
2.29012	65.6857
2.28911	65.8345
2.2881	66.0196
2.28709	66.1961
2.28608	66.335
2.28507	66.302
2.28407	66.2879
2.28306	66.4853
2.28206	66.7535
2.28105	66.7347
2.28005	66.7365
2.27905	66.7534
2.27805	66.857
2.27705	67.0253
2.27605	67.0727
2.27505	67.0869
2.27405	67.1076
2.27305	67.1373
2.27206	67.2266
2.27106	67.179
2.27007	67.1402
2.26907	67.292
2.26808	67.4901
2.26709	67.7184
2.2661	67.8211
2.26511	67.9525
2.26412	68.1241
2.26313	68.3144
2.26214	68.4926
2.26116	68.7223
2.26017	68.9407
2.25919	69.1189
2.2582	69.2907
2.25722	69.5183
2.25624	69.8246
2.25526	69.9042
2.25428	70.0258
2.2533	70.2539
2.25232	70.5027
2.25134	70.7266
2.25036	70.9734
2.24939	71.2165
2.24841	71.359
2.24744	71.5227
2.24646	71.7515
2.24549	71.9698
2.24452	72.0965
2.24355	72.12
2.24257	72.3595
2.24161	72.5615
2.24064	72.7466
2.23967	72.7224
2.2387	72.769
2.23774	72.9856
2.23677	73.0318
2.23581	73.0909
2.23484	73.2734
2.23388	73.4082
2.23292	73.2875
2.23196	73.2808
2.231	73.5107
2.23004	73.503
2.22908	73.4818
2.22812	73.6802
2.22716	73.7905
2.22621	73.7326
2.22525	73.7379
2.2243	73.7664
2.22334	73.9125
2.22239	73.9525
2.22144	73.8896
2.22049	73.9526
2.21953	74.041
2.21859	74.1073
2.21764	74.1505
2.21669	74.3075
2.21574	74.3845
2.21479	74.2579
2.21385	74.2134
2.2129	74.1334
2.21196	74.0303
2.21102	74.0823
2.21007	74.1452
2.20913	74.1898
2.20819	74.3098
2.20725	74.4473
2.20631	74.4236
2.20537	74.5758
2.20444	74.7607
2.2035	74.6924
2.20256	74.7997
2.20163	75.0172
2.20069	75.1527
2.19976	75.0846
2.19883	75.0241
2.19789	75.1136
2.19696	75.181
2.19603	75.3764
2.1951	75.3953
2.19417	75.2968
2.19325	75.2847
2.19232	75.3447
2.19139	75.4256
2.19047	75.5043
2.18954	75.5875
2.18862	75.6763
2.18769	75.7924
2.18677	75.8617
2.18585	75.7984
2.18493	75.6341
2.18401	75.6624
2.18309	75.7916
2.18217	75.7403
2.18125	75.8389
2.18033	75.9767
2.17942	76.09
2.1785	76.0823
2.17759	75.9797
2.17667	76.0689
2.17576	76.132
2.17485	76.1722
2.17393	76.1997
2.17302	76.1655
2.17211	76.049
2.1712	76.0243
2.17029	76.0808
2.16939	76.045
2.16848	76.1904
2.16757	76.2207
2.16667	76.0791
2.16576	76.1167
2.16486	76.1954
2.16395	76.177
2.16305	76.0002
2.16215	75.7972
2.16125	75.844
2.16035	75.9561
2.15945	76.0707
2.15855	76.1279
2.15765	76.0715
2.15675	75.9327
2.15586	75.9017
2.15496	75.8897
2.15406	75.932
2.15317	75.966
2.15228	75.8983
2.15138	75.89
2.15049	75.822
2.1496	75.7454
2.14871	75.8413
2.14782	75.8049
2.14693	75.6088
2.14604	75.557
2.14515	75.7489
2.14427	76.0044
2.14338	75.9803
2.14249	75.7743
2.14161	75.7235
2.14072	75.7026
2.13984	75.6629
2.13896	75.7711
2.13808	75.8336
2.13719	75.8904
2.13631	75.8936
2.13543	75.8511
2.13455	75.7831
2.13368	75.7495
2.1328	75.7459
2.13192	75.7784
2.13105	75.9946
2.13017	76.0287
2.1293	75.9439
2.12842	75.9097
2.12755	75.8623
2.12668	75.8318
2.1258	75.9953
2.12493	76.1403
2.12406	76.1549
2.12319	76.1415
2.12232	76.0996
2.12145	76.0602
2.12059	76.0699
2.11972	76.067
2.11885	76.1198
2.11799	76.1103
2.11712	76.1194
2.11626	76.2303
2.1154	76.3891
2.11453	76.4355
2.11367	76.3481
2.11281	76.2344
2.11195	76.1896
2.11109	76.1892
2.11023	76.1963
2.10937	76.3768
2.10851	76.4795
2.10766	76.264
2.1068	76.3253
2.10594	76.2938
2.10509	76.1496
2.10423	76.284
2.10338	76.4689
2.10253	76.2574
2.10168	76.1583
2.10082	76.2784
2.09997	76.3061
2.09912	76.3123
2.09827	76.4887
2.09742	76.5292
2.09658	76.378
2.09573	76.3818
2.09488	76.3957
2.09404	76.2505
2.09319	76.2564
2.09235	76.3031
2.0915	76.4564
2.09066	76.5089
2.08982	76.2592
2.08897	76.0656
2.08813	76.0886
2.08729	76.2822
2.08645	76.4159
2.08561	76.1853
2.08477	75.9851
2.08394	76.0375
2.0831	76.1588
2.08226	76.1397
2.08143	76.3245
2.08059	76.3347
2.07976	76.0309
2.07892	75.9152
2.07809	76.399
2.07726	76.8209
2.07643	76.4785
2.07559	76.0257
2.07476	75.909
2.07393	75.9288
2.0731	76.2597
2.07228	76.5027
2.07145	76.4887
2.07062	76.5283
2.06979	76.398
2.06897	76.2202
2.06814	75.7921
2.06732	75.9391
2.06649	76.2467
2.06567	76.3299
2.06485	76.53
2.06403	76.7592
2.0632	76.4348
2.06238	76.2622
2.06156	76.2459
2.06074	76.0556
2.05993	75.9547
2.05911	76.0554
2.05829	75.9983
2.05747	76.0594
2.05666	76.2023
2.05584	76.4438
2.05503	76.4603
2.05421	76.2397
2.0534	76.0785
2.05259	76.0621
2.05177	76.0917
2.05096	76.0202
2.05015	75.9091
2.04934	76.1186
2.04853	76.2252
2.04772	76.079
2.04691	75.8748
2.04611	75.952
2.0453	76.1405
2.04449	76.0505
2.04369	75.9778
2.04288	75.9818
2.04208	76.0215
2.04127	75.9037
2.04047	75.8243
2.03967	75.7554
2.03886	75.6359
2.03806	75.8005
2.03726	76.0053
2.03646	75.833
2.03566	75.6468
2.03486	75.7042
2.03407	75.7019
2.03327	75.7908
2.03247	75.8715
2.03167	75.7567
2.03088	75.4099
2.03008	75.3319
2.02929	75.5849
2.0285	75.6524
2.0277	75.6616
2.02691	75.6763
2.02612	75.5809
2.02533	75.5469
2.02453	75.3631
2.02374	75.2441
2.02295	75.2969
2.02217	75.3998
2.02138	75.5354
2.02059	75.4814
2.0198	75.3387
2.01902	75.3154
2.01823	75.3566
2.01744	75.2478
2.01666	75.1886
2.01588	75.0805
2.01509	75.137
2.01431	75.2439
2.01353	75.1012
2.01275	75.0358
2.01196	75.0463
2.01118	75.007
2.0104	75.0495
2.00963	75.0218
2.00885	74.9309
2.00807	74.9763
2.00729	74.8585
2.00651	74.7389
2.00574	74.8983
2.00496	74.894
2.00419	74.7361
2.00341	74.5981
2.00264	74.5024
2.00187	74.3765
2.00109	74.4306
2.00032	74.499
