Name: Rutile TiO_2
Type: Mineral
Class: Oxides
Subclass: 
Particle Size: 0-45um
Sample No.: O-2A
Owner: JPL
Wavelength range: IR
Origin: 
Collected by JPL
Description: 





Measurement: Hemispherical reflectance
First Column: X
Second Column: Y
X Units:  Wavelength (micrometers)
Y Units:  Reflectance (percent)
First X Value: 15.3853
Last X Value: 2.00032
Number of X Values: 2256
Additional information: o02aa.txt
 
15.3853	10.4883
15.3397	10.4288
15.2945	10.5618
15.2495	10.5956
15.2048	10.4675
15.1603	10.2989
15.1161	10.2132
15.0722	10.3827
15.0285	10.3899
14.9851	10.0824
14.9419	9.92608
14.8989	10.0425
14.8563	9.95874
14.8138	10.0188
14.7716	10.11
14.7296	10.0889
14.6879	10.1925
14.6464	10.3661
14.6052	10.4444
14.5641	10.5017
14.5233	10.2208
14.4828	10.0957
14.4424	10.1901
14.4023	10.1713
14.3624	10.12
14.3227	10.115
14.2833	9.92964
14.244	9.88934
14.205	9.95119
14.1662	9.98818
14.1276	10.0558
14.0892	10.1675
14.051	10.0906
14.0131	9.91056
13.9753	9.87983
13.9377	9.82811
13.9004	9.829
13.8632	9.88959
13.8262	9.93929
13.7895	9.82063
13.7529	9.77608
13.7165	9.79296
13.6803	9.65901
13.6443	9.67804
13.6085	9.8472
13.5729	9.66004
13.5374	9.29936
13.5022	9.2095
13.4671	9.25718
13.4322	9.27619
13.3975	9.24948
13.363	9.24276
13.3286	9.21254
13.2944	9.12833
13.2604	8.98733
13.2266	8.85142
13.193	8.74329
13.1595	8.51228
13.1262	8.31136
13.093	8.17514
13.06	8.12852
13.0272	8.15627
12.9946	8.04933
12.9621	8.01961
12.9298	7.85408
12.8976	7.62555
12.8656	7.48564
12.8337	7.32173
12.8021	7.37219
12.7705	7.37456
12.7391	7.16057
12.7079	6.96321
12.6769	6.87324
12.6459	6.80915
12.6152	6.67543
12.5845	6.52931
12.5541	6.44178
12.5238	6.23095
12.4936	6.02953
12.4635	6.02495
12.4337	6.00081
12.4039	5.89575
12.3743	5.7441
12.3448	5.56456
12.3155	5.3813
12.2863	5.21534
12.2573	5.15384
12.2284	5.1113
12.1996	4.95888
12.171	4.82865
12.1425	4.67821
12.1141	4.45237
12.0859	4.19808
12.0578	4.03147
12.0298	3.99241
12.0019	3.99
11.9742	3.94053
11.9466	3.8507
11.9192	3.67792
11.8918	3.57643
11.8646	3.43574
11.8375	3.36345
11.8106	3.13382
11.7837	2.83877
11.757	2.77952
11.7304	2.78479
11.7039	2.74938
11.6776	2.69038
11.6513	2.61528
11.6252	2.61747
11.5992	2.60961
11.5733	2.65246
11.5475	2.66358
11.5219	2.55869
11.4963	2.54539
11.4709	2.55929
11.4455	2.63955
11.4203	2.643
11.3952	2.54601
11.3702	2.3639
11.3454	2.26958
11.3206	2.33511
11.2959	2.34568
11.2714	2.33862
11.2469	2.34249
11.2226	2.32347
11.1983	2.26877
11.1742	2.34076
11.1502	2.44717
11.1263	2.45568
11.1024	2.4946
11.0787	2.56784
11.0551	2.53716
11.0316	2.53142
11.0081	2.57148
10.9848	2.60543
10.9616	2.57185
10.9385	2.55568
10.9154	2.597
10.8925	2.61682
10.8697	2.57435
10.8469	2.52856
10.8243	2.61628
10.8017	2.68054
10.7793	2.72702
10.7569	2.7281
10.7346	2.68521
10.7125	2.88476
10.6904	3.02793
10.6684	3.00686
10.6465	3.1148
10.6247	3.18933
10.6029	3.27225
10.5813	3.26576
10.5597	3.33544
10.5383	3.42559
10.5169	3.50915
10.4956	3.52086
10.4744	3.50468
10.4533	3.56905
10.4323	3.68526
10.4113	3.72753
10.3904	3.79198
10.3697	3.79705
10.349	3.80303
10.3284	3.9865
10.3078	4.12199
10.2874	4.18438
10.267	4.13552
10.2467	4.1699
10.2265	4.32247
10.2064	4.35742
10.1863	4.34612
10.1663	4.35822
10.1464	4.29488
10.1266	4.36954
10.1069	4.50255
10.0872	4.58653
10.0676	4.70738
10.0481	4.66544
10.0287	4.62242
10.0093	4.58225
9.99005	4.52804
9.97084	4.61169
9.95169	4.62716
9.93263	4.58573
9.91364	4.6318
9.89472	4.6722
9.87587	4.47239
9.8571	4.43056
9.83839	4.53788
9.81976	4.49573
9.80119	4.53191
9.78271	4.57313
9.76428	4.46131
9.74592	4.58093
9.72764	4.76814
9.70943	4.82151
9.69128	4.98326
9.6732	5.06699
9.65518	5.07399
9.63724	5.13627
9.61935	5.24758
9.60155	5.40795
9.5838	5.55789
9.56611	5.53858
9.5485	5.59894
9.53094	5.76818
9.51345	5.90067
9.49604	6.03889
9.47867	6.22598
9.46137	6.38303
9.44414	6.48499
9.42697	6.71285
9.40986	6.94228
9.39281	7.04862
9.37583	7.09667
9.35891	7.26828
9.34204	7.57429
9.32524	7.85392
9.3085	8.04825
9.29182	8.19798
9.27519	8.42951
9.25863	8.66313
9.24213	8.90268
9.22568	9.07689
9.2093	9.07264
9.19297	9.13736
9.17669	9.16538
9.16048	9.28595
9.14433	9.45603
9.12823	9.48578
9.11218	9.57112
9.0962	9.65869
9.08027	9.83417
9.06439	10.0193
9.04858	10.057
9.03281	10.1232
9.0171	10.1236
9.00145	10.1393
8.98585	10.3013
8.9703	10.385
8.9548	10.5898
8.93937	10.8986
8.92398	11.1809
8.90865	11.2621
8.89337	11.243
8.87814	11.3368
8.86296	11.5598
8.84784	11.82
8.83277	11.982
8.81774	12.0236
8.80277	12.1326
8.78786	12.4332
8.77298	12.6477
8.75816	12.8801
8.7434	13.0704
8.72868	13.1918
8.714	13.3393
8.69938	13.5279
8.68481	13.5989
8.67029	13.6402
8.65581	13.7952
8.64139	13.9434
8.62701	14.0206
8.61268	14.1831
8.5984	14.3122
8.58416	14.3955
8.56997	14.5037
8.55583	14.6059
8.54174	14.7334
8.52769	14.8691
8.51368	14.8025
8.49973	14.8405
8.48582	15.0486
8.47195	15.192
8.45813	15.3142
8.44436	15.4736
8.43062	15.6541
8.41693	15.7841
8.4033	15.8174
8.3897	15.8268
8.37614	15.9564
8.36264	16.1339
8.34917	16.2516
8.33574	16.4311
8.32236	16.6004
8.30903	16.7617
8.29573	16.9866
8.28248	17.0662
8.26927	17.0871
8.2561	17.2061
8.24298	17.4385
8.2299	17.6599
8.21685	17.8632
8.20385	17.9823
8.19089	18.0351
8.17797	18.2007
8.16509	18.3211
8.15225	18.4288
8.13946	18.6267
8.1267	18.7283
8.11398	18.7983
8.10131	19.0326
8.08867	19.1347
8.07606	19.1507
8.0635	19.1872
8.05099	19.306
8.0385	19.5385
8.02606	19.7474
8.01366	19.8617
8.00129	19.8831
7.98896	19.988
7.97667	20.1696
7.96442	20.3063
7.9522	20.466
7.94002	20.6293
7.92788	20.867
7.91578	21.0911
7.90371	21.1574
7.89168	21.2125
7.87969	21.4362
7.86773	21.7717
7.85581	22.0158
7.84392	22.1136
7.83207	22.2831
7.82026	22.5771
7.80849	22.8125
7.79674	23.028
7.78503	23.2503
7.77337	23.5254
7.76173	23.8206
7.75012	24.0105
7.73856	24.2236
7.72703	24.5018
7.71553	24.7522
7.70406	25.0237
7.69263	25.335
7.68123	25.5507
7.66987	25.699
7.65855	25.9026
7.64725	26.1065
7.63598	26.3578
7.62475	26.5844
7.61356	26.7563
7.60239	26.9487
7.59126	27.181
7.58017	27.367
7.5691	27.5706
7.55806	27.8649
7.54707	28.0632
7.5361	28.2052
7.52516	28.3841
7.51425	28.5477
7.50338	28.7466
7.49253	28.9556
7.48172	29.1223
7.47094	29.352
7.46019	29.5059
7.44947	29.5304
7.43879	29.663
7.42813	29.8233
7.4175	29.9899
7.4069	30.1576
7.39634	30.2684
7.3858	30.3978
7.37529	30.4675
7.36482	30.4804
7.35437	30.6859
7.34396	30.985
7.33357	31.0428
7.32321	30.9221
7.31288	30.9452
7.30258	31.0234
7.29231	31.1113
7.28207	31.1786
7.27185	31.2681
7.26167	31.3287
7.25152	31.423
7.24139	31.4508
7.23129	31.4796
7.22122	31.5799
7.21117	31.7341
7.20116	31.7496
7.19117	31.6783
7.18121	31.7371
7.17128	31.9038
7.16137	31.9489
7.1515	32.1007
7.14164	32.1436
7.13182	32.0476
7.12203	32.1192
7.11225	32.1791
7.10251	32.1956
7.0928	32.2665
7.08311	32.2946
7.07344	32.3356
7.06381	32.3496
7.0542	32.494
7.04461	32.6277
7.03506	32.3281
7.02552	32.2489
7.01601	32.3062
7.00653	32.3892
6.99708	32.52
6.98765	32.4777
6.97824	32.4236
6.96886	32.756
6.95951	33.1468
6.95018	32.9453
6.94087	32.8078
6.9316	32.884
6.92234	32.9939
6.91311	33.2286
6.90391	33.3436
6.89473	33.3623
6.88557	33.5086
6.87644	33.7546
6.86733	34.4679
6.85824	34.6256
6.84918	34.3083
6.84015	34.2861
6.83114	34.5765
6.82215	34.6867
6.81319	34.5952
6.80424	34.8994
6.79532	35.5272
6.78643	35.8115
6.77756	35.7364
6.76871	35.7465
6.75989	35.7814
6.75109	35.9576
6.74231	36.0552
6.73355	36.2504
6.72482	36.5987
6.71611	36.977
6.70742	37.1524
6.69875	37.1517
6.69011	37.536
6.68149	37.9986
6.67289	38.0322
6.66431	37.9523
6.65576	38.1221
6.64722	38.8227
6.63871	39.6875
6.63022	39.5034
6.62175	39.1466
6.61331	39.2511
6.60488	39.4227
6.59648	39.7615
6.5881	40.0274
6.57974	40.432
6.5714	40.8266
6.56308	40.6146
6.55478	40.6209
6.54651	40.642
6.53825	40.6571
6.53001	40.9421
6.5218	41.3523
6.51361	41.2382
6.50544	41.5634
6.49729	42.5468
6.48915	42.6772
6.48104	42.2367
6.47295	42.0559
6.46488	41.8778
6.45683	41.8897
6.4488	42.0236
6.44079	42.1976
6.4328	42.4921
6.42482	42.8182
6.41687	43.7018
6.40894	43.4907
6.40103	42.4694
6.39314	42.2164
6.38526	42.2249
6.37741	42.4165
6.36957	42.6058
6.36176	42.2675
6.35396	42.3087
6.34618	42.842
6.33843	42.5017
6.33069	41.9505
6.32297	41.9114
6.31527	41.8509
6.30758	41.8016
6.29992	41.818
6.29227	41.8977
6.28465	41.9015
6.27704	41.9055
6.26945	41.8765
6.26188	41.8489
6.25432	41.8384
6.24679	41.8568
6.23927	41.8087
6.23177	41.7321
6.22429	41.6916
6.21683	41.6782
6.20938	41.6535
6.20195	41.5624
6.19454	41.6773
6.18715	42.1837
6.17978	41.9584
6.17242	41.588
6.16508	41.757
6.15776	41.8703
6.15045	41.7932
6.14317	41.8398
6.1359	41.7237
6.12864	41.7122
6.12141	42.2295
6.11419	42.8108
6.10699	42.5481
6.0998	42.2249
6.09263	42.1506
6.08549	42.2576
6.07835	42.7945
6.07123	43.1638
6.06413	42.9723
6.05705	43.446
6.04998	44.6362
6.04293	44.1014
6.0359	43.3038
6.02888	43.2301
6.02187	43.4494
6.01489	43.7719
6.00792	43.778
6.00096	43.7396
5.99403	44.1208
5.98711	44.4532
5.9802	44.3914
5.97331	44.5853
5.96644	44.8146
5.95958	44.6962
5.95274	44.8999
5.94591	45.4114
5.9391	46.3587
5.9323	46.2308
5.92552	45.6443
5.91876	45.6941
5.91201	45.8108
5.90528	46.1248
5.89856	46.9275
5.89186	47.0167
5.88517	47.4039
5.8785	47.6736
5.87184	46.9633
5.8652	47.0415
5.85857	47.1204
5.85196	47.1433
5.84536	47.2461
5.83878	47.4728
5.83221	47.9062
5.82566	48.5526
5.81912	48.6637
5.81259	48.17
5.80608	48.0226
5.79959	48.1316
5.79311	48.2855
5.78665	48.5236
5.78019	48.6834
5.77376	49.1339
5.76734	49.8057
5.76093	49.4851
5.75453	49.1769
5.74815	49.3828
5.74179	49.2158
5.73543	49.1639
5.7291	49.3017
5.72277	49.5115
5.71646	49.7025
5.71017	49.8594
5.70389	49.5706
5.69762	49.4673
5.69136	49.5425
5.68513	49.5354
5.6789	49.7436
5.67268	49.7771
5.66648	49.6513
5.6603	49.8248
5.65413	49.9717
5.64797	50.1541
5.64182	50.4875
5.63569	50.2355
5.62957	49.9622
5.62347	49.9416
5.61737	50.0412
5.61129	50.0091
5.60522	49.9012
5.59917	49.793
5.59313	49.6935
5.5871	49.6822
5.58109	49.7367
5.57509	49.493
5.5691	49.1289
5.56312	49.1238
5.55716	49.3588
5.55121	49.6477
5.54528	49.7929
5.53935	49.9791
5.53344	50.1423
5.52754	50.2995
5.52166	50.3708
5.51578	50.3609
5.50992	50.4699
5.50407	50.6283
5.49823	50.6496
5.49241	50.7911
5.4866	50.992
5.4808	51.1588
5.47501	51.2032
5.46923	51.3299
5.46347	51.4859
5.45772	51.4204
5.45198	51.3985
5.44625	51.4668
5.44054	51.5252
5.43484	51.5956
5.42914	51.7932
5.42347	52.1161
5.4178	51.9598
5.41214	51.7483
5.4065	51.6809
5.40087	51.5953
5.39525	51.6004
5.38964	51.638
5.38404	51.624
5.37846	51.5836
5.37288	51.6019
5.36732	51.5992
5.36177	51.5939
5.35623	51.7719
5.35071	51.9212
5.34519	51.8046
5.33968	51.7223
5.33419	51.8295
5.32871	51.877
5.32324	51.9125
5.31778	51.9946
5.31233	52.0586
5.30689	52.1283
5.30147	52.1875
5.29605	52.2782
5.29065	52.3649
5.28525	52.3562
5.27987	52.4401
5.2745	52.4506
5.26914	52.4486
5.26379	52.5307
5.25845	52.5968
5.25312	52.6714
5.24781	52.7486
5.2425	52.8006
5.23721	52.8709
5.23192	52.9716
5.22665	53.0436
5.22138	53.0492
5.21613	53.2248
5.21089	53.3036
5.20566	53.2955
5.20044	53.3471
5.19522	53.3391
5.19002	53.3273
5.18483	53.3333
5.17965	53.3689
5.17448	53.4115
5.16933	53.4563
5.16418	53.4667
5.15904	53.4906
5.15391	53.5192
5.14879	53.5588
5.14368	53.5476
5.13859	53.5819
5.1335	53.5838
5.12842	53.578
5.12335	53.6665
5.1183	53.7649
5.11325	53.8304
5.10821	53.8742
5.10318	53.8497
5.09817	53.8661
5.09316	53.9232
5.08816	53.9723
5.08317	54.051
5.07819	54.0503
5.07322	54.0917
5.06826	54.0947
5.06331	54.0679
5.05837	54.0948
5.05344	54.2303
5.04852	54.3147
5.04361	54.296
5.03871	54.2612
5.03382	54.2363
5.02894	54.3183
5.02406	54.4787
5.0192	54.5668
5.01435	54.5244
5.0095	54.4741
5.00467	54.461
4.99984	54.512
4.99502	54.5218
4.99021	54.5662
4.98542	54.7044
4.98063	54.7294
4.97585	54.7017
4.97108	54.7195
4.96632	54.7956
4.96156	54.9076
4.95682	54.9232
4.95209	54.9178
4.94736	54.9653
4.94264	54.9651
4.93794	54.9848
4.93324	55.0293
4.92855	55.0673
4.92387	55.0446
4.9192	55.1138
4.91453	55.2091
4.90988	55.229
4.90524	55.2516
4.9006	55.294
4.89597	55.3584
4.89135	55.4424
4.88674	55.5232
4.88214	55.5026
4.87755	55.4958
4.87296	55.5672
4.86839	55.5576
4.86382	55.5202
4.85926	55.575
4.85471	55.5858
4.85017	55.5634
4.84564	55.639
4.84111	55.6984
4.8366	55.7329
4.83209	55.7213
4.82759	55.728
4.8231	55.7374
4.81862	55.7297
4.81415	55.7067
4.80968	55.6776
4.80522	55.7177
4.80077	55.7367
4.79633	55.765
4.7919	55.8213
4.78747	55.8068
4.78306	55.7841
4.77865	55.7799
4.77425	55.801
4.76986	55.8638
4.76547	55.9102
4.7611	55.8955
4.75673	55.7894
4.75237	55.6989
4.74802	55.807
4.74367	55.8634
4.73934	55.8481
4.73501	55.7561
4.73069	55.722
4.72638	55.7433
4.72207	55.7778
4.71777	55.7984
4.71348	55.8199
4.7092	55.8627
4.70493	55.8416
4.70066	55.8866
4.69641	55.9319
4.69216	55.8841
4.68791	55.8907
4.68368	56.004
4.67945	56.0485
4.67523	56.0086
4.67102	56.0852
4.66682	56.1971
4.66262	56.2238
4.65843	56.2525
4.65425	56.33
4.65007	56.3427
4.64591	56.3246
4.64175	56.3872
4.6376	56.4671
4.63345	56.4438
4.62932	56.5034
4.62519	56.5845
4.62106	56.5606
4.61695	56.5487
4.61284	56.5938
4.60874	56.6022
4.60465	56.6
4.60056	56.6513
4.59648	56.6928
4.59241	56.6256
4.58835	56.5918
4.58429	56.6879
4.58024	56.7419
4.5762	56.7848
4.57216	56.7885
4.56814	56.7595
4.56411	56.7688
4.5601	56.7118
4.55609	56.7652
4.55209	56.8605
4.5481	56.845
4.54411	56.8394
4.54013	56.8375
4.53616	56.7885
4.5322	56.8328
4.52824	56.8279
4.52429	56.7807
4.52034	56.7742
4.51641	56.8292
4.51247	56.847
4.50855	56.833
4.50463	56.861
4.50072	56.8811
4.49682	56.8235
4.49292	56.7975
4.48903	56.8471
4.48515	56.8808
4.48127	56.8826
4.4774	56.8604
4.47354	56.807
4.46968	56.8553
4.46584	56.9188
4.46199	56.9345
4.45815	56.8947
4.45432	56.8902
4.4505	56.9416
4.44668	56.942
4.44287	56.9286
4.43907	56.8968
4.43527	56.8755
4.43148	56.8619
4.4277	56.8473
4.42392	56.9044
4.42015	56.9913
4.41638	56.9712
4.41262	56.8811
4.40887	56.9101
4.40513	56.9712
4.40139	56.9941
4.39765	56.9763
4.39393	56.9632
4.39021	56.9635
4.38649	56.9874
4.38278	56.9783
4.37908	56.9664
4.37539	56.9499
4.3717	56.9512
4.36801	56.9148
4.36434	56.9529
4.36067	57.0115
4.357	56.9674
4.35335	56.9472
4.34969	56.9743
4.34605	56.9731
4.34241	57.0089
4.33877	57.0451
4.33514	56.9979
4.33152	56.9649
4.32791	56.9615
4.3243	56.9291
4.32069	56.9301
4.3171	56.9567
4.31351	56.9565
4.30992	56.9266
4.30634	56.924
4.30277	56.9625
4.2992	56.9581
4.29564	56.9264
4.29208	56.9903
4.28853	57.0575
4.28499	57.0534
4.28145	56.9986
4.27792	56.953
4.27439	56.9558
4.27087	56.918
4.26735	56.9274
4.26384	56.951
4.26034	56.8982
4.25684	56.9145
4.25335	56.9679
4.24986	56.9618
4.24638	56.9291
4.24291	56.9564
4.23944	56.9762
4.23598	56.9667
4.23252	56.9076
4.22906	56.9029
4.22562	57.0079
4.22218	57.0154
4.21874	56.9059
4.21531	56.8779
4.21189	56.9427
4.20847	56.9918
4.20506	56.9865
4.20165	56.9865
4.19825	56.9788
4.19485	56.9126
4.19146	56.9136
4.18807	56.9463
4.18469	56.9669
4.18132	56.9799
4.17795	56.9572
4.17458	56.9837
4.17123	56.9952
4.16787	56.9272
4.16453	56.8448
4.16118	56.8505
4.15785	56.8945
4.15451	56.9382
4.15119	56.9144
4.14787	56.9049
4.14455	56.973
4.14124	56.9309
4.13794	56.9013
4.13464	56.971
4.13134	56.9244
4.12805	56.8388
4.12477	56.8477
4.12149	56.9031
4.11822	56.9002
4.11495	56.8827
4.11168	56.8091
4.10843	56.8468
4.10517	56.8631
4.10192	56.8259
4.09868	56.8168
4.09545	56.8398
4.09221	56.8551
4.08899	56.8022
4.08576	56.7575
4.08255	56.7337
4.07933	56.7288
4.07613	56.7088
4.07292	56.7419
4.06973	56.7682
4.06654	56.6995
4.06335	56.6555
4.06017	56.6352
4.05699	56.6327
4.05382	56.6288
4.05065	56.6115
4.04749	56.588
4.04433	56.5315
4.04118	56.4852
4.03803	56.4119
4.03489	56.2905
4.03175	56.2145
4.02862	56.1578
4.02549	56.0281
4.02237	55.9853
4.01925	56.0076
4.01614	55.9605
4.01303	55.8976
4.00993	55.8306
4.00683	55.722
4.00373	55.6246
4.00064	55.4993
3.99756	55.448
3.99448	55.4483
3.9914	55.4568
3.98833	55.4304
3.98527	55.3184
3.98221	55.25
3.97915	55.2735
3.9761	55.3127
3.97305	55.3538
3.97001	55.3609
3.96697	55.3748
3.96394	55.4357
3.96091	55.4571
3.95789	55.5078
3.95487	55.5476
3.95186	55.5858
3.94885	55.6341
3.94584	55.6801
3.94284	55.7648
3.93984	55.8118
3.93685	55.848
3.93386	55.8586
3.93088	55.8152
3.9279	55.7643
3.92493	55.7766
3.92196	55.8227
3.919	55.7902
3.91604	55.7637
3.91308	55.7494
3.91013	55.7716
3.90718	55.8391
3.90424	55.8307
3.9013	55.7817
3.89837	55.815
3.89544	55.8672
3.89252	55.8289
3.8896	55.7329
3.88668	55.6912
3.88377	55.6721
3.88086	55.6586
3.87796	55.7463
3.87506	55.7691
3.87217	55.729
3.86928	55.7388
3.86639	55.7827
3.86351	55.7136
3.86064	55.6527
3.85776	55.6405
3.8549	55.6213
3.85203	55.6108
3.84917	55.6082
3.84631	55.603
3.84346	55.6688
3.84062	55.6406
3.83777	55.5561
3.83494	55.599
3.8321	55.6527
3.82927	55.6088
3.82644	55.5315
3.82362	55.5808
3.82081	55.6554
3.81799	55.6701
3.81518	55.6512
3.81238	55.654
3.80958	55.5814
3.80678	55.5265
3.80399	55.5486
3.8012	55.6231
3.79841	55.6748
3.79563	55.6214
3.79286	55.5707
3.79008	55.5247
3.78731	55.5505
3.78455	55.5514
3.78179	55.5373
3.77903	55.5777
3.77628	55.5459
3.77353	55.5322
3.77079	55.5613
3.76805	55.5141
3.76531	55.4631
3.76258	55.404
3.75985	55.3685
3.75713	55.4041
3.7544	55.3899
3.75169	55.3207
3.74898	55.3124
3.74627	55.3035
3.74356	55.3039
3.74086	55.2744
3.73816	55.2799
3.73547	55.264
3.73278	55.2418
3.7301	55.2719
3.72741	55.299
3.72474	55.2721
3.72206	55.1962
3.71939	55.0768
3.71673	55.038
3.71406	55.0681
3.71141	55.1141
3.70875	55.1169
3.7061	55.0442
3.70345	54.9326
3.70081	54.8654
3.69817	54.8749
3.69553	54.8741
3.6929	54.8442
3.69027	54.8676
3.68765	54.8735
3.68503	54.8344
3.68241	54.8098
3.6798	54.7791
3.67719	54.756
3.67458	54.725
3.67198	54.7181
3.66938	54.6709
3.66678	54.6027
3.66419	54.554
3.66161	54.5289
3.65902	54.5288
3.65644	54.4894
3.65387	54.4711
3.65129	54.4291
3.64872	54.3777
3.64616	54.4298
3.64359	54.4071
3.64103	54.3253
3.63848	54.3093
3.63593	54.3638
3.63338	54.3893
3.63084	54.2701
3.6283	54.2007
3.62576	54.1855
3.62322	54.159
3.62069	54.1646
3.61817	54.1305
3.61564	54.0659
3.61312	54.0324
3.61061	54.0538
3.6081	54.034
3.60559	54.0214
3.60308	53.9117
3.60058	53.8181
3.59808	53.7972
3.59558	53.8197
3.59309	53.8556
3.59061	53.8554
3.58812	53.8109
3.58564	53.758
3.58316	53.7186
3.58069	53.6416
3.57822	53.5238
3.57575	53.5039
3.57328	53.5035
3.57082	53.4869
3.56836	53.4598
3.56591	53.457
3.56346	53.4183
3.56101	53.3655
3.55857	53.2926
3.55613	53.2295
3.55369	53.2041
3.55126	53.1134
3.54883	53.0049
3.5464	53.0335
3.54397	53.1228
3.54155	53.0454
3.53914	52.8885
3.53672	52.7979
3.53431	52.7558
3.5319	52.6851
3.5295	52.6061
3.5271	52.5962
3.5247	52.5479
3.52231	52.3939
3.51991	52.2278
3.51753	52.1011
3.51514	51.9637
3.51276	51.8369
3.51038	51.6804
3.50801	51.5205
3.50563	51.4316
3.50327	51.3437
3.5009	51.3173
3.49854	51.3556
3.49618	51.3821
3.49382	51.43
3.49147	51.4588
3.48912	51.4542
3.48677	51.426
3.48443	51.3937
3.48209	51.3983
3.47975	51.402
3.47742	51.3731
3.47509	51.2821
3.47276	51.219
3.47044	51.3456
3.46812	51.3708
3.4658	51.2913
3.46348	51.2476
3.46117	51.238
3.45886	51.231
3.45656	51.2057
3.45425	51.1403
3.45195	51.1079
3.44966	51.1141
3.44736	51.0352
3.44507	50.9224
3.44279	50.8841
3.4405	50.8325
3.43822	50.7775
3.43594	50.6562
3.43367	50.5032
3.43139	50.3478
3.42912	50.1526
3.42686	49.9607
3.42459	49.8297
3.42233	49.6941
3.42007	49.5918
3.41782	49.5104
3.41557	49.5218
3.41332	49.604
3.41108	49.6384
3.40883	49.63
3.40659	49.7026
3.40435	49.7655
3.40212	49.8367
3.39989	49.8655
3.39766	49.8302
3.39544	49.8494
3.39322	49.8974
3.391	49.858
3.38878	49.7563
3.38657	49.6528
3.38436	49.6896
3.38215	49.7327
3.37994	49.7671
3.37774	49.7497
3.37554	49.6466
3.37335	49.5714
3.37115	49.5654
3.36896	49.5335
3.36678	49.5554
3.36459	49.5164
3.36241	49.5047
3.36023	49.4946
3.35805	49.459
3.35588	49.4648
3.35371	49.4067
3.35154	49.3375
3.34938	49.2799
3.34721	49.3499
3.34505	49.3758
3.3429	49.3692
3.34074	49.44
3.33859	49.4081
3.33644	49.3771
3.3343	49.392
3.33215	49.3577
3.33001	49.2827
3.32788	49.2867
3.32574	49.3129
3.32361	49.2134
3.32148	49.0663
3.31936	49.0228
3.31723	49.0182
3.31511	49.0845
3.31299	49.1258
3.31088	48.9762
3.30876	48.8996
3.30665	48.8726
3.30455	48.8254
3.30244	48.7704
3.30034	48.6623
3.29824	48.6585
3.29614	48.6649
3.29405	48.5753
3.29196	48.4968
3.28987	48.4391
3.28778	48.3472
3.2857	48.2871
3.28362	48.331
3.28154	48.3836
3.27946	48.3978
3.27739	48.2502
3.27532	48.1298
3.27325	48.1394
3.27119	48.1393
3.26913	47.9653
3.26707	47.7697
3.26501	47.7096
3.26295	47.6821
3.2609	47.6144
3.25885	47.5168
3.2568	47.4981
3.25476	47.5117
3.25272	47.5416
3.25068	47.5463
3.24864	47.4359
3.24661	47.3288
3.24458	47.2623
3.24255	47.2166
3.24052	47.1297
3.2385	47.0597
3.23648	47.0788
3.23446	47.1112
3.23244	46.9891
3.23043	46.8668
3.22841	46.7851
3.2264	46.7859
3.2244	46.7754
3.22239	46.7059
3.22039	46.6497
3.21839	46.6616
3.2164	46.6001
3.2144	46.5114
3.21241	46.4988
3.21042	46.4548
3.20844	46.2932
3.20645	46.17
3.20447	46.1441
3.20249	46.1295
3.20051	46.0913
3.19854	45.9667
3.19657	45.9243
3.1946	45.9313
3.19263	45.8366
3.19067	45.7514
3.1887	45.7704
3.18674	45.7988
3.18479	45.7039
3.18283	45.5875
3.18088	45.6256
3.17893	45.579
3.17698	45.4562
3.17504	45.4139
3.17309	45.3989
3.17115	45.2643
3.16921	45.1656
3.16728	45.1605
3.16534	45.1451
3.16341	45.0949
3.16148	45.0641
3.15956	45.0307
3.15763	44.9102
3.15571	44.7939
3.15379	44.7651
3.15187	44.7238
3.14996	44.687
3.14805	44.6618
3.14614	44.6251
3.14423	44.6426
3.14232	44.5376
3.14042	44.4258
3.13852	44.3848
3.13662	44.3305
3.13472	44.3147
3.13283	44.3419
3.13094	44.2682
3.12905	44.1797
3.12716	44.1293
3.12528	44.0426
3.12339	43.9823
3.12151	43.8774
3.11964	43.7569
3.11776	43.7544
3.11589	43.7292
3.11401	43.6299
3.11214	43.5092
3.11028	43.4916
3.10841	43.4913
3.10655	43.3806
3.10469	43.2736
3.10283	43.1936
3.10098	43.1234
3.09912	43.0366
3.09727	42.912
3.09542	42.7703
3.09358	42.6786
3.09173	42.5947
3.08989	42.4644
3.08805	42.344
3.08621	42.2589
3.08437	42.1145
3.08254	42.0159
3.08071	41.8795
3.07888	41.6199
3.07705	41.4657
3.07523	41.2516
3.0734	40.9286
3.07158	40.6778
3.06977	40.4746
3.06795	40.1997
3.06613	39.801
3.06432	39.4383
3.06251	38.9278
3.0607	38.3934
3.0589	38.0454
3.0571	37.5033
3.05529	36.8961
3.05349	36.4541
3.0517	36.1029
3.0499	35.6772
3.04811	35.4481
3.04632	35.451
3.04453	35.5404
3.04274	35.7499
3.04096	35.8718
3.03918	35.894
3.0374	36.0333
3.03562	36.1827
3.03384	36.3564
3.03207	36.5148
3.03029	36.7372
3.02852	37.0928
3.02676	37.4364
3.02499	37.6748
3.02323	37.9741
3.02146	38.2705
3.0197	38.5225
3.01795	38.7653
3.01619	38.9608
3.01444	39.1389
3.01269	39.3802
3.01094	39.5498
3.00919	39.6341
3.00744	39.6914
3.0057	39.7973
3.00396	39.9678
3.00222	40.0212
3.00048	40.0952
2.99875	40.2102
2.99701	40.3295
2.99528	40.3207
2.99355	40.2556
2.99183	40.3165
2.9901	40.2373
2.98838	40.1636
2.98666	40.1876
2.98494	40.1402
2.98322	40.1225
2.9815	40.0629
2.97979	40.0212
2.97808	39.9731
2.97637	40.0456
2.97466	40.0187
2.97295	39.9491
2.97125	39.9362
2.96955	39.9032
2.96785	39.833
2.96615	39.8061
2.96446	39.8492
2.96276	39.8642
2.96107	39.8566
2.95938	39.8635
2.95769	39.8884
2.95601	39.9361
2.95432	39.996
2.95264	40.0005
2.95096	40.0065
2.94928	40.0299
2.9476	40.163
2.94593	40.2014
2.94425	40.1513
2.94258	40.1558
2.94092	40.1942
2.93925	40.2553
2.93758	40.265
2.93592	40.3641
2.93426	40.4598
2.9326	40.3859
2.93094	40.3522
2.92928	40.372
2.92763	40.4559
2.92598	40.6039
2.92433	40.6739
2.92268	40.7904
2.92103	40.8252
2.91939	40.8967
2.91775	40.991
2.9161	40.9446
2.91447	40.9109
2.91283	40.9446
2.91119	41.0169
2.90956	41.0832
2.90793	41.1111
2.9063	41.1667
2.90467	41.3083
2.90304	41.3802
2.90142	41.5214
2.89979	41.4901
2.89817	41.4159
2.89656	41.4131
2.89494	41.4513
2.89332	41.542
2.89171	41.6091
2.8901	41.6387
2.88849	41.6817
2.88688	41.6219
2.88527	41.698
2.88367	41.8496
2.88206	41.8742
2.88046	41.83
2.87886	41.8536
2.87727	41.8437
2.87567	41.8397
2.87408	41.8823
2.87248	41.8661
2.87089	41.8331
2.8693	41.9027
2.86772	41.9538
2.86613	42.0149
2.86455	42.1646
2.86297	42.1444
2.86139	42.2863
2.85981	42.5449
2.85823	42.594
2.85666	42.7373
2.85508	42.9029
2.85351	42.9994
2.85194	42.9647
2.85038	42.8578
2.84881	42.9142
2.84724	42.9878
2.84568	43.0246
2.84412	43.1245
2.84256	43.1919
2.841	43.091
2.83945	43.2849
2.83789	43.4436
2.83634	43.2429
2.83479	43.1669
2.83324	43.2998
2.83169	43.3501
2.83015	43.3038
2.82861	43.486
2.82706	43.6295
2.82552	43.61
2.82398	43.5632
2.82245	43.6031
2.82091	43.7166
2.81938	43.739
2.81784	43.6975
2.81631	43.6971
2.81479	43.636
2.81326	43.6617
2.81173	43.7452
2.81021	43.7875
2.80869	43.8417
2.80716	43.9066
2.80565	44.0539
2.80413	44.3824
2.80261	44.371
2.8011	44.1215
2.79959	44.1068
2.79808	44.0596
2.79657	44.0262
2.79506	44.2462
2.79355	44.4595
2.79205	44.4975
2.79055	44.5511
2.78904	44.7076
2.78754	45.0005
2.78605	45.103
2.78455	44.9235
2.78306	45.0334
2.78156	45.3045
2.78007	45.4428
2.77858	45.4016
2.77709	45.5155
2.77561	45.6314
2.77412	45.5646
2.77264	45.7366
2.77116	45.9087
2.76968	45.8885
2.7682	45.9722
2.76672	46.0422
2.76524	46.1167
2.76377	46.4518
2.7623	46.5411
2.76083	46.3196
2.75936	46.2513
2.75789	46.4564
2.75642	47.0614
2.75496	47.2485
2.7535	46.7796
2.75203	46.6289
2.75057	46.5283
2.74912	46.4594
2.74766	46.4147
2.7462	46.1726
2.74475	45.7352
2.7433	45.8881
2.74185	46.7339
2.7404	47.4258
2.73895	47.2923
2.7375	46.4758
2.73606	46.1438
2.73462	45.7273
2.73318	44.4168
2.73174	43.3129
2.7303	43.8475
2.72886	45.2145
2.72742	45.865
2.72599	45.8937
2.72456	45.4587
2.72313	44.0766
2.7217	42.7184
2.72027	42.0621
2.71884	43.0303
2.71742	45.8617
2.71599	47.9219
2.71457	48.8277
2.71315	49.307
2.71173	50.119
2.71032	50.5642
2.7089	50.4445
2.70748	50.3322
2.70607	50.4523
2.70466	50.6818
2.70325	50.8764
2.70184	51.1176
2.70043	51.1535
2.69903	51.004
2.69762	51.0881
2.69622	51.4133
2.69482	51.943
2.69342	52.0295
2.69202	51.5702
2.69062	51.403
2.68923	51.4982
2.68783	51.6219
2.68644	51.7634
2.68505	51.9415
2.68366	51.913
2.68227	51.7231
2.68089	51.9854
2.6795	52.4397
2.67812	52.4876
2.67673	52.5873
2.67535	52.385
2.67397	52.1723
2.6726	52.2633
2.67122	52.9821
2.66984	53.132
2.66847	52.6778
2.6671	53.0577
2.66572	53.1656
2.66435	52.7578
2.66299	52.2177
2.66162	52.2245
2.66025	52.2958
2.65889	52.1442
2.65753	51.8741
2.65616	52.1688
2.65481	52.282
2.65345	52.3129
2.65209	52.3137
2.65073	52.0032
2.64938	51.8653
2.64803	51.9379
2.64667	52.1174
2.64532	52.2441
2.64397	52.0293
2.64263	51.9205
2.64128	51.8915
2.63994	51.7474
2.63859	51.6622
2.63725	51.838
2.63591	51.9222
2.63457	52.0144
2.63323	52.0196
2.6319	52.2821
2.63056	52.7849
2.62923	52.3867
2.62789	52.1476
2.62656	52.3306
2.62523	52.0103
2.6239	51.7888
2.62258	51.8238
2.62125	52.2728
2.61993	52.3544
2.6186	52.1969
2.61728	52.5691
2.61596	52.3613
2.61464	51.8669
2.61332	51.9279
2.61201	51.906
2.61069	52.0115
2.60938	52.0598
2.60807	52.0807
2.60675	52.3827
2.60544	52.6521
2.60414	52.3362
2.60283	52.1197
2.60152	52.0064
2.60022	51.7648
2.59891	51.6075
2.59761	51.7712
2.59631	52.4245
2.59501	53.2993
2.59371	52.7919
2.59242	51.9768
2.59112	51.7437
2.58983	51.8023
2.58853	51.8445
2.58724	51.9456
2.58595	51.8794
2.58466	52.1878
2.58338	52.1912
2.58209	51.8562
2.5808	51.8809
2.57952	51.7202
2.57824	51.7484
2.57695	51.7429
2.57567	51.6234
2.5744	51.8355
2.57312	51.966
2.57184	51.6371
2.57057	51.7501
2.56929	51.8973
2.56802	51.5973
2.56675	51.4347
2.56548	51.6487
2.56421	51.8253
2.56294	51.7889
2.56168	51.8204
2.56041	51.7868
2.55915	51.7276
2.55789	51.5851
2.55662	51.3642
2.55536	51.3209
2.5541	51.4344
2.55285	51.6848
2.55159	51.6545
2.55034	51.4902
2.54908	51.4082
2.54783	51.4444
2.54658	51.4534
2.54533	51.4176
2.54408	51.4397
2.54283	51.4814
2.54159	51.2885
2.54034	51.1926
2.5391	51.3129
2.53785	51.335
2.53661	51.3591
2.53537	51.3644
2.53413	51.3045
2.53289	51.375
2.53166	51.2784
2.53042	51.0241
2.52919	51.0011
2.52795	51.11
2.52672	51.1072
2.52549	51.0532
2.52426	51.1373
2.52303	51.1928
2.52181	51.2283
2.52058	51.1639
2.51936	51.1127
2.51813	51.1015
2.51691	50.9594
2.51569	50.8776
2.51447	50.9212
2.51325	50.9878
2.51203	51.0282
2.51082	51.1042
2.5096	51.0597
2.50839	50.9812
2.50717	50.9714
2.50596	50.9576
2.50475	50.924
2.50354	50.9883
2.50233	50.9572
2.50113	50.828
2.49992	50.8298
2.49872	50.8335
2.49751	50.9537
2.49631	50.9679
2.49511	50.9652
2.49391	50.9787
2.49271	50.8869
2.49151	50.8154
2.49031	50.8376
2.48912	50.8688
2.48792	50.8747
2.48673	50.8402
2.48554	50.7363
2.48435	50.632
2.48316	50.6849
2.48197	50.7809
2.48078	50.8513
2.4796	50.9047
2.47841	50.8861
2.47723	50.7814
2.47604	50.8381
2.47486	50.9511
2.47368	50.879
2.4725	50.6961
2.47132	50.6653
2.47014	50.7423
2.46897	50.7316
2.46779	50.6707
2.46662	50.6633
2.46545	50.6999
2.46427	50.7052
2.4631	50.7001
2.46193	50.7412
2.46077	50.7473
2.4596	50.6154
2.45843	50.5656
2.45727	50.5994
2.4561	50.6253
2.45494	50.5826
2.45378	50.5145
2.45262	50.5489
2.45146	50.6252
2.4503	50.7259
2.44914	50.7445
2.44799	50.7011
2.44683	50.6934
2.44568	50.7205
2.44452	50.6579
2.44337	50.6118
2.44222	50.6042
2.44107	50.6063
2.43992	50.6768
2.43877	50.7409
2.43763	50.7361
2.43648	50.6108
2.43534	50.5451
2.43419	50.5497
2.43305	50.492
2.43191	50.551
2.43077	50.6289
2.42963	50.5778
2.42849	50.4402
2.42736	50.4419
2.42622	50.5131
2.42509	50.5404
2.42395	50.5287
2.42282	50.5833
2.42169	50.4296
2.42056	50.3767
2.41943	50.5216
2.4183	50.6562
2.41717	50.6492
2.41605	50.6026
2.41492	50.5816
2.4138	50.5299
2.41267	50.5213
2.41155	50.4939
2.41043	50.4918
2.40931	50.5041
2.40819	50.5149
2.40707	50.4972
2.40595	50.3868
2.40484	50.2977
2.40372	50.3163
2.40261	50.2628
2.4015	50.1831
2.40039	50.2619
2.39928	50.3394
2.39817	50.3458
2.39706	50.3465
2.39595	50.4371
2.39484	50.4055
2.39374	50.1627
2.39263	50.0759
2.39153	50.1607
2.39043	50.1997
2.38932	50.1945
2.38822	50.2445
2.38712	50.3215
2.38603	50.2851
2.38493	50.2224
2.38383	50.2757
2.38274	50.1896
2.38164	50.2702
2.38055	50.3555
2.37946	50.2643
2.37836	50.2473
2.37727	50.3113
2.37618	50.1544
2.3751	50.095
2.37401	50.2639
2.37292	50.2987
2.37184	50.338
2.37075	50.2532
2.36967	50.1877
2.36859	50.2709
2.3675	50.3113
2.36642	50.3151
2.36534	50.2711
2.36427	50.1808
2.36319	50.1817
2.36211	50.1443
2.36104	50.1048
2.35996	50.3025
2.35889	50.4486
2.35781	50.2693
2.35674	50.1362
2.35567	50.1419
2.3546	50.125
2.35353	49.9944
2.35247	49.9967
2.3514	50.1365
2.35033	50.1888
2.34927	50.2083
2.3482	50.1643
2.34714	50.152
2.34608	50.1784
2.34502	50.2126
2.34396	50.2518
2.3429	50.2745
2.34184	50.2132
2.34078	50.1883
2.33973	50.0852
2.33867	50.0584
2.33762	50.0243
2.33656	49.9633
2.33551	50.1042
2.33446	50.106
2.33341	50.1229
2.33236	50.0554
2.33131	49.9775
2.33026	49.9318
2.32922	49.8363
2.32817	49.8496
2.32712	49.9086
2.32608	49.8314
2.32504	49.6858
2.324	49.6626
2.32295	49.65
2.32191	49.6824
2.32087	49.6812
2.31984	49.6675
2.3188	49.6459
2.31776	49.588
2.31673	49.5873
2.31569	49.6721
2.31466	49.6625
2.31362	49.5466
2.31259	49.5091
2.31156	49.496
2.31053	49.5009
2.3095	49.4634
2.30847	49.4417
2.30745	49.4918
2.30642	49.5311
2.3054	49.6083
2.30437	49.6965
2.30335	49.48
2.30232	49.2754
2.3013	49.38
2.30028	49.4869
2.29926	49.429
2.29824	49.4526
2.29722	49.5142
2.29621	49.5678
2.29519	49.6297
2.29417	49.6377
2.29316	49.539
2.29215	49.657
2.29113	49.7753
2.29012	49.6774
2.28911	49.6138
2.2881	49.6112
2.28709	49.6636
2.28608	49.7381
2.28507	49.6691
2.28407	49.5741
2.28306	49.5427
2.28206	49.5833
2.28105	49.7514
2.28005	49.852
2.27905	49.8417
2.27805	49.694
2.27705	49.6277
2.27605	49.7445
2.27505	49.8919
2.27405	49.9408
2.27305	49.9126
2.27206	49.7977
2.27106	49.7242
2.27007	49.7528
2.26907	49.7344
2.26808	49.6456
2.26709	49.622
2.2661	49.7906
2.26511	49.9074
2.26412	49.8388
2.26313	49.7311
2.26214	49.8195
2.26116	49.7868
2.26017	49.767
2.25919	49.7159
2.2582	49.7467
2.25722	49.7678
2.25624	49.7278
2.25526	49.8484
2.25428	49.8611
2.2533	49.6563
2.25232	49.7224
2.25134	49.8623
2.25036	49.7956
2.24939	49.6968
2.24841	49.76
2.24744	49.7598
2.24646	49.6604
2.24549	49.6268
2.24452	49.716
2.24355	49.7229
2.24257	49.6056
2.24161	49.5797
2.24064	49.7579
2.23967	49.8136
2.2387	49.6334
2.23774	49.5564
2.23677	49.6135
2.23581	49.692
2.23484	49.725
2.23388	49.84
2.23292	49.7747
2.23196	49.7104
2.231	49.6579
2.23004	49.5437
2.22908	49.5086
2.22812	49.56
2.22716	49.7051
2.22621	49.7003
2.22525	49.5555
2.2243	49.6029
2.22334	49.6756
2.22239	49.6576
2.22144	49.6264
2.22049	49.5385
2.21953	49.6344
2.21859	49.5933
2.21764	49.5041
2.21669	49.4767
2.21574	49.4893
2.21479	49.4488
2.21385	49.4115
2.2129	49.4916
2.21196	49.5906
2.21102	49.4386
2.21007	49.4534
2.20913	49.4955
2.20819	49.492
2.20725	49.5237
2.20631	49.5379
2.20537	49.4268
2.20444	49.3747
2.2035	49.4558
2.20256	49.5512
2.20163	49.5679
2.20069	49.4247
2.19976	49.4105
2.19883	49.4165
2.19789	49.3644
2.19696	49.5149
2.19603	49.5051
2.1951	49.4366
2.19417	49.3375
2.19325	49.2817
2.19232	49.2894
2.19139	49.447
2.19047	49.5549
2.18954	49.4944
2.18862	49.432
2.18769	49.5058
2.18677	49.477
2.18585	49.3401
2.18493	49.2466
2.18401	49.3226
2.18309	49.5378
2.18217	49.5116
2.18125	49.3304
2.18033	49.3217
2.17942	49.3204
2.1785	49.2872
2.17759	49.2917
2.17667	49.3754
2.17576	49.4291
2.17485	49.3609
2.17393	49.3195
2.17302	49.4068
2.17211	49.3063
2.1712	49.2658
2.17029	49.274
2.16939	49.1157
2.16848	49.1418
2.16757	49.1998
2.16667	49.2388
2.16576	49.4396
2.16486	49.5139
2.16395	49.4324
2.16305	49.4572
2.16215	49.3638
2.16125	49.2297
2.16035	49.152
2.15945	49.1391
2.15855	49.2135
2.15765	49.1662
2.15675	48.9971
2.15586	49.0988
2.15496	49.2361
2.15406	49.1659
2.15317	49.2444
2.15228	49.2725
2.15138	49.1834
2.15049	49.2404
2.1496	49.2591
2.14871	49.2664
2.14782	49.2904
2.14693	49.3797
2.14604	49.3133
2.14515	49.081
2.14427	48.8859
2.14338	48.8744
2.14249	48.9662
2.14161	49.0468
2.14072	49.0923
2.13984	49.1411
2.13896	49.1684
2.13808	49.1749
2.13719	49.108
2.13631	49.0861
2.13543	49.0321
2.13455	49.0038
2.13368	49.0441
2.1328	49.0158
2.13192	48.9643
2.13105	48.9223
2.13017	48.931
2.1293	49.0223
2.12842	49.1003
2.12755	49.0928
2.12668	49.0464
2.1258	48.9649
2.12493	48.9484
2.12406	48.9807
2.12319	48.9351
2.12232	48.9761
2.12145	49.0799
2.12059	49.1806
2.11972	49.0958
2.11885	49.0904
2.11799	49.1486
2.11712	49.0682
2.11626	48.9788
2.1154	48.9931
2.11453	48.9435
2.11367	48.8701
2.11281	49.1492
2.11195	49.2668
2.11109	49.0767
2.11023	48.9706
2.10937	48.902
2.10851	48.8776
2.10766	49.169
2.1068	49.4159
2.10594	49.1762
2.10509	49.1327
2.10423	49.1444
2.10338	48.9761
2.10253	48.7838
2.10168	48.7507
2.10082	48.6451
2.09997	48.6199
2.09912	48.7343
2.09827	49.0004
2.09742	49.0334
2.09658	48.9426
2.09573	48.8579
2.09488	48.9822
2.09404	49.0633
2.09319	49.0718
2.09235	48.7999
2.0915	48.7011
2.09066	48.9064
2.08982	48.9955
2.08897	48.9213
2.08813	48.6717
2.08729	48.6659
2.08645	48.6667
2.08561	48.7784
2.08477	48.7519
2.08394	48.6257
2.0831	48.8132
2.08226	48.8042
2.08143	48.5438
2.08059	48.6818
2.07976	48.5469
2.07892	48.4439
2.07809	48.9164
2.07726	48.8461
2.07643	48.5817
2.07559	48.5321
2.07476	48.6653
2.07393	48.8572
2.0731	48.7475
2.07228	48.6746
2.07145	48.9421
2.07062	49.0198
2.06979	48.7137
2.06897	48.7823
2.06814	48.9552
2.06732	48.5588
2.06649	48.4472
2.06567	48.4177
2.06485	48.6024
2.06403	48.8795
2.0632	49.1127
2.06238	49.0312
2.06156	48.7188
2.06074	48.5954
2.05993	48.5566
2.05911	48.6498
2.05829	48.6263
2.05747	48.591
2.05666	48.5073
2.05584	48.3313
2.05503	48.4524
2.05421	48.4588
2.0534	48.491
2.05259	48.5675
2.05177	48.638
2.05096	48.6012
2.05015	48.6757
2.04934	48.6383
2.04853	48.6555
2.04772	48.6729
2.04691	48.5416
2.04611	48.5765
2.0453	48.6741
2.04449	48.577
2.04369	48.4985
2.04288	48.4571
2.04208	48.4082
2.04127	48.4379
2.04047	48.5258
2.03967	48.6019
2.03886	48.7402
2.03806	48.7238
2.03726	48.6523
2.03646	48.7075
2.03566	48.6121
2.03486	48.6125
2.03407	48.5584
2.03327	48.4316
2.03247	48.4092
2.03167	48.5044
2.03088	48.5923
2.03008	48.5424
2.02929	48.6887
2.0285	48.7005
2.0277	48.6429
2.02691	48.4458
2.02612	48.4897
2.02533	48.4934
2.02453	48.2205
2.02374	48.1652
2.02295	48.2802
2.02217	48.3004
2.02138	48.438
2.02059	48.4629
2.0198	48.4111
2.01902	48.5489
2.01823	48.4782
2.01744	48.2601
2.01666	48.1977
2.01588	48.227
2.01509	48.4124
2.01431	48.498
2.01353	48.4351
2.01275	48.352
2.01196	48.3665
2.01118	48.4027
2.0104	48.2472
2.00963	48.186
2.00885	48.2854
2.00807	48.3526
2.00729	48.3234
2.00651	48.2366
2.00574	48.2715
2.00496	48.3704
2.00419	48.3506
2.00341	48.414
2.00264	48.3106
2.00187	48.1208
2.00109	48.1984
2.00032	48.373
