Name: Metallic Silver Paint
Type: Manmade materials
Class: General Construction Materials
Subclass: Paints
Particle Size: Solid
Sample No.: 1246
Owner: JPL
Wavelength range: IR
Origin: The Testor Corp., 620 Buckbee St., Rockford, IL 61104
Collected by JPL
Description: Metallic silver spray enamel paint





Measurement: Hemispherical reflectance
First Column: X
Second Column: Y
X Units:  Wavelength (micrometers)
Y Units:  Reflectance (percent)
First X Value: 14.0131
Last X Value: 2.00032
Number of X Values: 2223
Additional information: None
 
14.0131	60.8621
13.9753	60.7886
13.9377	60.8075
13.9004	60.8339
13.8632	60.7386
13.8262	60.7366
13.7895	60.7526
13.7529	60.6334
13.7165	60.496
13.6803	60.5264
13.6443	60.7261
13.6085	60.709
13.5729	60.6443
13.5374	60.5448
13.5022	60.4611
13.4671	60.358
13.4322	60.4873
13.3975	60.6075
13.363	60.5802
13.3286	60.5625
13.2944	60.5876
13.2604	60.5511
13.2266	60.5174
13.193	60.5498
13.1595	60.5072
13.1262	60.3447
13.093	60.3569
13.06	60.506
13.0272	60.6116
12.9946	60.5387
12.9621	60.4678
12.9298	60.369
12.8976	60.344
12.8656	60.5134
12.8337	60.5834
12.8021	60.4994
12.7705	60.3363
12.7391	60.2844
12.7079	60.3432
12.6769	60.3966
12.6459	60.3685
12.6152	60.246
12.5845	60.2312
12.5541	60.2293
12.5238	60.2087
12.4936	60.2739
12.4635	60.2899
12.4337	60.2931
12.4039	60.2598
12.3743	60.1253
12.3448	60.0528
12.3155	60.1744
12.2863	60.1856
12.2573	60.2182
12.2284	60.2453
12.1996	60.1307
12.171	60.0953
12.1425	60.1527
12.1141	60.1339
12.0859	60.0881
12.0578	60.0103
12.0298	59.9435
12.0019	60.0191
11.9742	60.0744
11.9466	60.0117
11.9192	59.9556
11.8918	59.9034
11.8646	59.9113
11.8375	59.9292
11.8106	59.8748
11.7837	59.8954
11.757	59.9103
11.7304	59.8866
11.7039	59.8951
11.6776	59.8862
11.6513	59.7703
11.6252	59.7736
11.5992	59.7055
11.5733	59.6546
11.5475	59.7002
11.5219	59.709
11.4963	59.6757
11.4709	59.679
11.4455	59.6403
11.4203	59.486
11.3952	59.3538
11.3702	59.4488
11.3454	59.5629
11.3206	59.6336
11.2959	59.5925
11.2714	59.5602
11.2469	59.5234
11.2226	59.4661
11.1983	59.4932
11.1742	59.4187
11.1502	59.3822
11.1263	59.3323
11.1024	59.2866
11.0787	59.2692
11.0551	59.2361
11.0316	59.1809
11.0081	59.1669
10.9848	59.1815
10.9616	59.1461
10.9385	59.0566
10.9154	59.0229
10.8925	59.0165
10.8697	59.0889
10.8469	59.0541
10.8243	58.942
10.8017	58.8307
10.7793	58.7479
10.7569	58.69
10.7346	58.7484
10.7125	58.7902
10.6904	58.7462
10.6684	58.6765
10.6465	58.6817
10.6247	58.6798
10.6029	58.6157
10.5813	58.6191
10.5597	58.5806
10.5383	58.5077
10.5169	58.4787
10.4956	58.4246
10.4744	58.4078
10.4533	58.3812
10.4323	58.4128
10.4113	58.4234
10.3904	58.3107
10.3697	58.3395
10.349	58.5142
10.3284	58.5214
10.3078	58.4372
10.2874	58.4004
10.267	58.4587
10.2467	58.4993
10.2265	58.461
10.2064	58.443
10.1863	58.4812
10.1663	58.5571
10.1464	58.609
10.1266	58.5516
10.1069	58.5567
10.0872	58.5545
10.0676	58.506
10.0481	58.4156
10.0287	58.41
10.0093	58.5236
9.99005	58.6203
9.97084	58.5533
9.95169	58.5324
9.93263	58.5395
9.91364	58.5507
9.89472	58.6465
9.87587	58.6573
9.8571	58.5883
9.83839	58.5944
9.81976	58.5701
9.8012	58.5013
9.78271	58.498
9.76428	58.4821
9.74592	58.5036
9.72764	58.4202
9.70943	58.4032
9.69128	58.5133
9.6732	58.5052
9.65518	58.4322
9.63724	58.3396
9.61936	58.3144
9.60155	58.3489
9.5838	58.3651
9.56611	58.2662
9.5485	58.1759
9.53094	58.1576
9.51345	58.1801
9.49604	58.1321
9.47867	58.0922
9.46137	58.1297
9.44414	58.0776
9.42697	58.01
9.40986	57.974
9.39281	58.0411
9.37583	58.0466
9.35891	58.1193
9.34204	58.1242
9.32524	58
9.3085	57.9377
9.29182	57.8763
9.27519	57.8219
9.25863	57.8069
9.24213	57.8663
9.22568	57.8853
9.2093	57.9226
9.19297	57.8824
9.17669	57.828
9.16049	57.838
9.14433	57.859
9.12823	57.9371
9.11218	57.9836
9.0962	57.9334
9.08027	57.877
9.06439	57.8521
9.04858	57.8439
9.03281	57.8433
9.0171	57.8684
9.00145	57.936
8.98585	58.053
8.9703	58.1276
8.9548	58.1265
8.93937	58.087
8.92398	58.1482
8.90865	58.2565
8.89337	58.22
8.87814	58.0953
8.86296	58.055
8.84784	58.1213
8.83277	58.1387
8.81774	58.2413
8.80277	58.2941
8.78786	58.2784
8.77298	58.17
8.75816	58.0941
8.7434	58.1015
8.72868	58.1332
8.714	58.0134
8.69939	57.8741
8.68481	57.8134
8.67029	57.8106
8.65581	57.765
8.64139	57.6692
8.62701	57.6665
8.61268	57.6918
8.5984	57.5706
8.58416	57.4478
8.56997	57.3483
8.55583	57.3105
8.54174	57.2601
8.52769	57.2064
8.51368	57.201
8.49973	57.2019
8.48582	57.1577
8.47195	57.1367
8.45813	57.2159
8.44436	57.2405
8.43062	57.176
8.41693	57.1909
8.4033	57.2037
8.3897	57.2135
8.37614	57.1678
8.36264	57.1396
8.34917	57.2464
8.33574	57.2793
8.32237	57.2446
8.30903	57.2843
8.29573	57.5137
8.28248	57.7372
8.26927	57.7626
8.2561	57.7736
8.24298	57.867
8.2299	58.1105
8.21685	58.1602
8.20385	58.0498
8.19089	58.0798
8.17797	58.0939
8.16509	58.0283
8.15225	57.9842
8.13946	57.9422
8.1267	57.8627
8.11398	57.8807
8.10131	57.9197
8.08867	57.912
8.07606	57.8878
8.0635	57.8784
8.05099	57.8939
8.0385	57.8203
8.02606	57.7604
8.01366	57.6174
8.00129	57.5418
7.98896	57.5415
7.97667	57.5078
7.96442	57.5649
7.9522	57.6606
7.94002	57.6732
7.92788	57.7291
7.91578	57.7993
7.90371	57.8348
7.89168	57.9011
7.87969	57.9574
7.86773	58.0325
7.85581	58.1257
7.84392	58.1344
7.83207	58.1538
7.82027	58.063
7.80849	57.9879
7.79674	57.9821
7.78503	58.0591
7.77337	58.1088
7.76173	58.1302
7.75012	58.1174
7.73856	58.1691
7.72703	58.2815
7.71553	58.2654
7.70406	58.1981
7.69263	58.1137
7.68123	58.0371
7.66987	58.0555
7.65855	58.1092
7.64725	58.0759
7.63598	58.0358
7.62476	58.1659
7.61356	58.284
7.60239	58.2993
7.59126	58.3641
7.58017	58.4377
7.5691	58.4491
7.55806	58.4553
7.54707	58.533
7.5361	58.565
7.52516	58.6111
7.51425	58.6203
7.50338	58.5713
7.49253	58.5982
7.48172	58.6144
7.47094	58.6276
7.46019	58.6209
7.44947	58.5871
7.43879	58.536
7.42813	58.4218
7.4175	58.3117
7.4069	58.328
7.39634	58.3875
7.3858	58.3761
7.37529	58.309
7.36482	58.257
7.35437	58.2302
7.34396	58.2077
7.33357	58.1905
7.32321	58.1915
7.31288	58.223
7.30258	58.2192
7.29231	58.2327
7.28207	58.2289
7.27185	58.1823
7.26167	58.1442
7.25152	58.1576
7.24139	58.1063
7.23129	58.002
7.22122	57.9876
7.21117	58.1874
7.20116	58.3475
7.19117	58.4433
7.18121	58.5629
7.17128	58.7235
7.16137	58.8149
7.1515	58.8343
7.14164	58.8569
7.13182	58.8295
7.12203	58.8181
7.11225	58.805
7.10251	58.7738
7.0928	58.7439
7.08311	58.7064
7.07344	58.6678
7.06381	58.5853
7.0542	58.5382
7.04461	58.6037
7.03506	58.5929
7.02552	58.5423
7.01601	58.6194
7.00653	58.6736
6.99708	58.6913
6.98765	58.664
6.97824	58.6099
6.96886	58.6132
6.95951	58.6244
6.95018	58.5068
6.94087	58.3902
6.9316	58.3061
6.92234	58.3066
6.91311	58.2505
6.90391	58.2132
6.89473	58.1355
6.88557	58.0039
6.87644	57.945
6.86733	58.0229
6.85824	57.981
6.84918	57.8396
6.84015	57.8036
6.83114	57.8373
6.82215	57.8687
6.81319	57.9234
6.80424	58.0828
6.79532	58.3603
6.78643	58.5627
6.77756	58.6285
6.76871	58.7007
6.75989	58.7829
6.75109	58.866
6.74231	58.9319
6.73355	59.0428
6.72482	59.171
6.71611	59.2992
6.70742	59.3489
6.69875	59.3502
6.69011	59.4714
6.68149	59.5372
6.67289	59.4765
6.66431	59.46
6.65576	59.4653
6.64722	59.5739
6.63871	59.775
6.63022	59.7751
6.62175	59.6895
6.61331	59.6421
6.60488	59.61
6.59648	59.6409
6.5881	59.6654
6.57974	59.7084
6.5714	59.7392
6.56308	59.7266
6.55479	59.7215
6.54651	59.6992
6.53825	59.6492
6.53001	59.6544
6.5218	59.7236
6.51361	59.6827
6.50544	59.7318
6.49729	59.936
6.48915	59.9839
6.48104	59.8705
6.47295	59.7886
6.46488	59.7538
6.45683	59.73
6.4488	59.7383
6.44079	59.765
6.4328	59.7856
6.42482	59.8756
6.41687	60.0499
6.40894	59.9179
6.40103	59.6472
6.39314	59.6353
6.38526	59.6317
6.37741	59.6508
6.36957	59.704
6.36176	59.6679
6.35396	59.6552
6.34618	59.7173
6.33843	59.6206
6.33069	59.4964
6.32297	59.5206
6.31527	59.5252
6.30758	59.5499
6.29992	59.6004
6.29227	59.6316
6.28465	59.6178
6.27704	59.6087
6.26945	59.5976
6.26188	59.5567
6.25432	59.5563
6.24679	59.6302
6.23927	59.71
6.23177	59.6619
6.22429	59.5931
6.21683	59.5773
6.20938	59.5548
6.20195	59.5697
6.19454	59.6309
6.18715	59.7648
6.17978	59.7354
6.17242	59.6296
6.16508	59.714
6.15776	59.7998
6.15045	59.7467
6.14317	59.7598
6.1359	59.7227
6.12864	59.6196
6.12141	59.6319
6.11419	59.7285
6.10699	59.7447
6.0998	59.7129
6.09263	59.6629
6.08549	59.6415
6.07835	59.6775
6.07123	59.7508
6.06413	59.7319
6.05705	59.7833
6.04998	59.8917
6.04293	59.7121
6.0359	59.5842
6.02888	59.5469
6.02187	59.5137
6.01489	59.5183
6.00792	59.4573
6.00096	59.4427
5.99403	59.4639
5.98711	59.4469
5.9802	59.4275
5.97331	59.4106
5.96644	59.3323
5.95958	59.1892
5.95274	59.0671
5.94591	59.0322
5.9391	59.0845
5.9323	58.9559
5.92553	58.7227
5.91876	58.5059
5.91201	58.3478
5.90528	58.2755
5.89856	58.3392
5.89186	58.2399
5.88517	58.1271
5.8785	58.0035
5.87184	57.7648
5.8652	57.7236
5.85857	57.6872
5.85196	57.6389
5.84536	57.6052
5.83878	57.6462
5.83221	57.6672
5.82566	57.6762
5.81912	57.5647
5.81259	57.3737
5.80608	57.2379
5.79959	57.0889
5.79311	56.9622
5.78665	56.8016
5.78019	56.6066
5.77376	56.4609
5.76734	56.3364
5.76093	55.9442
5.75453	55.6209
5.74815	55.4431
5.74179	55.2946
5.73543	55.1696
5.7291	55.0994
5.72277	55.1439
5.71646	55.139
5.71017	55.0238
5.70389	54.9648
5.69762	55.084
5.69136	55.2324
5.68513	55.4285
5.6789	55.8694
5.67268	56.4354
5.66648	56.9912
5.6603	57.5928
5.65413	58.1713
5.64797	58.6292
5.64182	58.9073
5.63569	59.0329
5.62957	59.1384
5.62347	59.2528
5.61737	59.3682
5.61129	59.4648
5.60522	59.4684
5.59917	59.4848
5.59313	59.4873
5.5871	59.5104
5.58109	59.6497
5.57509	59.6928
5.5691	59.6018
5.56313	59.6345
5.55716	59.6879
5.55121	59.6628
5.54528	59.6231
5.53935	59.6182
5.53344	59.669
5.52754	59.7611
5.52166	59.8327
5.51578	59.7837
5.50992	59.7471
5.50407	59.7989
5.49823	59.7819
5.49241	59.7615
5.4866	59.7525
5.4808	59.7498
5.47501	59.735
5.46923	59.8113
5.46347	59.8986
5.45772	59.9158
5.45198	59.9263
5.44625	59.8817
5.44054	59.9176
5.43484	59.9426
5.42914	59.9586
5.42347	59.95
5.4178	59.8911
5.41214	59.835
5.4065	59.8367
5.40087	59.8998
5.39525	59.9422
5.38964	59.9421
5.38404	59.9177
5.37846	59.8983
5.37288	59.9412
5.36732	59.9543
5.36177	59.943
5.35623	59.9758
5.35071	60.0062
5.34519	59.955
5.33968	59.9218
5.33419	59.9596
5.32871	60.0101
5.32324	60.0008
5.31778	59.9822
5.31233	59.9741
5.30689	59.9376
5.30147	59.9401
5.29605	59.9359
5.29065	59.9488
5.28525	59.9471
5.27987	59.9895
5.2745	60.0038
5.26914	59.972
5.26379	60.0065
5.25845	60.05
5.25312	60.0561
5.24781	60.0044
5.2425	59.974
5.23721	59.9796
5.23192	59.9654
5.22665	59.9383
5.22138	60.0282
5.21613	60.1436
5.21089	60.0974
5.20566	60.0513
5.20044	60.0531
5.19522	59.9749
5.19002	59.9574
5.18483	59.9596
5.17965	59.9965
5.17448	60.0077
5.16933	60.0198
5.16418	60.0031
5.15904	60.0053
5.15391	60.029
5.14879	60.0711
5.14368	60.0616
5.13859	60.034
5.1335	60.0814
5.12842	60.0681
5.12335	60.0761
5.1183	60.0942
5.11325	60.0853
5.10821	60.0817
5.10318	60.0553
5.09817	60.0183
5.09316	60.0278
5.08816	60.0833
5.08317	60.0987
5.07819	60.1097
5.07322	60.1555
5.06826	60.1259
5.06331	60.1122
5.05837	60.0661
5.05344	60.0445
5.04852	60.026
5.04361	60.0067
5.03871	60.0964
5.03382	60.1834
5.02894	60.1264
5.02406	60.0694
5.0192	60.074
5.01435	60.1013
5.0095	60.0928
5.00467	60.0471
4.99984	60.074
4.99502	60.1369
4.99021	60.1024
4.98542	60.0835
4.98063	60.1156
4.97585	60.1614
4.97108	60.18
4.96632	60.1282
4.96156	60.1286
4.95682	60.1549
4.95209	60.0861
4.94736	60.0723
4.94264	60.1417
4.93794	60.1351
4.93324	60.1114
4.92855	60.1165
4.92387	60.1368
4.9192	60.1369
4.91453	60.1058
4.90988	60.0882
4.90524	60.0992
4.9006	60.1001
4.89597	60.131
4.89135	60.179
4.88674	60.1671
4.88214	60.142
4.87755	60.1629
4.87296	60.1907
4.86839	60.203
4.86382	60.191
4.85926	60.1797
4.85471	60.1711
4.85017	60.1205
4.84564	60.0519
4.84111	60.0275
4.8366	60.1051
4.83209	60.1658
4.82759	60.1895
4.8231	60.1895
4.81862	60.1696
4.81415	60.1496
4.80968	60.1882
4.80522	60.2249
4.80077	60.2121
4.79633	60.1816
4.7919	60.1537
4.78747	60.2096
4.78306	60.174
4.77865	60.0889
4.77425	60.1379
4.76986	60.1881
4.76547	60.2086
4.7611	60.2022
4.75673	60.1849
4.75237	60.2369
4.74802	60.2697
4.74367	60.2801
4.73934	60.2742
4.73501	60.2695
4.73069	60.2326
4.72638	60.1754
4.72207	60.1799
4.71777	60.2157
4.71348	60.2622
4.7092	60.2522
4.70493	60.2529
4.70066	60.3058
4.69641	60.2822
4.69216	60.2286
4.68791	60.2519
4.68368	60.3249
4.67945	60.354
4.67523	60.2998
4.67102	60.277
4.66682	60.2975
4.66262	60.3373
4.65843	60.3058
4.65425	60.3051
4.65007	60.3191
4.64591	60.2928
4.64175	60.2832
4.6376	60.2897
4.63345	60.3284
4.62932	60.3477
4.62519	60.3433
4.62106	60.3395
4.61695	60.328
4.61284	60.3164
4.60874	60.3264
4.60465	60.3129
4.60056	60.3153
4.59648	60.3533
4.59241	60.3636
4.58835	60.3336
4.58429	60.3105
4.58024	60.3295
4.5762	60.3332
4.57216	60.359
4.56814	60.3891
4.56411	60.4107
4.5601	60.3836
4.55609	60.3728
4.55209	60.3298
4.5481	60.3102
4.54411	60.3955
4.54013	60.3824
4.53616	60.341
4.5322	60.3536
4.52824	60.4019
4.52429	60.4403
4.52034	60.4055
4.51641	60.3919
4.51247	60.3948
4.50855	60.3799
4.50463	60.3975
4.50072	60.4105
4.49682	60.3814
4.49292	60.3932
4.48903	60.4218
4.48515	60.4685
4.48127	60.4341
4.4774	60.3915
4.47354	60.3991
4.46968	60.4197
4.46584	60.4026
4.46199	60.4074
4.45815	60.455
4.45433	60.4775
4.4505	60.4204
4.44668	60.3885
4.44287	60.3408
4.43907	60.3637
4.43527	60.4474
4.43148	60.4878
4.4277	60.4688
4.42392	60.4235
4.42015	60.3754
4.41638	60.414
4.41262	60.449
4.40887	60.4923
4.40513	60.5085
4.40139	60.5202
4.39765	60.4403
4.39393	60.4383
4.39021	60.4551
4.38649	60.4466
4.38278	60.4816
4.37908	60.4808
4.37539	60.4784
4.3717	60.5355
4.36801	60.5801
4.36434	60.5463
4.36067	60.55
4.357	60.5585
4.35335	60.581
4.34969	60.5587
4.34605	60.4926
4.34241	60.4657
4.33877	60.4986
4.33514	60.4964
4.33152	60.4746
4.32791	60.4319
4.3243	60.4114
4.32069	60.4326
4.3171	60.4912
4.31351	60.5097
4.30992	60.4974
4.30634	60.4839
4.30277	60.4596
4.2992	60.4496
4.29564	60.5133
4.29208	60.5376
4.28853	60.4997
4.28499	60.434
4.28145	60.4146
4.27792	60.4854
4.27439	60.5008
4.27087	60.4832
4.26735	60.5014
4.26384	60.5407
4.26034	60.5682
4.25684	60.556
4.25335	60.5044
4.24986	60.4709
4.24638	60.5191
4.24291	60.5957
4.23944	60.5799
4.23598	60.5438
4.23252	60.4653
4.22906	60.4441
4.22562	60.4908
4.22218	60.5549
4.21874	60.6025
4.21531	60.6139
4.21189	60.59
4.20847	60.6044
4.20506	60.632
4.20165	60.5931
4.19825	60.5414
4.19485	60.5673
4.19146	60.6499
4.18807	60.659
4.18469	60.6581
4.18132	60.6771
4.17795	60.6681
4.17458	60.6068
4.17123	60.6086
4.16787	60.6503
4.16453	60.6824
4.16118	60.6827
4.15785	60.6375
4.15451	60.6413
4.15119	60.6892
4.14787	60.6982
4.14455	60.6723
4.14124	60.7164
4.13794	60.7494
4.13464	60.741
4.13134	60.6915
4.12805	60.622
4.12477	60.6207
4.12149	60.6528
4.11822	60.685
4.11495	60.7235
4.11168	60.7235
4.10843	60.6533
4.10517	60.6483
4.10192	60.6905
4.09868	60.7188
4.09545	60.7076
4.09221	60.7266
4.08899	60.7597
4.08576	60.7641
4.08255	60.7264
4.07933	60.7163
4.07613	60.7095
4.07292	60.7038
4.06973	60.7251
4.06654	60.7253
4.06335	60.7636
4.06017	60.8162
4.05699	60.8016
4.05382	60.7901
4.05065	60.7623
4.04749	60.7346
4.04433	60.6867
4.04118	60.7009
4.03803	60.6982
4.03489	60.7544
4.03175	60.7688
4.02862	60.7434
4.02549	60.7618
4.02237	60.7302
4.01925	60.7055
4.01614	60.7343
4.01303	60.735
4.00993	60.7527
4.00683	60.7857
4.00373	60.7863
4.00064	60.8535
3.99756	60.8591
3.99448	60.8432
3.9914	60.8691
3.98833	60.7951
3.98527	60.7586
3.98221	60.7797
3.97915	60.7982
3.9761	60.8328
3.97305	60.895
3.97001	60.8774
3.96697	60.854
3.96394	60.8904
3.96091	60.8467
3.95789	60.8298
3.95487	60.8125
3.95186	60.7944
3.94885	60.7982
3.94584	60.8475
3.94284	60.8615
3.93984	60.8089
3.93685	60.8347
3.93386	60.8281
3.93088	60.8155
3.9279	60.8124
3.92493	60.831
3.92196	60.8371
3.919	60.9046
3.91604	60.9297
3.91308	60.8806
3.91013	60.8859
3.90718	60.8784
3.90424	60.8663
3.9013	60.8573
3.89837	60.8617
3.89544	60.9377
3.89252	61.0257
3.8896	60.9559
3.88668	60.8534
3.88377	60.8477
3.88086	60.8406
3.87796	60.9184
3.87506	60.907
3.87217	60.8293
3.86928	60.8138
3.86639	60.8572
3.86351	60.8732
3.86064	60.8756
3.85776	60.9328
3.8549	60.8971
3.85203	60.8668
3.84917	60.8728
3.84631	60.8706
3.84346	60.8402
3.84062	60.914
3.83777	60.9858
3.83494	60.9991
3.8321	60.9458
3.82927	60.8304
3.82644	60.8586
3.82362	60.9476
3.82081	60.9379
3.81799	60.8893
3.81518	60.8603
3.81238	60.8834
3.80958	60.8732
3.80678	60.915
3.80399	60.964
3.8012	60.897
3.79841	60.8493
3.79563	60.8949
3.79286	60.8938
3.79008	60.9094
3.78731	60.9153
3.78455	60.8708
3.78179	60.925
3.77903	60.9316
3.77628	60.9463
3.77353	61.0169
3.77079	60.9976
3.76805	60.9418
3.76531	60.9552
3.76258	60.9734
3.75985	60.8927
3.75713	60.8727
3.7544	60.9052
3.75169	60.8951
3.74898	60.9481
3.74627	60.9791
3.74356	60.9295
3.74086	60.9511
3.73816	60.9387
3.73547	60.9552
3.73278	61.0113
3.7301	60.9583
3.72741	60.8958
3.72474	60.9432
3.72206	60.9567
3.71939	60.9431
3.71673	60.9164
3.71406	60.9193
3.71141	60.9454
3.70875	60.9922
3.7061	61.0551
3.70345	61.0338
3.70081	60.9747
3.69817	61.0333
3.69553	61.0686
3.6929	60.9847
3.69027	60.9498
3.68765	60.964
3.68503	60.986
3.68241	61.0256
3.6798	61.0343
3.67719	60.9843
3.67458	60.98
3.67198	60.9986
3.66938	61.0142
3.66678	60.9894
3.66419	60.9575
3.66161	60.9959
3.65902	60.9908
3.65644	60.9609
3.65387	61.0035
3.65129	61.0666
3.64872	61.0652
3.64616	61.0219
3.64359	60.9815
3.64103	61.0024
3.63848	61.0702
3.63593	61.0479
3.63338	61.0384
3.63084	60.9987
3.6283	60.9748
3.62576	61.0443
3.62322	61.0067
3.62069	60.9395
3.61817	60.9159
3.61564	60.9281
3.61312	60.9556
3.61061	60.9852
3.6081	60.9812
3.60559	61.0112
3.60308	61.021
3.60058	60.983
3.59808	60.9722
3.59559	60.975
3.59309	60.9873
3.59061	60.9299
3.58812	60.9342
3.58564	60.9396
3.58316	60.9061
3.58069	60.8735
3.57822	60.8878
3.57575	60.88
3.57328	60.9141
3.57082	61.0146
3.56836	60.9655
3.56591	60.8841
3.56346	60.8245
3.56101	60.789
3.55857	60.8654
3.55613	60.8851
3.55369	60.8717
3.55126	60.8465
3.54883	60.716
3.5464	60.6845
3.54397	60.7855
3.54155	60.7194
3.53914	60.5747
3.53672	60.4702
3.53431	60.436
3.5319	60.4009
3.5295	60.2957
3.5271	60.1889
3.5247	60.0855
3.52231	59.9938
3.51991	59.8637
3.51753	59.7599
3.51514	59.6373
3.51276	59.3812
3.51038	59.0592
3.50801	58.8773
3.50563	58.7164
3.50327	58.5398
3.5009	58.4128
3.49854	58.317
3.49618	58.3734
3.49382	58.421
3.49147	58.3497
3.48912	58.3586
3.48677	58.3366
3.48443	58.3143
3.48209	58.2976
3.47975	58.1928
3.47742	58.1511
3.47509	58.2179
3.47276	58.3414
3.47044	58.5031
3.46812	58.6668
3.4658	58.8007
3.46348	58.9237
3.46117	58.9123
3.45886	58.8203
3.45656	58.8356
3.45425	58.8274
3.45195	58.7847
3.44966	58.7205
3.44736	58.6639
3.44507	58.6085
3.44279	58.4782
3.4405	58.284
3.43822	58.1243
3.43594	58.05
3.43367	57.9018
3.43139	57.6672
3.42912	57.4772
3.42686	57.2677
3.42459	57.0641
3.42233	56.8957
3.42007	56.7282
3.41782	56.598
3.41557	56.5636
3.41332	56.5442
3.41108	56.4671
3.40883	56.4282
3.40659	56.4469
3.40435	56.4304
3.40212	56.6074
3.39989	56.842
3.39766	57.0637
3.39544	57.2672
3.39322	57.4425
3.391	57.5332
3.38878	57.5162
3.38657	57.4504
3.38436	57.4565
3.38215	57.417
3.37994	57.3836
3.37774	57.3603
3.37554	57.3834
3.37335	57.4881
3.37115	57.5863
3.36896	57.6368
3.36678	57.841
3.36459	58.1818
3.36241	58.481
3.36023	58.7562
3.35805	59.103
3.35588	59.4106
3.35371	59.6126
3.35154	59.8941
3.34938	60.1027
3.34721	60.2839
3.34505	60.5034
3.3429	60.5973
3.34074	60.6964
3.33859	60.8979
3.33644	60.989
3.3343	61.0156
3.33215	61.1095
3.33002	61.1949
3.32788	61.2058
3.32574	61.3099
3.32361	61.3431
3.32148	61.3522
3.31936	61.4244
3.31723	61.5249
3.31511	61.5268
3.31299	61.5503
3.31088	61.579
3.30876	61.54
3.30665	61.4788
3.30455	61.5193
3.30244	61.6626
3.30034	61.7032
3.29824	61.6686
3.29614	61.6678
3.29405	61.6421
3.29196	61.5973
3.28987	61.6004
3.28778	61.6369
3.2857	61.7028
3.28362	61.768
3.28154	61.8072
3.27946	61.7206
3.27739	61.5988
3.27532	61.6654
3.27325	61.7975
3.27119	61.8186
3.26913	61.766
3.26707	61.6865
3.26501	61.673
3.26295	61.7171
3.2609	61.771
3.25885	61.7936
3.2568	61.8033
3.25476	61.8621
3.25272	61.8294
3.25068	61.8157
3.24864	61.8447
3.24661	61.7691
3.24458	61.7885
3.24255	61.9179
3.24052	61.9174
3.2385	61.9095
3.23648	61.938
3.23446	61.8614
3.23244	61.7948
3.23043	61.8754
3.22841	61.9284
3.2264	61.8565
3.2244	61.8577
3.22239	61.8522
3.22039	61.8548
3.21839	61.8093
3.2164	61.8425
3.2144	61.9305
3.21241	61.9928
3.21042	61.9937
3.20844	61.9146
3.20645	61.8695
3.20447	61.7977
3.20249	61.798
3.20051	61.8634
3.19854	61.9654
3.19657	61.9162
3.1946	61.8568
3.19263	61.8959
3.19067	61.8695
3.1887	61.8756
3.18674	61.8901
3.18479	61.8557
3.18283	61.9135
3.18088	61.9814
3.17893	62.0361
3.17698	62.0246
3.17504	61.8988
3.17309	61.8703
3.17115	61.8842
3.16921	61.923
3.16728	61.9889
3.16534	61.9471
3.16341	61.9118
3.16148	61.9791
3.15956	62.0107
3.15763	61.9466
3.15571	61.9538
3.15379	61.997
3.15187	61.9494
3.14996	61.972
3.14805	61.98
3.14614	61.9808
3.14423	61.9709
3.14232	61.9298
3.14042	61.8602
3.13852	61.8783
3.13662	61.9153
3.13472	61.8796
3.13283	61.8517
3.13094	61.898
3.12905	61.9545
3.12716	61.9035
3.12528	61.8227
3.12339	61.8542
3.12151	61.889
3.11964	61.9504
3.11776	62.0493
3.11589	62.0377
3.11401	61.9687
3.11214	61.9668
3.11028	61.9968
3.10841	61.9331
3.10655	61.8968
3.10469	61.9186
3.10283	61.9389
3.10098	61.9771
3.09912	61.9788
3.09727	61.9432
3.09542	61.9464
3.09358	61.9909
3.09173	61.9709
3.08989	61.861
3.08805	61.8979
3.08621	61.9291
3.08437	61.9175
3.08254	61.947
3.08071	61.9922
3.07888	61.9451
3.07705	61.8511
3.07523	61.8788
3.0734	61.916
3.07158	61.9631
3.06977	61.9611
3.06795	62.0348
3.06613	61.9825
3.06432	61.9026
3.06251	61.9021
3.06071	61.8804
3.0589	61.7781
3.0571	61.7696
3.05529	61.8271
3.05349	61.8266
3.0517	61.8065
3.0499	61.8545
3.04811	61.8075
3.04632	61.7782
3.04453	61.8182
3.04274	61.781
3.04096	61.7858
3.03918	61.8033
3.0374	61.7966
3.03562	61.8244
3.03384	61.8465
3.03207	61.7789
3.03029	61.8189
3.02852	61.8549
3.02676	61.816
3.02499	61.7755
3.02323	61.7741
3.02146	61.8765
3.0197	61.8169
3.01795	61.6816
3.01619	61.6913
3.01444	61.6936
3.01269	61.6739
3.01094	61.7059
3.00919	61.751
3.00744	61.6576
3.0057	61.5417
3.00396	61.5113
3.00222	61.6995
3.00048	61.7496
2.99875	61.6444
2.99701	61.5599
2.99528	61.5674
2.99355	61.6126
2.99183	61.6503
2.9901	61.6129
2.98838	61.5733
2.98666	61.5879
2.98494	61.5792
2.98322	61.6027
2.9815	61.5896
2.97979	61.4664
2.97808	61.4747
2.97637	61.4948
2.97466	61.4496
2.97295	61.5024
2.97125	61.5006
2.96955	61.4177
2.96785	61.3922
2.96615	61.3942
2.96446	61.4568
2.96276	61.4816
2.96107	61.3917
2.95938	61.3972
2.95769	61.4703
2.95601	61.4029
2.95432	61.3675
2.95264	61.3578
2.95096	61.3645
2.94928	61.3934
2.9476	61.4564
2.94593	61.4073
2.94425	61.2556
2.94258	61.2765
2.94092	61.3327
2.93925	61.3213
2.93758	61.4011
2.93592	61.4306
2.93426	61.389
2.9326	61.3338
2.93094	61.3104
2.92928	61.3605
2.92763	61.3066
2.92598	61.3172
2.92433	61.3924
2.92268	61.357
2.92103	61.2324
2.91939	61.2518
2.91775	61.2063
2.9161	61.1896
2.91447	61.2546
2.91283	61.2122
2.91119	61.1825
2.90956	61.2674
2.90793	61.2897
2.9063	61.3422
2.90467	61.3337
2.90304	61.2481
2.90142	61.3027
2.89979	61.2934
2.89817	61.146
2.89656	60.9931
2.89494	61.059
2.89332	61.1984
2.89171	61.2086
2.8901	61.0684
2.88849	61.0758
2.88688	61.1612
2.88527	61.1453
2.88367	61.0621
2.88206	61.1572
2.88046	61.2199
2.87886	61.1765
2.87727	61.0705
2.87567	60.9931
2.87408	61.0344
2.87248	61.027
2.87089	60.9787
2.8693	61.0759
2.86772	61.1417
2.86613	61.1505
2.86455	61.1498
2.86297	61.1382
2.86139	61.123
2.85981	61.2079
2.85823	61.2155
2.85666	61.1629
2.85508	61.2399
2.85351	61.1762
2.85194	61.0706
2.85038	61.1262
2.84881	61.1728
2.84724	61.1823
2.84568	61.2165
2.84412	61.2865
2.84256	61.2837
2.841	61.3714
2.83945	61.3756
2.83789	61.3653
2.83634	61.2865
2.83479	61.2915
2.83324	61.3572
2.83169	61.4344
2.83015	61.5186
2.82861	61.5339
2.82706	61.5208
2.82552	61.5749
2.82398	61.5196
2.82245	61.5735
2.82091	61.6633
2.81938	61.6134
2.81784	61.6828
2.81631	61.7276
2.81479	61.7493
2.81326	61.7425
2.81173	61.7415
2.81021	61.7897
2.80869	61.7324
2.80716	61.6679
2.80565	61.7603
2.80413	61.8057
2.80261	61.8951
2.8011	61.9017
2.79959	61.9454
2.79808	62.0317
2.79657	62.0005
2.79506	62.0261
2.79355	62.0584
2.79205	62.0277
2.79055	62.1065
2.78904	62.1551
2.78754	62.2805
2.78605	62.3755
2.78455	62.4211
2.78306	62.4983
2.78156	62.4524
2.78007	62.335
2.77858	62.2674
2.77709	62.3619
2.77561	62.4662
2.77412	62.3325
2.77264	62.4138
2.77116	62.6236
2.76968	62.5749
2.7682	62.5656
2.76672	62.6012
2.76524	62.6621
2.76377	62.7448
2.7623	62.7111
2.76083	62.4478
2.75936	62.3568
2.75789	62.4933
2.75642	62.716
2.75496	62.6884
2.7535	62.5793
2.75203	62.5425
2.75057	62.4787
2.74912	62.5159
2.74766	62.6217
2.7462	62.5914
2.74475	62.4798
2.7433	62.5428
2.74185	62.7184
2.7404	62.7884
2.73895	62.7519
2.7375	62.6774
2.73606	62.5988
2.73462	62.5767
2.73318	62.5173
2.73174	62.5564
2.7303	62.6509
2.72886	62.6321
2.72742	62.5821
2.72599	62.5834
2.72456	62.6955
2.72313	62.6768
2.7217	62.6954
2.72027	62.8311
2.71884	62.7606
2.71742	62.6729
2.71599	62.6244
2.71457	62.6186
2.71315	62.7005
2.71173	62.8727
2.71032	62.8254
2.7089	62.6185
2.70748	62.6481
2.70607	62.7463
2.70466	62.6924
2.70325	62.5927
2.70184	62.6904
2.70043	62.6532
2.69903	62.4911
2.69762	62.5971
2.69622	62.8676
2.69482	62.8779
2.69342	62.7471
2.69202	62.5796
2.69062	62.5608
2.68923	62.6646
2.68783	62.7008
2.68644	62.6996
2.68505	62.7332
2.68366	62.7699
2.68227	62.7338
2.68089	62.7044
2.6795	62.8483
2.67812	62.867
2.67673	62.8118
2.67535	62.7645
2.67397	62.807
2.6726	62.796
2.67122	62.8803
2.66984	62.9477
2.66847	62.8441
2.6671	62.9336
2.66572	63.0059
2.66435	62.9377
2.66299	62.792
2.66162	62.8064
2.66025	62.9134
2.65889	62.942
2.65753	62.8574
2.65616	62.7148
2.65481	62.6449
2.65345	62.794
2.65209	62.8307
2.65073	62.7366
2.64938	62.7136
2.64803	62.7385
2.64667	62.7814
2.64532	62.8592
2.64397	62.7511
2.64263	62.8008
2.64128	62.8341
2.63994	62.8292
2.63859	62.857
2.63725	62.8373
2.63591	62.7653
2.63457	62.8515
2.63323	62.8365
2.6319	62.8698
2.63056	62.9479
2.62923	62.8817
2.62789	62.8903
2.62656	62.9737
2.62523	62.8703
2.6239	62.7474
2.62258	62.8274
2.62125	63.0345
2.61993	63.0699
2.6186	62.9034
2.61728	62.8094
2.61596	62.725
2.61464	62.7183
2.61332	62.7774
2.61201	62.7369
2.61069	62.8302
2.60938	62.8409
2.60807	62.8983
2.60675	63.0876
2.60544	63.1492
2.60414	63.0016
2.60283	62.9313
2.60152	62.9372
2.60022	62.8822
2.59891	62.7551
2.59761	62.7639
2.59631	63.0375
2.59501	63.2493
2.59371	63.0566
2.59242	62.9369
2.59112	62.8699
2.58983	62.867
2.58853	62.9831
2.58724	63.0851
2.58595	63.1073
2.58466	62.9948
2.58338	62.8254
2.58209	62.8546
2.5808	62.9094
2.57952	62.8729
2.57824	62.9677
2.57695	62.9599
2.57567	62.8575
2.5744	62.9021
2.57312	62.9768
2.57184	62.9739
2.57057	63.0688
2.56929	63.012
2.56802	63.0012
2.56675	62.9901
2.56548	62.9061
2.56421	62.8808
2.56294	62.9861
2.56168	63.0593
2.56041	62.9838
2.55915	62.9289
2.55789	62.8485
2.55662	62.8667
2.55536	62.8639
2.5541	62.8997
2.55285	62.9471
2.55159	62.9933
2.55034	62.9572
2.54908	62.9413
2.54783	62.9872
2.54658	62.9931
2.54533	63.0129
2.54408	63.0993
2.54283	63.1456
2.54159	63.0441
2.54034	62.9757
2.5391	62.9291
2.53785	62.8067
2.53661	62.8548
2.53537	62.9548
2.53413	62.9323
2.53289	62.8334
2.53166	62.8616
2.53042	62.9947
2.52919	63.0517
2.52795	63.0008
2.52672	62.9608
2.52549	63.0455
2.52426	63.0752
2.52303	63.0887
2.52181	63.0298
2.52058	62.9805
2.51936	62.961
2.51813	62.8931
2.51691	62.8724
2.51569	62.9796
2.51447	63.0617
2.51325	63.0971
2.51203	63.0358
2.51082	62.9582
2.5096	63.0101
2.50839	63.1129
2.50717	63.0796
2.50596	63.081
2.50475	63.0308
2.50354	62.9691
2.50233	62.9016
2.50113	62.8869
2.49992	62.9587
2.49872	62.9828
2.49751	63.0046
2.49631	63.0102
2.49511	63.0184
2.49391	63.034
2.49271	62.9351
2.49151	62.9086
2.49031	63.0715
2.48912	63.0759
2.48792	62.918
2.48673	62.8854
2.48554	63.0481
2.48435	63.0869
2.48316	62.9984
2.48197	63.0785
2.48078	63.1239
2.4796	63.05
2.47841	63.0197
2.47723	63.0602
2.47604	63.1238
2.47486	63.0757
2.47368	62.9897
2.4725	63.0083
2.47132	62.9557
2.47014	63.0031
2.46897	63.0866
2.46779	63.0872
2.46662	63.014
2.46545	63.1458
2.46427	63.2157
2.4631	63.0833
2.46193	62.9639
2.46077	63.034
2.4596	63.1278
2.45843	63.1769
2.45727	63.1327
2.4561	63.096
2.45494	63.055
2.45378	63.0353
2.45262	63.0755
2.45146	63.0946
2.4503	63.1514
2.44914	63.1881
2.44799	63.1531
2.44683	63.052
2.44568	62.972
2.44452	63.0124
2.44337	63.2392
2.44222	63.3039
2.44107	63.2002
2.43992	63.1709
2.43877	63.161
2.43763	63.1515
2.43648	63.1858
2.43534	63.201
2.43419	63.1656
2.43305	63.2365
2.43191	63.2666
2.43077	63.2721
2.42963	63.2695
2.42849	63.1564
2.42736	63.0667
2.42622	63.0833
2.42509	63.1014
2.42395	63.0699
2.42282	63.1146
2.42169	63.1189
2.42056	63.0932
2.41943	63.2608
2.4183	63.3441
2.41717	63.1973
2.41605	63.1603
2.41492	63.2002
2.4138	63.2104
2.41267	63.2519
2.41155	63.2357
2.41043	63.2718
2.40931	63.3072
2.40819	63.2019
2.40707	63.1293
2.40595	63.0606
2.40484	63.1509
2.40372	63.2624
2.40261	63.3071
2.4015	63.2656
2.40039	63.1455
2.39928	63.1552
2.39817	63.2909
2.39706	63.3329
2.39595	63.2624
2.39484	63.2432
2.39374	63.3266
2.39263	63.2327
2.39153	63.0325
2.39043	63.1185
2.38932	63.2703
2.38822	63.3202
2.38712	63.3041
2.38603	63.3128
2.38493	63.3184
2.38383	63.4212
2.38274	63.471
2.38164	63.3648
2.38055	63.3445
2.37946	63.3123
2.37836	63.3313
2.37727	63.3505
2.37618	63.3608
2.3751	63.239
2.37401	63.2213
2.37292	63.315
2.37184	63.4246
2.37075	63.4807
2.36967	63.4914
2.36859	63.3963
2.3675	63.2699
2.36642	63.4366
2.36534	63.6157
2.36427	63.4064
2.36319	63.299
2.36211	63.4409
2.36104	63.432
2.35996	63.2919
2.35889	63.2346
2.35781	63.2498
2.35674	63.3548
2.35567	63.3333
2.3546	63.3076
2.35353	63.3345
2.35247	63.3073
2.3514	63.3307
2.35033	63.3985
2.34927	63.3735
2.3482	63.3584
2.34714	63.358
2.34608	63.3707
2.34502	63.4422
2.34396	63.5029
2.3429	63.4218
2.34184	63.3323
2.34078	63.3418
2.33973	63.3926
2.33867	63.411
2.33762	63.3035
2.33656	63.2637
2.33551	63.3107
2.33446	63.3984
2.33341	63.4373
2.33236	63.5009
2.33131	63.6036
2.33026	63.6271
2.32922	63.5235
2.32817	63.5212
2.32712	63.5518
2.32608	63.5149
2.32504	63.4671
2.324	63.4521
2.32295	63.4589
2.32191	63.5125
2.32087	63.4938
2.31984	63.4852
2.3188	63.4121
2.31776	63.3022
2.31673	63.3964
2.31569	63.4554
2.31466	63.3068
2.31362	63.4572
2.31259	63.5286
2.31156	63.4874
2.31053	63.4212
2.3095	63.5129
2.30847	63.7012
2.30745	63.6985
2.30642	63.5381
2.3054	63.49
2.30437	63.5604
2.30335	63.4547
2.30232	63.4794
2.3013	63.5767
2.30028	63.5819
2.29926	63.4603
2.29824	63.3999
2.29722	63.5373
2.29621	63.6983
2.29519	63.6401
2.29417	63.5687
2.29316	63.505
2.29215	63.4559
2.29113	63.5319
2.29012	63.5691
2.28911	63.5603
2.2881	63.6258
2.28709	63.6583
2.28608	63.63
2.28507	63.5811
2.28407	63.5665
2.28306	63.5818
2.28206	63.7146
2.28105	63.5151
2.28005	63.4059
2.27905	63.5645
2.27805	63.6913
2.27705	63.7492
2.27605	63.7627
2.27505	63.7009
2.27405	63.5688
2.27305	63.4913
2.27206	63.591
2.27106	63.6735
2.27007	63.6901
2.26907	63.7552
2.26808	63.8329
2.26709	63.7548
2.2661	63.6141
2.26511	63.5596
2.26412	63.616
2.26313	63.6188
2.26214	63.634
2.26116	63.6803
2.26017	63.6572
2.25919	63.6399
2.2582	63.6816
2.25722	63.7428
2.25624	63.8077
2.25526	63.956
2.25428	63.898
2.2533	63.7651
2.25232	63.7182
2.25134	63.7198
2.25036	63.7489
2.24939	63.7546
2.24841	63.8295
2.24744	63.9072
2.24646	63.7918
2.24549	63.6946
2.24452	63.7475
2.24355	63.7465
2.24257	63.7315
2.24161	63.7268
2.24064	63.8463
2.23967	63.9791
2.2387	63.9578
2.23774	63.9059
2.23677	63.9089
2.23581	63.8264
2.23484	63.7302
2.23388	63.7786
2.23292	63.8797
2.23196	63.8039
2.231	63.7895
2.23004	63.8075
2.22908	63.8489
2.22812	63.8088
2.22716	63.8434
2.22621	63.9118
2.22525	63.8906
2.2243	63.839
2.22334	63.8723
2.22239	63.8896
2.22144	63.8529
2.22049	63.8377
2.21953	63.9158
2.21859	63.9389
2.21764	63.7417
2.21669	63.709
2.21574	63.8102
2.21479	63.8594
2.21385	63.9344
2.2129	63.9258
2.21196	64.0216
2.21102	64.0145
2.21007	64.0052
2.20913	64.0386
2.20819	63.8841
2.20725	63.7245
2.20631	63.8422
2.20537	64.0379
2.20444	64.025
2.2035	63.9259
2.20256	63.8411
2.20163	63.8786
2.20069	63.9848
2.19976	63.9304
2.19883	63.9219
2.19789	64.0084
2.19696	64.0206
2.19603	64.0042
2.1951	64.0221
2.19417	64.0855
2.19325	64.0734
2.19232	64.033
2.19139	63.9174
2.19047	63.798
2.18954	63.9055
2.18862	64.0554
2.18769	64.0963
2.18677	64.0591
2.18585	63.9818
2.18493	63.9919
2.18401	63.9271
2.18309	63.8846
2.18217	63.944
2.18125	64.0395
2.18033	64.0201
2.17942	63.9391
2.1785	64.1134
2.17759	64.1203
2.17667	64.0514
2.17576	64.0491
2.17485	64.0768
2.17393	64.1001
2.17302	64.0799
2.17211	64.0532
2.1712	63.8835
2.17029	63.738
2.16939	63.9161
2.16848	64.202
2.16757	64.2613
2.16667	64.2649
2.16576	64.0829
2.16486	64.0743
2.16395	64.1548
2.16305	63.9509
2.16215	63.7649
2.16125	63.8771
2.16035	64.0686
2.15945	64.0471
2.15855	63.9865
2.15765	63.909
2.15675	63.9468
2.15586	64.0998
2.15496	64.2554
2.15406	64.1479
2.15317	64.233
2.15228	64.4645
2.15138	64.4571
2.15049	64.0274
2.1496	63.8457
2.14871	63.9984
2.14782	64.0662
2.14693	63.9675
2.14604	63.9797
2.14515	64.0838
2.14427	64.0727
2.14338	64.1312
2.14249	64.2828
2.14161	64.3003
2.14072	64.2584
2.13984	64.3349
2.13896	64.3213
2.13808	64.2407
2.13719	64.2787
2.13631	64.1365
2.13543	64.1248
2.13455	64.1642
2.13368	64.1048
2.1328	64.1834
2.13192	64.1521
2.13105	63.9957
2.13017	64.022
2.1293	64.0182
2.12842	64.0715
2.12755	64.0772
2.12668	64.1438
2.1258	64.1697
2.12493	64.2169
2.12406	64.3052
2.12319	64.1586
2.12232	64.1533
2.12145	64.1399
2.12059	64.0165
2.11972	64.1712
2.11885	64.3431
2.11799	64.4149
2.11712	64.1641
2.11626	64.1935
2.1154	64.3039
2.11453	64.2497
2.11367	64.2901
2.11281	64.1344
2.11195	64.1641
2.11109	64.2575
2.11023	64.1707
2.10937	64.0662
2.10851	64.2847
2.10766	64.2501
2.1068	63.9018
2.10594	64.0125
2.10509	64.2178
2.10423	64.2583
2.10338	64.3379
2.10253	64.3329
2.10168	64.2748
2.10082	64.4775
2.09997	64.4277
2.09912	64.3633
2.09827	64.3716
2.09742	64.2722
2.09658	64.1902
2.09573	64.2292
2.09488	64.2639
2.09404	64.3585
2.09319	64.3507
2.09235	64.3921
2.0915	64.4435
2.09066	64.0965
2.08982	63.9952
2.08897	64.0134
2.08813	64.0799
2.08729	64.5131
2.08645	64.5647
2.08561	64.4728
2.08477	64.4157
2.08394	64.36
2.0831	64.4144
2.08226	64.3344
2.08143	64.396
2.08059	64.4508
2.07976	64.2802
2.07892	64.6007
2.07809	64.6697
2.07726	64.3655
2.07643	64.1926
2.07559	64.1844
2.07476	64.211
2.07393	64.0816
2.0731	64.2124
2.07228	64.4263
2.07145	64.3081
2.07062	64.3818
2.06979	64.4444
2.06897	64.3184
2.06814	64.2576
2.06732	64.1973
2.06649	64.3788
2.06567	64.6061
2.06485	64.7672
2.06403	64.41
2.0632	64.2028
2.06238	64.1985
2.06156	64.2969
2.06074	64.5046
2.05993	64.3687
2.05911	64.2653
2.05829	64.3203
2.05747	64.4351
2.05666	64.5097
2.05584	64.1529
2.05503	64.2079
2.05421	64.5874
2.0534	64.7326
2.05259	64.8084
2.05177	64.6103
2.05096	64.4632
2.05015	64.5559
2.04934	64.5761
2.04853	64.4106
2.04772	64.3311
2.04691	64.2526
2.04611	64.2397
2.0453	64.4197
2.04449	64.5651
2.04369	64.4995
2.04288	64.41
2.04208	64.6073
2.04127	64.6801
2.04047	64.549
2.03967	64.5065
2.03886	64.2658
2.03806	64.2101
2.03726	64.3876
2.03646	64.3201
2.03566	64.514
2.03486	64.5519
2.03407	64.6489
2.03327	64.6522
2.03247	64.5806
2.03167	64.5691
2.03088	64.4849
2.03008	64.366
2.02929	64.4499
2.0285	64.6241
2.0277	65.1378
2.02691	65.0584
2.02612	64.5725
2.02533	64.2776
2.02453	64.3165
2.02374	64.2532
2.02295	64.3894
2.02217	64.7148
2.02138	64.7501
2.02059	64.6956
2.0198	64.6322
2.01902	64.5664
2.01823	64.4269
2.01744	64.3678
2.01666	64.4411
2.01588	64.697
2.01509	64.8687
2.01431	64.6648
2.01353	64.6462
2.01275	64.7176
2.01196	64.5567
2.01118	64.5006
2.0104	64.5214
2.00963	64.7067
2.00885	64.8572
2.00807	64.8066
2.00729	64.7541
2.00651	64.6902
2.00574	64.6791
2.00496	64.6476
2.00419	64.6991
2.00341	64.674
2.00264	64.644
2.00187	64.5457
2.00109	64.5212
2.00032	64.5659
