Name: Witherite BaCO_3
Type: Mineral
Class: Carbonates
Subclass: 
Particle Size: 45-125um
Sample No.: C-2A
Owner: JPL
Wavelength range: IR
Origin: United Kingdom, England
Collected by Grieger's Inc.
Description: 





Measurement: Hemispherical reflectance
First Column: X
Second Column: Y
X Units:  Wavelength (micrometers)
Y Units:  Reflectance (percent)
First X Value: 15.3853
Last X Value: 2.00032
Number of X Values: 2256
Additional information: c02aa.txt
 
15.3853	46.5821
15.3397	46.4051
15.2945	46.4939
15.2495	46.3606
15.2048	45.8484
15.1603	44.7738
15.1161	43.2099
15.0722	41.035
15.0285	38.4694
14.9851	36.2118
14.9419	34.2303
14.8989	32.2253
14.8563	30.0253
14.8138	27.3582
14.7716	23.2559
14.7296	18.6922
14.6879	17.5565
14.6464	15.514
14.6052	10.8089
14.5641	7.53857
14.5233	5.49368
14.4828	5.36774
14.4424	6.05651
14.4023	4.83876
14.3624	2.65805
14.3227	2.51606
14.2833	4.39847
14.244	7.04051
14.205	10.6538
14.1662	17.3943
14.1276	23.9277
14.0892	28.547
14.051	31.8942
14.0131	34.3235
13.9753	36.5548
13.9377	38.5458
13.9004	40.5825
13.8632	42.4957
13.8262	44.1933
13.7895	45.7243
13.7529	47.0697
13.7165	48.1288
13.6803	49.107
13.6443	49.7197
13.6085	49.9914
13.5729	50.2467
13.5374	50.3333
13.5022	50.1601
13.4671	49.8957
13.4322	49.2809
13.3975	48.5276
13.363	47.6934
13.3286	46.6987
13.2944	45.542
13.2604	44.2843
13.2266	42.9276
13.193	41.469
13.1595	40.0227
13.1262	38.8929
13.093	38.1343
13.06	37.5849
13.0272	37.1632
12.9946	36.9631
12.9621	37.1497
12.9298	37.5215
12.8976	37.9239
12.8656	38.2783
12.8337	38.7635
12.8021	39.439
12.7705	39.8388
12.7391	39.9141
12.7079	39.9714
12.6769	40.0881
12.6459	40.016
12.6152	39.9846
12.5845	39.8227
12.5541	39.1561
12.5238	38.22
12.4936	37.1184
12.4635	35.8521
12.4337	34.5482
12.4039	33.6091
12.3743	32.9894
12.3448	32.3628
12.3155	31.8576
12.2863	31.6055
12.2573	31.3108
12.2284	30.8595
12.1996	30.2697
12.171	29.417
12.1425	28.1467
12.1141	26.4285
12.0859	24.0787
12.0578	21.3657
12.0298	18.7494
12.0019	16.1102
11.9742	13.5408
11.9466	11.0895
11.9192	8.9801
11.8918	8.17988
11.8646	8.59132
11.8375	8.97537
11.8106	8.94074
11.7837	9.0924
11.757	9.41007
11.7304	10.2025
11.7039	12.0206
11.6776	14.691
11.6513	17.4812
11.6252	20.1685
11.5992	22.0204
11.5733	21.161
11.5475	16.7791
11.5219	12.1915
11.4963	10.1569
11.4709	9.80659
11.4455	9.90973
11.4203	10.0578
11.3952	9.91479
11.3702	9.73374
11.3454	9.49026
11.3206	8.6134
11.2959	7.58003
11.2714	8.38711
11.2469	10.5718
11.2226	11.947
11.1983	12.759
11.1742	13.4627
11.1502	14.0617
11.1263	14.7166
11.1024	15.539
11.0787	16.8332
11.0551	18.6275
11.0316	20.7045
11.0081	22.7633
10.9848	24.7448
10.9616	26.3192
10.9385	27.0591
10.9154	26.9278
10.8925	26.2759
10.8697	25.2262
10.8469	24.2455
10.8243	23.5865
10.8017	23.1476
10.7793	23.2764
10.7569	24.1497
10.7346	25.2546
10.7125	26.3297
10.6904	27.4841
10.6684	28.6022
10.6465	29.6109
10.6247	30.8292
10.6029	32.0766
10.5813	33.0238
10.5597	33.5736
10.5383	33.9734
10.5169	34.24
10.4956	34.1071
10.4744	33.3472
10.4533	32.2044
10.4323	31.356
10.4113	30.9198
10.3904	30.341
10.3697	29.6803
10.349	29.5957
10.3284	30.0251
10.3078	30.5782
10.2874	30.8585
10.267	30.7885
10.2467	30.5179
10.2265	30.1518
10.2064	30.0791
10.1863	30.2897
10.1663	30.4005
10.1464	29.9486
10.1266	29.0885
10.1069	28.278
10.0872	27.6572
10.0676	27.5597
10.0481	27.8496
10.0287	27.9788
10.0093	27.6623
9.99005	26.9999
9.97084	26.2972
9.95169	25.8157
9.93263	25.5704
9.91364	25.4902
9.89472	25.4372
9.87587	25.3408
9.8571	25.1488
9.83839	24.8622
9.81976	24.4406
9.80119	24.1333
9.78271	23.8487
9.76428	23.7406
9.74592	23.7752
9.72764	23.8006
9.70943	23.7016
9.69128	23.6108
9.6732	23.3061
9.65518	22.2403
9.63724	20.32
9.61935	20.165
9.60155	21.1707
9.5838	21.3314
9.56611	21.4032
9.5485	21.5527
9.53094	21.7081
9.51345	21.3992
9.49604	19.848
9.47867	15.8609
9.46137	10.0784
9.44414	6.56578
9.42697	7.69024
9.40986	12.8515
9.39281	18.2332
9.37583	21.2398
9.35891	22.6023
9.34204	22.936
9.32524	22.8884
9.3085	22.7695
9.29182	22.5299
9.27519	22.1194
9.25863	21.7676
9.24213	21.4142
9.22568	21.1355
9.2093	20.6949
9.19297	20.1939
9.17669	19.657
9.16048	19.1699
9.14433	18.7189
9.12823	18.3931
9.11218	18.0599
9.0962	17.5833
9.08027	17.0788
9.06439	16.8087
9.04858	16.5073
9.03281	16.0745
9.0171	15.5758
9.00145	15.1514
8.98585	14.8076
8.9703	14.8315
8.9548	15.1137
8.93937	15.4862
8.92398	15.895
8.90865	16.3511
8.89337	16.9975
8.87814	17.4727
8.86296	18.1628
8.84784	18.7491
8.83277	18.7335
8.81774	18.0799
8.80277	17.3479
8.78786	16.9991
8.77298	16.912
8.75816	16.8935
8.7434	16.5403
8.72868	15.8595
8.714	15.0041
8.69938	14.2839
8.68481	13.9281
8.67029	13.8703
8.65581	13.7853
8.64139	13.6634
8.62701	13.7188
8.61268	14.1974
8.5984	14.5819
8.58416	14.7661
8.56997	14.809
8.55583	14.6983
8.54174	14.3582
8.52769	13.8345
8.51368	13.2137
8.49973	12.9357
8.48582	13.1076
8.47195	13.5734
8.45813	14.0208
8.44436	14.3399
8.43062	14.4915
8.41693	14.6888
8.4033	14.9464
8.3897	15.0198
8.37614	14.9966
8.36264	14.9966
8.34917	15.0925
8.33574	15.0462
8.32236	14.8775
8.30903	14.4274
8.29573	13.6992
8.28248	12.9398
8.26927	12.0416
8.2561	11.296
8.24298	10.7027
8.2299	10.3848
8.21685	10.5236
8.20385	10.9219
8.19089	11.2436
8.17797	11.3798
8.16509	11.4516
8.15225	11.6316
8.13946	11.8545
8.1267	12.1094
8.11398	12.141
8.10131	11.8872
8.08867	11.3954
8.07606	10.8398
8.0635	10.3522
8.05099	10.0329
8.0385	9.71088
8.02606	9.41593
8.01366	9.25979
8.00129	9.07647
7.98896	8.90245
7.97667	8.85147
7.96442	8.81119
7.9522	8.78367
7.94002	8.76922
7.92788	8.70538
7.91578	8.58452
7.90371	8.51144
7.89168	8.52162
7.87969	8.62206
7.86773	8.6821
7.85581	8.58447
7.84392	8.40028
7.83207	8.08906
7.82026	7.75601
7.80849	7.35688
7.79674	6.90499
7.78503	6.59694
7.77337	6.46262
7.76173	6.36688
7.75012	6.27453
7.73856	6.18308
7.72703	6.1592
7.71553	6.22857
7.70406	6.10962
7.69263	5.99335
7.68123	6.01488
7.66987	6.08524
7.65855	6.13414
7.64725	6.12277
7.63598	6.11083
7.62475	6.11943
7.61356	6.0962
7.60239	6.23376
7.59126	6.33131
7.58017	6.36008
7.5691	6.37506
7.55806	6.38443
7.54707	6.40905
7.5361	6.46178
7.52516	6.44404
7.51425	6.38931
7.50338	6.45954
7.49253	6.56935
7.48172	6.63427
7.47094	6.72042
7.46019	6.72776
7.44947	6.88358
7.43879	6.97292
7.42813	7.03176
7.4175	7.14879
7.4069	7.27249
7.39634	7.3354
7.3858	7.41794
7.37529	7.46475
7.36482	7.51336
7.35437	7.57497
7.34396	7.67197
7.33357	7.76922
7.32321	7.86702
7.31288	7.90572
7.30258	7.90297
7.29231	7.90916
7.28207	8.08131
7.27185	8.26221
7.26167	8.38314
7.25152	8.54059
7.24139	8.78741
7.23129	9.12502
7.22122	9.41628
7.21117	9.66095
7.20116	9.88279
7.19117	10.1283
7.18121	10.4498
7.17128	10.8445
7.16137	11.2214
7.1515	11.5401
7.14164	11.9182
7.13182	12.3941
7.12203	12.9487
7.11225	13.5963
7.10251	14.5242
7.0928	15.7915
7.08311	17.4244
7.07344	19.4175
7.06381	21.7558
7.0542	24.2324
7.04461	26.1109
7.03506	27.1108
7.02552	27.7263
7.01601	28.1603
7.00653	28.5638
6.99708	28.97
6.98765	29.1965
6.97824	29.3989
6.96886	29.7968
6.95951	30.2428
6.95018	30.3427
6.94087	30.5449
6.9316	30.8688
6.92234	31.1578
6.91311	31.5683
6.90391	32.0573
6.89473	32.3704
6.88557	32.6445
6.87644	33.1361
6.86733	33.9287
6.85824	34.1873
6.84918	34.064
6.84015	34.1711
6.83114	34.4241
6.82215	34.4538
6.81319	34.3315
6.80424	34.2901
6.79532	34.3481
6.78643	34.0436
6.77756	33.4901
6.76871	33.0117
6.75989	32.5996
6.75109	32.1379
6.74231	31.5285
6.73355	31.0367
6.72482	30.6598
6.71611	30.2851
6.70742	29.894
6.69875	29.4768
6.69011	29.4562
6.68149	29.7912
6.67289	30.186
6.66431	30.4873
6.65576	30.7048
6.64722	31.0336
6.63871	31.4388
6.63022	31.1208
6.62175	30.4545
6.61331	29.7049
6.60488	28.4565
6.59648	26.5106
6.5881	23.7526
6.57974	20.6164
6.5714	17.3695
6.56308	14.4564
6.55478	12.0334
6.54651	9.84448
6.53825	8.14813
6.53001	6.74545
6.5218	5.44232
6.51361	4.35467
6.50544	3.52022
6.49729	2.87492
6.48915	2.36971
6.48104	1.93044
6.47295	1.52001
6.46488	1.28365
6.45683	1.13399
6.4488	0.971272
6.44079	0.861385
6.4328	0.805578
6.42482	0.745122
6.41687	0.673024
6.40894	0.619173
6.40103	0.56561
6.39314	0.537435
6.38526	0.5081
6.37741	0.417044
6.36957	0.476164
6.36176	0.575305
6.35396	0.558682
6.34618	0.494926
6.33843	0.499736
6.33069	0.551204
6.32297	0.522157
6.31527	0.539579
6.30758	0.611054
6.29992	0.625784
6.29227	0.659863
6.28465	0.658138
6.27704	0.643144
6.26945	0.670722
6.26188	0.631757
6.25432	0.581883
6.24679	0.648897
6.23927	0.713158
6.23177	0.746554
6.22429	0.787309
6.21683	0.864116
6.20938	0.962068
6.20195	1.01509
6.19454	1.02771
6.18715	1.08509
6.17978	1.0834
6.17242	1.12036
6.16508	1.27075
6.15776	1.3229
6.15045	1.32891
6.14317	1.42836
6.1359	1.52544
6.12864	1.50731
6.12141	1.43526
6.11419	1.50471
6.10699	1.54569
6.0998	1.66036
6.09263	1.84122
6.08549	1.88667
6.07835	2.04637
6.07123	2.27174
6.06413	2.45399
6.05705	2.57474
6.04998	2.7528
6.04293	2.95771
6.0359	3.14684
6.02888	3.50265
6.02187	3.88935
6.01489	4.24284
6.00792	4.6167
6.00096	5.12391
5.99403	5.61041
5.98711	6.18182
5.9802	6.76848
5.97331	7.30932
5.96644	7.89317
5.95958	8.59341
5.95274	9.41462
5.94591	10.1704
5.9391	11.1076
5.9323	11.9637
5.92552	12.5922
5.91876	13.3488
5.91201	14.1487
5.90528	15.0284
5.89856	16.0379
5.89186	16.9958
5.88517	17.9891
5.8785	18.9906
5.87184	19.7993
5.8652	20.9048
5.85857	21.907
5.85196	22.6793
5.84536	23.0317
5.83878	22.8609
5.83221	21.5104
5.82566	20.1313
5.81912	21.4385
5.81259	21.7772
5.80608	20.8926
5.79959	22.5472
5.79311	24.6009
5.78665	24.9941
5.78019	24.3132
5.77376	22.9997
5.76734	21.4243
5.76093	19.2221
5.75453	16.5014
5.74815	13.0367
5.74179	8.77373
5.73543	5.04412
5.7291	2.9462
5.72277	2.17736
5.71646	1.85552
5.71017	1.68527
5.70389	1.58204
5.69762	1.56035
5.69136	1.55164
5.68513	2.00091
5.6789	3.86259
5.67268	8.15739
5.66648	13.9586
5.6603	19.5323
5.65413	24.1244
5.64797	27.6916
5.64182	30.5494
5.63569	32.6991
5.62957	34.4384
5.62347	36.1544
5.61737	37.7194
5.61129	39.1691
5.60522	40.451
5.59917	41.5899
5.59313	42.6172
5.5871	43.6255
5.58109	44.6356
5.57509	45.4955
5.5691	46.0859
5.56312	46.7718
5.55716	47.4577
5.55121	48.025
5.54528	48.4655
5.53935	48.9886
5.53344	49.4924
5.52754	49.9731
5.52166	50.3236
5.51578	50.6469
5.50992	50.9532
5.50407	51.2926
5.49823	51.5714
5.49241	51.9661
5.4866	52.4391
5.4808	53.0204
5.47501	53.4537
5.46923	53.9234
5.46347	54.4425
5.45772	54.7617
5.45198	55.1414
5.44625	55.6378
5.44054	56.0023
5.43484	56.4064
5.42914	56.9217
5.42347	57.5839
5.4178	57.8684
5.41214	58.0692
5.4065	58.3793
5.40087	58.677
5.39525	58.8451
5.38964	58.9854
5.38404	59.1825
5.37846	59.3053
5.37288	59.3492
5.36732	59.4359
5.36177	59.5452
5.35623	59.7885
5.35071	60.1119
5.34519	60.4238
5.33968	60.8159
5.33419	61.2756
5.32871	61.7641
5.32324	62.2931
5.31778	62.6249
5.31233	62.8438
5.30689	62.9889
5.30147	63.0365
5.29605	63.1601
5.29065	63.2366
5.28525	63.0603
5.27987	62.8927
5.2745	62.6082
5.26914	62.3422
5.26379	62.1365
5.25845	61.9561
5.25312	61.8185
5.24781	61.8834
5.2425	62.1675
5.23721	62.57
5.23192	63.0555
5.22665	63.6445
5.22138	64.0498
5.21613	64.3715
5.21089	64.7163
5.20566	65.0914
5.20044	65.5396
5.19522	65.874
5.19002	66.0727
5.18483	66.2209
5.17965	66.2326
5.17448	66.1838
5.16933	66.0385
5.16418	65.7976
5.15904	65.5417
5.15391	65.3616
5.14879	65.1857
5.14368	64.986
5.13859	64.8229
5.1335	64.764
5.12842	64.9019
5.12335	65.2129
5.1183	65.5939
5.11325	66.1972
5.10821	66.954
5.10318	67.7248
5.09817	68.4433
5.09316	69.1657
5.08816	69.8194
5.08317	70.4277
5.07819	70.8142
5.07322	71.0065
5.06826	71.0988
5.06331	71.1347
5.05837	70.9521
5.05344	70.6868
5.04852	70.493
5.04361	70.4864
5.03871	70.6423
5.03382	70.9014
5.02894	71.1596
5.02406	71.5392
5.0192	71.9238
5.01435	72.23
5.0095	72.4315
5.00467	72.6429
4.99984	72.873
4.99502	72.9341
4.99021	72.8991
4.98542	72.8944
4.98063	72.8014
4.97585	72.5847
4.97108	72.3491
4.96632	72.2187
4.96156	72.1027
4.95682	72.0031
4.95209	71.9248
4.94736	71.9297
4.94264	71.9344
4.93794	71.8873
4.93324	71.9082
4.92855	71.9218
4.92387	71.8569
4.9192	71.8128
4.91453	71.7945
4.90988	71.7531
4.90524	71.7071
4.9006	71.6409
4.89597	71.4821
4.89135	71.2254
4.88674	70.8685
4.88214	70.5685
4.87755	70.2109
4.87296	69.6419
4.86839	68.7138
4.86382	67.4097
4.85926	66.0721
4.85471	64.7766
4.85017	63.4324
4.84564	62.3724
4.84111	61.2831
4.8366	59.7548
4.83209	57.6969
4.82759	55.0513
4.8231	51.6614
4.81862	47.7184
4.81415	43.4874
4.80968	39.3519
4.80522	35.5888
4.80077	32.2331
4.79633	29.144
4.7919	26.2038
4.78747	23.6902
4.78306	22.0194
4.77865	21.3927
4.77425	21.5948
4.76986	22.3724
4.76547	23.5305
4.7611	25.0041
4.75673	26.6977
4.75237	28.4733
4.74802	30.0998
4.74367	31.5193
4.73934	32.8101
4.73501	33.7626
4.73069	34.3973
4.72638	35.1178
4.72207	36.1821
4.71777	37.5366
4.71348	39.1086
4.7092	40.7358
4.70493	42.3627
4.70066	43.9808
4.69641	45.4278
4.69216	46.562
4.68791	47.5319
4.68368	48.4687
4.67945	49.3055
4.67523	49.8938
4.67102	50.3386
4.66682	50.8118
4.66262	51.3584
4.65843	52.0002
4.65425	52.6754
4.65007	53.3083
4.64591	53.9718
4.64175	54.6088
4.6376	55.1091
4.63345	55.5238
4.62932	55.7812
4.62519	55.9535
4.62106	56.0274
4.61695	55.9934
4.61284	55.9715
4.60874	55.9684
4.60465	55.9255
4.60056	55.8559
4.59648	55.8419
4.59241	55.8265
4.58835	55.76
4.58429	55.7037
4.58024	55.7772
4.5762	55.8928
4.57216	55.9407
4.56814	55.9967
4.56411	56.0907
4.5601	56.2331
4.55609	56.5704
4.55209	57.0301
4.5481	57.5458
4.54411	58.0256
4.54013	58.4406
4.53616	59.0098
4.5322	59.7768
4.52824	60.7042
4.52429	61.7421
4.52034	62.8594
4.51641	64.0834
4.51247	65.2441
4.50855	66.2522
4.50463	67.0137
4.50072	67.5278
4.49682	67.8125
4.49292	67.9824
4.48903	67.9918
4.48515	67.9826
4.48127	68.0035
4.4774	68.1422
4.47354	68.3837
4.46968	68.6067
4.46584	68.6348
4.46199	68.5482
4.45815	68.3329
4.45432	67.928
4.4505	67.3737
4.44668	66.708
4.44287	65.9697
4.43907	65.2231
4.43527	64.4179
4.43148	63.3944
4.4277	62.0495
4.42392	60.4954
4.42015	58.7083
4.41638	56.6614
4.41262	54.5474
4.40887	52.5676
4.40513	50.7847
4.40139	49.4201
4.39765	48.7829
4.39393	48.7642
4.39021	49.1857
4.38649	49.9476
4.38278	50.9955
4.37908	52.0716
4.37539	52.9218
4.3717	53.548
4.36801	53.9872
4.36434	54.3336
4.36067	54.688
4.357	55.109
4.35335	55.4202
4.34969	55.5879
4.34605	55.5857
4.34241	55.5437
4.33877	55.5432
4.33514	55.5958
4.33152	55.7336
4.32791	55.8485
4.3243	55.8755
4.32069	55.7262
4.3171	55.5378
4.31351	55.3711
4.30992	55.1543
4.30634	54.9649
4.30277	54.6245
4.2992	54.2247
4.29564	53.745
4.29208	53.1855
4.28853	52.3778
4.28499	51.4848
4.28145	50.5232
4.27792	49.4537
4.27439	48.4302
4.27087	47.6409
4.26735	47.2045
4.26384	46.9873
4.26034	46.9393
4.25684	47.0307
4.25335	47.0836
4.24986	47.0882
4.24638	47.0413
4.24291	46.951
4.23944	46.7338
4.23598	46.4475
4.23252	46.2393
4.22906	46.0956
4.22562	45.8976
4.22218	45.6277
4.21874	45.2669
4.21531	44.8858
4.21189	44.5417
4.20847	44.2172
4.20506	43.9362
4.20165	43.6419
4.19825	43.256
4.19485	42.8491
4.19146	42.4972
4.18807	42.2201
4.18469	41.8937
4.18132	41.5085
4.17795	41.0821
4.17458	40.6399
4.17123	40.238
4.16787	39.6462
4.16453	38.9132
4.16118	38.1943
4.15785	37.2336
4.15451	35.9813
4.15119	34.535
4.14787	32.8286
4.14455	30.6494
4.14124	27.9952
4.13794	24.9121
4.13464	21.5686
4.13134	19.0878
4.12805	17.7438
4.12477	16.1404
4.12149	14.3651
4.11822	13.7162
4.11495	13.3222
4.11168	11.9405
4.10843	9.93841
4.10517	7.81974
4.10192	6.11765
4.09868	4.99526
4.09545	4.26629
4.09221	3.68317
4.08899	3.23658
4.08576	2.94556
4.08255	2.7742
4.07933	2.72217
4.07613	2.63262
4.07292	2.64323
4.06973	2.82622
4.06654	2.83197
4.06335	2.86023
4.06017	2.96868
4.05699	3.02527
4.05382	3.07336
4.05065	3.17846
4.04749	3.27783
4.04433	3.34772
4.04118	3.36056
4.03803	3.41116
4.03489	3.59715
4.03175	3.87096
4.02862	4.2554
4.02549	4.83754
4.02237	5.29524
4.01925	5.64179
4.01614	6.07288
4.01303	6.58975
4.00993	7.11312
4.00683	7.59953
4.00373	7.91368
4.00064	7.98424
3.99756	7.95092
3.99448	8.10289
3.9914	8.40553
3.98833	8.72651
3.98527	9.0945
3.98221	9.36237
3.97915	9.63608
3.9761	9.87104
3.97305	10.104
3.97001	10.3221
3.96697	10.4139
3.96394	10.4599
3.96091	10.5309
3.95789	10.4591
3.95487	10.2664
3.95186	10.1549
3.94885	10.1418
3.94584	10.0169
3.94284	9.89483
3.93984	9.89516
3.93685	9.94252
3.93386	10.0185
3.93088	10.0334
3.9279	10.0583
3.92493	10.0747
3.92196	10.0192
3.919	10.0096
3.91604	10.1279
3.91308	10.3086
3.91013	10.5274
3.90718	10.801
3.90424	11.223
3.9013	11.815
3.89837	12.5544
3.89544	13.575
3.89252	14.9783
3.8896	16.8234
3.88668	19.079
3.88377	21.7967
3.88086	25.0143
3.87796	28.4898
3.87506	31.9029
3.87217	34.8504
3.86928	37.1992
3.86639	38.9696
3.86351	40.3716
3.86064	41.5087
3.85776	42.417
3.8549	43.1332
3.85203	43.6265
3.84917	43.9369
3.84631	44.1667
3.84346	44.304
3.84062	44.3851
3.83777	44.5488
3.83494	44.7277
3.8321	45.01
3.82927	45.3371
3.82644	45.7851
3.82362	46.3811
3.82081	46.9318
3.81799	47.422
3.81518	47.9721
3.81238	48.5514
3.80958	49.0424
3.80678	49.4288
3.80399	49.7513
3.8012	49.9458
3.79841	50.265
3.79563	50.6957
3.79286	51.0966
3.79008	51.3774
3.78731	51.6186
3.78455	51.8606
3.78179	52.1636
3.77903	52.3882
3.77628	52.658
3.77353	53.0508
3.77079	53.3235
3.76805	53.5163
3.76531	53.8001
3.76258	54.0838
3.75985	54.3604
3.75713	54.5044
3.7544	54.6382
3.75169	54.8185
3.74898	54.972
3.74627	55.1157
3.74356	55.1597
3.74086	55.1502
3.73816	55.1186
3.73547	55.0741
3.73278	55.0384
3.7301	54.9533
3.72741	54.8701
3.72474	54.8394
3.72206	54.8037
3.71939	54.8309
3.71673	54.8603
3.71406	54.8887
3.71141	54.924
3.70875	54.9598
3.7061	54.9391
3.70345	54.8985
3.70081	54.816
3.69817	54.688
3.69553	54.6141
3.6929	54.5357
3.69027	54.3273
3.68765	54.1532
3.68503	53.9898
3.68241	53.8115
3.6798	53.6253
3.67719	53.3286
3.67458	52.9571
3.67198	52.5741
3.66938	52.1029
3.66678	51.6387
3.66419	51.2586
3.66161	50.9709
3.65902	50.474
3.65644	49.622
3.65387	48.486
3.65129	46.8462
3.64872	44.3979
3.64616	41.6196
3.64359	40.0105
3.64103	40.6419
3.63848	42.6998
3.63593	44.5445
3.63338	45.5361
3.63084	46.013
3.6283	46.0985
3.62576	45.957
3.62322	45.5971
3.62069	44.891
3.61817	43.9965
3.61564	43.011
3.61312	41.9746
3.61061	40.7495
3.6081	39.3795
3.60559	37.8932
3.60308	36.2701
3.60058	34.5244
3.59808	32.5642
3.59558	30.328
3.59309	27.973
3.59061	25.6071
3.58812	23.1998
3.58564	20.7713
3.58316	18.5179
3.58069	16.5656
3.57822	14.6328
3.57575	12.7375
3.57328	11.1916
3.57082	9.86349
3.56836	8.86172
3.56591	8.26178
3.56346	7.86216
3.56101	7.33154
3.55857	6.59296
3.55613	5.80993
3.55369	5.1919
3.55126	4.71591
3.54883	4.4062
3.5464	4.18668
3.54397	3.98723
3.54155	3.95558
3.53914	3.99634
3.53672	4.10114
3.53431	4.36517
3.5319	4.66225
3.5295	4.91816
3.5271	5.18998
3.5247	5.50826
3.52231	5.86135
3.51991	6.20633
3.51753	6.32664
3.51514	6.48584
3.51276	6.76126
3.51038	6.97602
3.50801	7.20316
3.50563	7.44006
3.50327	7.67854
3.5009	7.91437
3.49854	8.1404
3.49618	8.19137
3.49382	8.06055
3.49147	7.80476
3.48912	7.49537
3.48677	7.2837
3.48443	7.10521
3.48209	6.92336
3.47975	6.77119
3.47742	6.60864
3.47509	6.42803
3.47276	6.26207
3.47044	6.29513
3.46812	6.35165
3.4658	6.33937
3.46348	6.41331
3.46117	6.60791
3.45886	6.80467
3.45656	7.01208
3.45425	7.28633
3.45195	7.52247
3.44966	7.80125
3.44736	8.20442
3.44507	8.76072
3.44279	9.29266
3.4405	9.94978
3.43822	10.7426
3.43594	11.7068
3.43367	12.9009
3.43139	14.1413
3.42912	15.5589
3.42686	17.1695
3.42459	18.8223
3.42233	20.4494
3.42007	22.1649
3.41782	23.9144
3.41557	25.5285
3.41332	26.8902
3.41108	28.1131
3.40883	29.427
3.40659	30.7692
3.40435	32.0281
3.40212	33.162
3.39989	34.1668
3.39766	35.1933
3.39544	36.2041
3.39322	37.0074
3.391	37.7334
3.38878	38.3964
3.38657	38.9422
3.38436	39.5754
3.38215	40.2581
3.37994	40.8253
3.37774	41.3561
3.37554	41.9031
3.37335	42.4388
3.37115	43.0164
3.36896	43.521
3.36678	43.9805
3.36459	44.5447
3.36241	45.0695
3.36023	45.4959
3.35805	45.8268
3.35588	46.1277
3.35371	46.455
3.35154	46.8142
3.34938	47.1884
3.34721	47.405
3.34505	47.4215
3.3429	47.5757
3.34074	47.7905
3.33859	47.9264
3.33644	48.0217
3.3343	48.131
3.33215	48.3414
3.33001	48.5422
3.32788	48.6444
3.32574	48.7783
3.32361	48.9668
3.32148	49.1489
3.31936	49.3234
3.31723	49.5165
3.31511	49.7094
3.31299	49.9041
3.31088	50.0777
3.30876	50.2028
3.30665	50.4462
3.30455	50.6945
3.30244	50.8878
3.30034	51.1757
3.29824	51.5673
3.29614	51.893
3.29405	52.1023
3.29196	52.2976
3.28987	52.623
3.28778	52.903
3.2857	53.1804
3.28362	53.4412
3.28154	53.7659
3.27946	54.1346
3.27739	54.4828
3.27532	54.8019
3.27325	55.1039
3.27119	55.345
3.26913	55.5003
3.26707	55.7026
3.26501	55.9318
3.26295	56.1873
3.2609	56.3493
3.25885	56.4749
3.2568	56.6305
3.25476	56.8038
3.25272	56.9883
3.25068	57.1647
3.24864	57.3474
3.24661	57.4934
3.24458	57.6482
3.24255	57.726
3.24052	57.7936
3.2385	57.9619
3.23648	58.133
3.23446	58.1844
3.23244	58.1468
3.23043	58.2314
3.22841	58.2701
3.2264	58.2208
3.2244	58.2357
3.22239	58.2968
3.22039	58.1567
3.21839	57.8817
3.2164	57.6944
3.2144	57.5617
3.21241	57.1395
3.21042	56.4715
3.20844	55.6893
3.20645	54.6709
3.20447	53.6284
3.20249	52.5674
3.20051	51.3919
3.19854	50.115
3.19657	48.6296
3.1946	47.1691
3.19263	45.9793
3.19067	44.8357
3.1887	43.7843
3.18674	42.8258
3.18479	41.8377
3.18283	41.1227
3.18088	41.2094
3.17893	42.1137
3.17698	43.3993
3.17504	44.7537
3.17309	46.0982
3.17115	47.4794
3.16921	48.6218
3.16728	49.5522
3.16534	50.2734
3.16341	50.7709
3.16148	51.2614
3.15956	51.7126
3.15763	52.1038
3.15571	52.5395
3.15379	53.007
3.15187	53.4361
3.14996	53.7722
3.14805	54.1094
3.14614	54.5237
3.14423	54.9397
3.14232	55.2509
3.14042	55.4475
3.13852	55.6298
3.13662	55.8272
3.13472	56.0468
3.13283	56.1517
3.13094	56.1798
3.12905	56.2259
3.12716	56.3583
3.12528	56.4419
3.12339	56.4505
3.12151	56.509
3.11964	56.5996
3.11776	56.6216
3.11589	56.5386
3.11401	56.4732
3.11214	56.4111
3.11028	56.3757
3.10841	56.3903
3.10655	56.3836
3.10469	56.3775
3.10283	56.325
3.10098	56.358
3.09912	56.4863
3.09727	56.4955
3.09542	56.4419
3.09358	56.4305
3.09173	56.3658
3.08989	56.2546
3.08805	56.2385
3.08621	56.2454
3.08437	56.2267
3.08254	56.2224
3.08071	56.138
3.07888	56.1996
3.07705	56.3191
3.07523	56.4135
3.0734	56.495
3.07158	56.5121
3.06977	56.5324
3.06795	56.5171
3.06613	56.593
3.06432	56.6916
3.06251	56.7817
3.0607	56.8137
3.0589	56.9476
3.0571	57.1057
3.05529	57.1591
3.05349	57.253
3.0517	57.2483
3.0499	57.2447
3.04811	57.2878
3.04632	57.1527
3.04453	57.1059
3.04274	57.1582
3.04096	57.3251
3.03918	57.4093
3.0374	57.3026
3.03562	57.174
3.03384	57.1522
3.03207	57.1075
3.03029	57.0503
3.02852	57.0069
3.02676	56.9107
3.02499	56.9562
3.02323	56.9569
3.02146	56.8247
3.0197	56.7784
3.01795	56.7857
3.01619	56.8154
3.01444	56.6804
3.01269	56.6093
3.01094	56.6519
3.00919	56.611
3.00744	56.528
3.0057	56.4797
3.00396	56.4336
3.00222	56.3795
3.00048	56.2922
2.99875	56.2563
2.99701	56.2665
2.99528	56.2256
2.99355	56.1687
2.99183	56.1599
2.9901	56.1281
2.98838	56.0836
2.98666	56.0765
2.98494	55.9478
2.98322	55.8989
2.9815	56.066
2.97979	56.1946
2.97808	56.0996
2.97637	55.9378
2.97466	55.8789
2.97295	55.7827
2.97125	55.7101
2.96955	55.701
2.96785	55.7073
2.96615	55.6844
2.96446	55.7094
2.96276	55.6257
2.96107	55.5856
2.95938	55.645
2.95769	55.7534
2.95601	55.7494
2.95432	55.6884
2.95264	55.6728
2.95096	55.6292
2.94928	55.667
2.9476	55.5911
2.94593	55.5613
2.94425	55.587
2.94258	55.547
2.94092	55.594
2.93925	55.6388
2.93758	55.6046
2.93592	55.6909
2.93426	55.7219
2.9326	55.7298
2.93094	55.8229
2.92928	55.7827
2.92763	55.7355
2.92598	55.7609
2.92433	55.9532
2.92268	56.014
2.92103	55.9587
2.91939	55.9565
2.91775	55.914
2.9161	55.9222
2.91447	56.0038
2.91283	56.1575
2.91119	56.1907
2.90956	56.0935
2.90793	56.1152
2.9063	56.2153
2.90467	56.2907
2.90304	56.2982
2.90142	56.2768
2.89979	56.2219
2.89817	56.0902
2.89656	55.9328
2.89494	55.7992
2.89332	55.7124
2.89171	55.5708
2.8901	55.4049
2.88849	55.1405
2.88688	54.7501
2.88527	54.3377
2.88367	53.9202
2.88206	53.4563
2.88046	52.9703
2.87886	52.4949
2.87727	51.9681
2.87567	51.3108
2.87408	50.6396
2.87248	49.8038
2.87089	48.691
2.8693	47.2926
2.86772	45.678
2.86613	44.0233
2.86455	42.37
2.86297	40.9476
2.86139	39.9634
2.85981	39.3178
2.85823	38.9189
2.85666	38.4569
2.85508	38.6647
2.85351	40.2304
2.85194	42.9334
2.85038	45.7738
2.84881	47.9483
2.84724	49.3652
2.84568	50.3264
2.84412	51.0639
2.84256	51.7433
2.841	52.3259
2.83945	52.8714
2.83789	53.4925
2.83634	54.0237
2.83479	54.3849
2.83324	54.9277
2.83169	55.6582
2.83015	56.2662
2.82861	57.0025
2.82706	57.6278
2.82552	58.0747
2.82398	58.4556
2.82245	58.9228
2.82091	59.5135
2.81938	59.9519
2.81784	60.3329
2.81631	60.5693
2.81479	60.6909
2.81326	60.8127
2.81173	60.9827
2.81021	61.3661
2.80869	61.7204
2.80716	61.9392
2.80565	62.1918
2.80413	62.5128
2.80261	62.7072
2.8011	62.7422
2.79959	62.9609
2.79808	63.2106
2.79657	63.3761
2.79506	63.5104
2.79355	63.6821
2.79205	63.8143
2.79055	63.9704
2.78904	64.2994
2.78754	64.6966
2.78605	64.8734
2.78455	65.0165
2.78306	65.2377
2.78156	65.4271
2.78007	65.6544
2.77858	65.9937
2.77709	66.2406
2.77561	66.4905
2.77412	66.9958
2.77264	67.4388
2.77116	67.8337
2.76968	68.1828
2.7682	68.5807
2.76672	68.8409
2.76524	69.1848
2.76377	69.8839
2.7623	70.3739
2.76083	70.6529
2.75936	71.2534
2.75789	71.9763
2.75642	72.835
2.75496	73.5538
2.7535	73.6591
2.75203	73.8408
2.75057	74.2143
2.74912	74.7004
2.74766	75.031
2.7462	75.356
2.74475	75.6462
2.7433	76.0155
2.74185	76.5467
2.7404	77.1733
2.73895	77.5278
2.7375	77.7552
2.73606	78.0984
2.73462	78.4317
2.73318	78.6409
2.73174	78.9187
2.7303	79.1863
2.72886	79.5785
2.72742	80.0599
2.72599	80.6863
2.72456	81.234
2.72313	81.389
2.7217	81.7535
2.72027	82.3197
2.71884	82.3299
2.71742	82.5183
2.71599	82.76
2.71457	82.9872
2.71315	83.3128
2.71173	83.9545
2.71032	84.3002
2.7089	84.2818
2.70748	84.2663
2.70607	84.2911
2.70466	84.5753
2.70325	84.9707
2.70184	85.2518
2.70043	85.4554
2.69903	85.5646
2.69762	85.6602
2.69622	85.9886
2.69482	86.4089
2.69342	86.5479
2.69202	86.3664
2.69062	86.3633
2.68923	86.4763
2.68783	86.5481
2.68644	86.6957
2.68505	86.7218
2.68366	86.703
2.68227	86.4903
2.68089	86.4733
2.6795	86.8601
2.67812	86.9314
2.67673	86.9719
2.67535	86.809
2.67397	86.5931
2.6726	86.6292
2.67122	87.1101
2.66984	87.107
2.66847	86.8007
2.6671	87.1076
2.66572	87.1249
2.66435	86.8205
2.66299	86.3969
2.66162	86.3993
2.66025	86.4109
2.65889	86.2911
2.65753	86.1025
2.65616	86.0942
2.65481	85.9444
2.65345	85.9034
2.65209	85.8858
2.65073	85.5727
2.64938	85.2494
2.64803	85.0126
2.64667	84.7707
2.64532	84.3209
2.64397	83.4789
2.64263	82.5159
2.64128	81.6703
2.63994	81.7241
2.63859	82.3962
2.63725	83.1261
2.63591	83.5888
2.63457	83.8092
2.63323	83.8073
2.6319	83.8946
2.63056	83.8701
2.62923	83.2278
2.62789	82.6401
2.62656	82.0955
2.62523	81.049
2.6239	79.9248
2.62258	78.8863
2.62125	78.0301
2.61993	76.5343
2.6186	74.7442
2.61728	73.2158
2.61596	71.2513
2.61464	69.2688
2.61332	67.4856
2.61201	65.5237
2.61069	63.7051
2.60938	61.6807
2.60807	59.5808
2.60675	57.5995
2.60544	55.3948
2.60414	52.8334
2.60283	50.441
2.60152	48.34
2.60022	46.9058
2.59891	46.432
2.59761	46.5578
2.59631	47.2368
2.59501	48.2456
2.59371	48.5537
2.59242	48.7035
2.59112	49.1795
2.58983	49.7842
2.58853	50.4328
2.58724	50.9206
2.58595	51.2132
2.58466	51.8911
2.58338	52.6233
2.58209	53.3328
2.5808	54.3686
2.57952	55.1827
2.57824	56.1224
2.57695	57.1942
2.57567	57.9339
2.5744	58.8033
2.57312	59.6626
2.57184	60.2068
2.57057	60.9766
2.56929	61.6268
2.56802	62.0276
2.56675	62.5384
2.56548	63.1373
2.56421	63.6355
2.56294	64.158
2.56168	64.5368
2.56041	64.7631
2.55915	64.9824
2.55789	65.244
2.55662	65.5201
2.55536	65.7426
2.5541	65.9507
2.55285	66.2145
2.55159	66.3379
2.55034	66.3094
2.54908	66.2318
2.54783	66.3408
2.54658	66.5016
2.54533	66.5379
2.54408	66.4573
2.54283	66.463
2.54159	66.4871
2.54034	66.5597
2.5391	66.679
2.53785	66.8133
2.53661	66.966
2.53537	67.053
2.53413	67.0563
2.53289	67.3098
2.53166	67.6342
2.53042	67.9698
2.52919	68.3629
2.52795	68.7697
2.52672	69.2551
2.52549	69.8342
2.52426	70.4456
2.52303	71.0862
2.52181	71.6974
2.52058	72.4461
2.51936	73.1355
2.51813	73.7131
2.51691	74.4477
2.51569	75.1634
2.51447	75.7687
2.51325	76.3768
2.51203	76.8952
2.51082	77.3109
2.5096	77.957
2.50839	78.5967
2.50717	78.9971
2.50596	79.4254
2.50475	79.887
2.50354	80.4043
2.50233	80.7631
2.50113	81.0821
2.49992	81.4184
2.49872	81.8099
2.49751	82.0895
2.49631	82.3677
2.49511	82.722
2.49391	83.0231
2.49271	83.1757
2.49151	83.3847
2.49031	83.6048
2.48912	83.5514
2.48792	83.5664
2.48673	83.8372
2.48554	84.0636
2.48435	84.1459
2.48316	84.226
2.48197	84.4364
2.48078	84.5868
2.4796	84.6013
2.47841	84.6534
2.47723	84.6823
2.47604	84.7227
2.47486	84.929
2.47368	85.0057
2.4725	84.9119
2.47132	84.9913
2.47014	85.1204
2.46897	85.2063
2.46779	85.3192
2.46662	85.4118
2.46545	85.5408
2.46427	85.581
2.4631	85.614
2.46193	85.6968
2.46077	85.6892
2.4596	85.6163
2.45843	85.5779
2.45727	85.5533
2.4561	85.587
2.45494	85.5759
2.45378	85.5735
2.45262	85.6037
2.45146	85.6826
2.4503	85.7946
2.44914	85.6866
2.44799	85.56
2.44683	85.5039
2.44568	85.5721
2.44452	85.7692
2.44337	85.9725
2.44222	86.0785
2.44107	86.0347
2.43992	85.9748
2.43877	86.0066
2.43763	85.9127
2.43648	85.7428
2.43534	85.6729
2.43419	85.4788
2.43305	85.3125
2.43191	85.1148
2.43077	84.9761
2.42963	84.8533
2.42849	84.6478
2.42736	84.4836
2.42622	84.3101
2.42509	84.0354
2.42395	83.7567
2.42282	83.5316
2.42169	83.2467
2.42056	82.7974
2.41943	82.37
2.4183	81.9679
2.41717	81.518
2.41605	81.0842
2.41492	80.6429
2.4138	80.0492
2.41267	79.445
2.41155	78.8016
2.41043	78.0155
2.40931	77.1669
2.40819	76.2205
2.40707	75.157
2.40595	73.9801
2.40484	72.6962
2.40372	71.3828
2.40261	70.0922
2.4015	68.8048
2.40039	67.5671
2.39928	66.5357
2.39817	65.601
2.39706	64.7172
2.39595	63.896
2.39484	62.9779
2.39374	62.0472
2.39263	61.0005
2.39153	60.0571
2.39043	59.4438
2.38932	59.0508
2.38822	58.8622
2.38712	58.9206
2.38603	59.5008
2.38493	60.4333
2.38383	61.5402
2.38274	62.759
2.38164	63.978
2.38055	65.1628
2.37946	66.1842
2.37836	67.0991
2.37727	67.9724
2.37618	68.753
2.3751	69.5506
2.37401	70.2522
2.37292	70.7861
2.37184	71.2704
2.37075	71.7447
2.36967	72.202
2.36859	72.5787
2.3675	72.9456
2.36642	73.3435
2.36534	73.656
2.36427	73.8313
2.36319	73.8784
2.36211	74.1735
2.36104	74.5557
2.35996	74.7252
2.35889	74.8822
2.35781	75.1163
2.35674	75.2077
2.35567	75.2232
2.3546	75.4677
2.35353	75.6112
2.35247	75.5506
2.3514	75.643
2.35033	75.792
2.34927	75.9219
2.3482	75.942
2.34714	76.0194
2.34608	76.109
2.34502	76.1206
2.34396	76.1609
2.3429	76.1834
2.34184	76.2611
2.34078	76.438
2.33973	76.5265
2.33867	76.6124
2.33762	76.7429
2.33656	76.7773
2.33551	76.8465
2.33446	77.103
2.33341	77.4108
2.33236	77.5665
2.33131	77.7023
2.33026	77.9395
2.32922	78.2014
2.32817	78.5179
2.32712	78.7737
2.32608	79.0893
2.32504	79.345
2.324	79.5247
2.32295	79.8466
2.32191	80.2238
2.32087	80.5123
2.31984	80.7174
2.3188	80.8235
2.31776	81.1612
2.31673	81.5556
2.31569	81.7539
2.31466	81.8554
2.31362	82.063
2.31259	82.3594
2.31156	82.6114
2.31053	82.8642
2.3095	83.0589
2.30847	83.267
2.30745	83.4305
2.30642	83.5063
2.3054	83.7499
2.30437	84.1124
2.30335	84.2484
2.30232	84.4311
2.3013	84.822
2.30028	84.9816
2.29926	85.1312
2.29824	85.289
2.29722	85.3845
2.29621	85.5409
2.29519	85.7953
2.29417	86.0328
2.29316	86.189
2.29215	86.273
2.29113	86.3383
2.29012	86.5483
2.28911	86.7227
2.2881	86.8151
2.28709	87.0251
2.28608	87.2702
2.28507	87.4109
2.28407	87.4985
2.28306	87.6839
2.28206	87.7986
2.28105	87.8472
2.28005	88.018
2.27905	88.2359
2.27805	88.3919
2.27705	88.3766
2.27605	88.4502
2.27505	88.6547
2.27405	88.7803
2.27305	88.8931
2.27206	88.9385
2.27106	89.1299
2.27007	89.3889
2.26907	89.4764
2.26808	89.512
2.26709	89.5699
2.2661	89.7017
2.26511	89.9197
2.26412	90.0883
2.26313	90.2107
2.26214	90.3248
2.26116	90.4401
2.26017	90.5201
2.25919	90.6448
2.2582	90.7937
2.25722	90.8919
2.25624	91.0593
2.25526	91.1714
2.25428	91.1833
2.2533	91.2589
2.25232	91.2335
2.25134	91.3042
2.25036	91.5232
2.24939	91.5879
2.24841	91.5162
2.24744	91.5948
2.24646	91.7758
2.24549	91.8709
2.24452	91.925
2.24355	92.0532
2.24257	92.2047
2.24161	92.1832
2.24064	92.2163
2.23967	92.317
2.2387	92.3471
2.23774	92.2849
2.23677	92.2818
2.23581	92.3225
2.23484	92.4651
2.23388	92.5613
2.23292	92.5322
2.23196	92.5398
2.231	92.5289
2.23004	92.5322
2.22908	92.5814
2.22812	92.5621
2.22716	92.4376
2.22621	92.2551
2.22525	92.2115
2.2243	92.2228
2.22334	92.0926
2.22239	91.8688
2.22144	91.529
2.22049	91.1409
2.21953	90.6703
2.21859	90.2254
2.21764	89.8424
2.21669	89.4628
2.21574	89.0565
2.21479	88.679
2.21385	88.46
2.2129	88.4824
2.21196	88.3861
2.21102	88.254
2.21007	88.0924
2.20913	87.8047
2.20819	87.4132
2.20725	87.153
2.20631	87.1536
2.20537	87.2377
2.20444	87.5871
2.2035	88.1526
2.20256	88.6432
2.20163	89.1409
2.20069	89.6631
2.19976	90.1374
2.19883	90.4861
2.19789	90.8542
2.19696	91.3279
2.19603	91.6849
2.1951	91.7486
2.19417	91.8345
2.19325	92.0608
2.19232	92.1798
2.19139	92.1951
2.19047	92.2228
2.18954	92.3883
2.18862	92.5756
2.18769	92.7263
2.18677	92.9401
2.18585	92.9039
2.18493	92.7748
2.18401	92.9064
2.18309	93.0368
2.18217	93.0114
2.18125	93.0482
2.18033	93.1357
2.17942	93.2434
2.1785	93.335
2.17759	93.3027
2.17667	93.4331
2.17576	93.524
2.17485	93.4413
2.17393	93.4184
2.17302	93.4645
2.17211	93.4895
2.1712	93.3997
2.17029	93.487
2.16939	93.7752
2.16848	93.7447
2.16757	93.6008
2.16667	93.6201
2.16576	93.6067
2.16486	93.5073
2.16395	93.4735
2.16305	93.4697
2.16215	93.5188
2.16125	93.704
2.16035	93.7688
2.15945	93.7161
2.15855	93.746
2.15765	93.6834
2.15675	93.6424
2.15586	93.7029
2.15496	93.7632
2.15406	93.7852
2.15317	93.9018
2.15228	93.9996
2.15138	93.9854
2.15049	94.067
2.1496	94.083
2.14871	94.0519
2.14782	94.0762
2.14693	94.1306
2.14604	94.253
2.14515	94.3127
2.14427	94.3676
2.14338	94.5162
2.14249	94.6007
2.14161	94.5455
2.14072	94.6757
2.13984	94.8135
2.13896	94.6358
2.13808	94.5413
2.13719	94.5266
2.13631	94.6538
2.13543	94.8865
2.13455	94.9447
2.13368	94.8103
2.1328	94.7615
2.13192	94.7719
2.13105	94.8249
2.13017	94.8331
2.1293	94.8121
2.12842	94.812
2.12755	94.8179
2.12668	94.9563
2.1258	94.9008
2.12493	94.8422
2.12406	95.0334
2.12319	95.1105
2.12232	95.0582
2.12145	95.091
2.12059	95.009
2.11972	94.9081
2.11885	94.8204
2.11799	94.8563
2.11712	95.0616
2.11626	95.0536
2.1154	95.0351
2.11453	95.0302
2.11367	94.9206
2.11281	94.9829
2.11195	95.1679
2.11109	95.1619
2.11023	95.0699
2.10937	94.9556
2.10851	94.9028
2.10766	95.0556
2.1068	94.9672
2.10594	95.045
2.10509	95.1785
2.10423	95.0164
2.10338	94.9506
2.10253	95.0163
2.10168	95.1145
2.10082	95.0282
2.09997	94.9462
2.09912	94.9808
2.09827	94.907
2.09742	94.8102
2.09658	94.9052
2.09573	94.9177
2.09488	94.8574
2.09404	94.8067
2.09319	94.7556
2.09235	94.8336
2.0915	94.9899
2.09066	95.0593
2.08982	94.901
2.08897	94.8936
2.08813	94.9425
2.08729	94.7112
2.08645	94.4291
2.08561	94.3723
2.08477	94.4655
2.08394	94.7045
2.0831	94.8882
2.08226	94.9684
2.08143	94.898
2.08059	95.0413
2.07976	94.9073
2.07892	94.6948
2.07809	94.8439
2.07726	94.7863
2.07643	94.6829
2.07559	94.5945
2.07476	94.5249
2.07393	93.9847
2.0731	93.8082
2.07228	94.2022
2.07145	94.5977
2.07062	94.5604
2.06979	94.4771
2.06897	94.2901
2.06814	94.1443
2.06732	94.442
2.06649	94.6426
2.06567	94.2433
2.06485	93.8933
2.06403	93.7496
2.0632	93.6528
2.06238	93.5737
2.06156	93.3645
2.06074	93.2096
2.05993	93.1946
2.05911	93.3132
2.05829	93.0135
2.05747	92.555
2.05666	92.3186
2.05584	92.1778
2.05503	91.8974
2.05421	91.3698
2.0534	90.9873
2.05259	90.4994
2.05177	90.2642
2.05096	90.1364
2.05015	89.6389
2.04934	88.9125
2.04853	88.3918
2.04772	87.8408
2.04691	87.4775
2.04611	87.546
2.0453	87.5603
2.04449	87.9109
2.04369	88.6822
2.04288	89.3566
2.04208	89.7276
2.04127	89.9568
2.04047	89.982
2.03967	90.0982
2.03886	90.3929
2.03806	90.4721
2.03726	90.7036
2.03646	90.9703
2.03566	91.0817
2.03486	91.1773
2.03407	91.1589
2.03327	91.15
2.03247	91.3652
2.03167	91.6914
2.03088	91.9749
2.03008	92.0998
2.02929	92.3662
2.0285	92.4938
2.0277	92.4286
2.02691	92.4359
2.02612	92.3895
2.02533	92.4751
2.02453	92.2979
2.02374	92.2637
2.02295	92.608
2.02217	92.8382
2.02138	92.8455
2.02059	92.7386
2.0198	92.7941
2.01902	93.0105
2.01823	92.9588
2.01744	92.9068
2.01666	92.9334
2.01588	92.902
2.01509	92.9951
2.01431	93.0091
2.01353	92.8056
2.01275	92.8602
2.01196	92.8762
2.01118	92.8698
2.0104	92.8802
2.00963	92.8503
2.00885	92.8555
2.00807	92.9825
2.00729	92.9119
2.00651	92.8833
2.00574	93.0356
2.00496	93.1313
2.00419	93.0707
2.00341	92.9462
2.00264	93.036
2.00187	92.9646
2.00109	93.0423
2.00032	93.06
