Name: Calcite CaCO_3
Type: Mineral
Class: Carbonates
Subclass: 
Particle Size: 45-125um
Sample No.: C-3D
Owner: JPL
Wavelength range: IR
Origin: United Kingdom, England
Collected by Ward's
Description: 





Measurement: Hemispherical reflectance
First Column: X
Second Column: Y
X Units:  Wavelength (micrometers)
Y Units:  Reflectance (percent)
First X Value: 15.3853
Last X Value: 2.00032
Number of X Values: 2256
Additional information: c03da.txt
 
15.3853	17.6451
15.3397	17.9086
15.2945	18.333
15.2495	18.7559
15.2048	18.8416
15.1603	19.1771
15.1161	19.4862
15.0722	19.6847
15.0285	19.7658
14.9851	19.8326
14.9419	20.1086
14.8989	20.3352
14.8563	20.5255
14.8138	20.7442
14.7716	20.7754
14.7296	20.8324
14.6879	20.8462
14.6464	20.7817
14.6052	20.7295
14.5641	20.4427
14.5233	20.1308
14.4828	19.5607
14.4424	18.4201
14.4023	17.5232
14.3624	16.9667
14.3227	15.7938
14.2833	14.0555
14.244	12.0676
14.205	9.77017
14.1662	7.13883
14.1276	4.67641
14.0892	3.17999
14.051	2.28568
14.0131	1.34834
13.9753	0.933238
13.9377	2.04889
13.9004	4.42708
13.8632	7.41914
13.8262	10.4335
13.7895	13.4275
13.7529	15.9239
13.7165	17.8499
13.6803	19.4726
13.6443	20.7772
13.6085	21.7391
13.5729	22.5569
13.5374	23.2867
13.5022	23.8854
13.4671	24.2478
13.4322	24.4842
13.3975	24.7637
13.363	24.9214
13.3286	24.8876
13.2944	24.8332
13.2604	24.7308
13.2266	24.5732
13.193	24.2563
13.1595	23.9538
13.1262	23.66
13.093	23.1414
13.06	22.655
13.0272	22.1851
12.9946	21.6056
12.9621	21.1778
12.9298	20.8584
12.8976	20.63
12.8656	20.4805
12.8337	20.4913
12.8021	20.5917
12.7705	20.5743
12.7391	20.6847
12.7079	20.9796
12.6769	21.2785
12.6459	21.6423
12.6152	21.8263
12.5845	21.9234
12.5541	22.0778
12.5238	22.0234
12.4936	22.0707
12.4635	22.4481
12.4337	22.8715
12.4039	23.1494
12.3743	23.427
12.3448	23.6297
12.3155	23.7483
12.2863	23.9624
12.2573	24.2686
12.2284	24.512
12.1996	24.6581
12.171	24.7769
12.1425	24.7008
12.1141	24.6396
12.0859	24.6027
12.0578	24.4201
12.0298	24.0923
12.0019	23.8648
11.9742	23.4573
11.9466	22.9758
11.9192	22.3768
11.8918	21.5267
11.8646	19.8696
11.8375	16.3918
11.8106	10.4658
11.7837	7.95522
11.757	12.2485
11.7304	15.8395
11.7039	16.2994
11.6776	15.3017
11.6513	13.8502
11.6252	12.3862
11.5992	10.7611
11.5733	9.15126
11.5475	7.54598
11.5219	5.99372
11.4963	4.44721
11.4709	3.63666
11.4455	3.76016
11.4203	4.26409
11.3952	4.77266
11.3702	4.98451
11.3454	5.23366
11.3206	6.05922
11.2959	8.38
11.2714	12.7099
11.2469	16.6646
11.2226	18.7116
11.1983	19.9683
11.1742	21.1732
11.1502	22.2512
11.1263	22.9501
11.1024	23.3758
11.0787	23.6576
11.0551	23.7827
11.0316	23.8267
11.0081	23.8984
10.9848	23.8535
10.9616	23.665
10.9385	23.5192
10.9154	23.5481
10.8925	23.4225
10.8697	23.1578
10.8469	23.0677
10.8243	22.8515
10.8017	22.3703
10.7793	21.9926
10.7569	21.5504
10.7346	21.0961
10.7125	20.7052
10.6904	20.4803
10.6684	20.3824
10.6465	20.3702
10.6247	20.5332
10.6029	20.6644
10.5813	20.541
10.5597	20.3977
10.5383	20.4076
10.5169	20.3808
10.4956	20.5342
10.4744	20.6512
10.4533	20.7693
10.4323	20.9925
10.4113	20.8966
10.3904	20.7307
10.3697	20.5815
10.349	20.3231
10.3284	19.9088
10.3078	19.5199
10.2874	19.0999
10.267	18.3851
10.2467	17.6205
10.2265	16.9577
10.2064	16.4537
10.1863	16.0773
10.1663	15.7733
10.1464	15.4452
10.1266	15.0471
10.1069	14.4964
10.0872	13.9222
10.0676	13.5347
10.0481	13.2644
10.0287	13
10.0093	12.5335
9.99005	12.1545
9.97084	11.9257
9.95169	11.7636
9.93263	11.4931
9.91364	11.1179
9.89472	10.7414
9.87587	10.6404
9.8571	10.534
9.83839	10.5539
9.81976	10.7171
9.80119	10.6369
9.78271	10.542
9.76428	10.5009
9.74592	10.5266
9.72764	10.6426
9.70943	10.7062
9.69128	10.794
9.6732	11.0557
9.65518	11.3108
9.63724	11.2669
9.61935	11.1922
9.60155	11.2994
9.5838	11.3837
9.56611	11.4804
9.5485	11.6776
9.53094	11.8846
9.51345	12.0277
9.49604	12.0594
9.47867	12.1223
9.46137	12.2576
9.44414	12.3762
9.42697	12.4296
9.40986	12.4105
9.39281	12.3755
9.37583	12.2403
9.35891	12.2165
9.34204	12.3177
9.32524	12.4036
9.3085	12.4892
9.29182	12.6038
9.27519	12.5902
9.25863	12.2698
9.24213	11.9093
9.22568	11.6996
9.2093	11.7793
9.19297	12.2976
9.17669	12.9654
9.16048	13.4642
9.14433	13.7038
9.12823	13.9265
9.11218	14.2959
9.0962	14.6798
9.08027	14.9725
9.06439	15.1923
9.04858	15.5227
9.03281	15.7646
9.0171	15.9785
9.00145	16.1688
8.98585	16.2985
8.9703	16.452
8.9548	16.6098
8.93937	16.7144
8.92398	16.7533
8.90865	16.8297
8.89337	16.9262
8.87814	17.0186
8.86296	17.02
8.84784	16.9868
8.83277	17.1035
8.81774	17.3105
8.80277	17.34
8.78786	17.1758
8.77298	16.7862
8.75816	16.4196
8.7434	16.2543
8.72868	16.0781
8.714	15.7619
8.69938	15.3847
8.68481	14.9822
8.67029	14.5756
8.65581	14.1907
8.64139	13.6329
8.62701	12.8529
8.61268	12.1447
8.5984	11.8449
8.58416	11.707
8.56997	11.7391
8.55583	11.8838
8.54174	12.1078
8.52769	12.1615
8.51368	12.0367
8.49973	11.8874
8.48582	11.7368
8.47195	11.8419
8.45813	12.2357
8.44436	12.6537
8.43062	12.9761
8.41693	13.2163
8.4033	13.4344
8.3897	13.887
8.37614	14.4353
8.36264	14.9045
8.34917	15.316
8.33574	15.5936
8.32236	15.8937
8.30903	16.1221
8.29573	16.4076
8.28248	16.6057
8.26927	16.7328
8.2561	16.873
8.24298	17.0967
8.2299	17.2992
8.21685	17.3783
8.20385	17.385
8.19089	17.3501
8.17797	17.2141
8.16509	17.0098
8.15225	16.88
8.13946	16.8004
8.1267	16.7439
8.11398	16.5892
8.10131	16.409
8.08867	16.1139
8.07606	15.7746
8.0635	15.5837
8.05099	15.5864
8.0385	15.7775
8.02606	16.0765
8.01366	16.2292
8.00129	16.2593
7.98896	16.2816
7.97667	16.1911
7.96442	16.0273
7.9522	15.7832
7.94002	15.4557
7.92788	15.1645
7.91578	14.9244
7.90371	14.6655
7.89168	14.5756
7.87969	14.5944
7.86773	14.6838
7.85581	14.6533
7.84392	14.5316
7.83207	14.2967
7.82026	13.9839
7.80849	13.7209
7.79674	13.6001
7.78503	13.5696
7.77337	13.5642
7.76173	13.5104
7.75012	13.469
7.73856	13.4277
7.72703	13.2365
7.71553	12.9143
7.70406	12.6512
7.69263	12.2443
7.68123	11.8482
7.66987	11.4924
7.65855	11.0852
7.64725	10.675
7.63598	10.288
7.62475	10.0674
7.61356	9.9636
7.60239	9.75802
7.59126	9.57341
7.58017	9.55434
7.5691	9.4992
7.55806	9.42302
7.54707	9.36531
7.5361	9.3656
7.52516	9.32696
7.51425	9.27009
7.50338	9.19146
7.49253	9.11592
7.48172	9.03265
7.47094	8.92411
7.46019	8.78986
7.44947	8.57153
7.43879	8.34877
7.42813	8.27117
7.4175	8.18381
7.4069	8.02906
7.39634	7.93714
7.3858	7.81392
7.37529	7.66934
7.36482	7.537
7.35437	7.34861
7.34396	7.15793
7.33357	6.94943
7.32321	6.70272
7.31288	6.47728
7.30258	6.31707
7.29231	6.12408
7.28207	5.9823
7.27185	5.90221
7.26167	5.86419
7.25152	5.93607
7.24139	5.92802
7.23129	5.92684
7.22122	5.89102
7.21117	5.8646
7.20116	5.84754
7.19117	5.92409
7.18121	5.97147
7.17128	6.04879
7.16137	6.22596
7.1515	6.34394
7.14164	6.30788
7.13182	6.46751
7.12203	6.81368
7.11225	7.11788
7.10251	7.43943
7.0928	7.63896
7.08311	7.57658
7.07344	7.51515
7.06381	7.47537
7.0542	7.43863
7.04461	7.41987
7.03506	7.36063
7.02552	7.31131
7.01601	7.27146
7.00653	7.22913
6.99708	7.20108
6.98765	7.28614
6.97824	7.39096
6.96886	7.50991
6.95951	7.60152
6.95018	7.59686
6.94087	7.63847
6.9316	7.71488
6.92234	7.81094
6.91311	7.9145
6.90391	8.065
6.89473	8.26529
6.88557	8.36687
6.87644	8.47023
6.86733	8.74071
6.85824	8.82473
6.84918	8.76131
6.84015	8.8655
6.83114	9.07989
6.82215	9.03598
6.81319	8.99297
6.80424	9.17666
6.79532	9.45884
6.78643	9.64147
6.77756	9.74209
6.76871	9.81213
6.75989	9.96479
6.75109	10.2458
6.74231	10.4871
6.73355	10.7393
6.72482	11.1282
6.71611	11.4444
6.70742	11.5497
6.69875	11.7196
6.69011	12.0396
6.68149	12.3481
6.67289	12.5798
6.66431	12.7867
6.65576	12.9646
6.64722	13.3451
6.63871	13.8525
6.63022	14.0494
6.62175	14.2368
6.61331	14.549
6.60488	14.7048
6.59648	14.8958
6.5881	15.1227
6.57974	15.3843
6.5714	15.4836
6.56308	15.3828
6.55478	15.3598
6.54651	15.3125
6.53825	15.2392
6.53001	15.22
6.5218	15.1845
6.51361	14.981
6.50544	14.9757
6.49729	15.2622
6.48915	15.3251
6.48104	15.0932
6.47295	14.9665
6.46488	14.9581
6.45683	14.9675
6.4488	14.859
6.44079	14.5862
6.4328	14.206
6.42482	13.7161
6.41687	13.2071
6.40894	12.3292
6.40103	11.3338
6.39314	10.6361
6.38526	10.0676
6.37741	9.59297
6.36957	9.16491
6.36176	8.6553
6.35396	8.1905
6.34618	7.65745
6.33843	6.85549
6.33069	6.11007
6.32297	5.62566
6.31527	5.28152
6.30758	4.94827
6.29992	4.71328
6.29227	4.67821
6.28465	4.85588
6.27704	4.94079
6.26945	4.91368
6.26188	4.85785
6.25432	4.79887
6.24679	4.6564
6.23927	4.59274
6.23177	4.49553
6.22429	4.38549
6.21683	4.29214
6.20938	4.21493
6.20195	4.13836
6.19454	3.98844
6.18715	3.90303
6.17978	3.83936
6.17242	3.84769
6.16508	3.89192
6.15776	3.84935
6.15045	3.75959
6.14317	3.74736
6.1359	3.7159
6.12864	3.73097
6.12141	3.73799
6.11419	3.77969
6.10699	3.75135
6.0998	3.71864
6.09263	3.79676
6.08549	3.83268
6.07835	3.88849
6.07123	3.9489
6.06413	3.97324
6.05705	4.03284
6.04998	4.14267
6.04293	4.27406
6.0359	4.32338
6.02888	4.35543
6.02187	4.45642
6.01489	4.67537
6.00792	4.88826
6.00096	5.04902
5.99403	5.09919
5.98711	5.12643
5.9802	5.24048
5.97331	5.35575
5.96644	5.4081
5.95958	5.39836
5.95274	5.46284
5.94591	5.54495
5.9391	5.71337
5.9323	5.8376
5.92552	5.88521
5.91876	6.06195
5.91201	6.23419
5.90528	6.4515
5.89856	6.68887
5.89186	6.81303
5.88517	7.00301
5.8785	7.1455
5.87184	7.14524
5.8652	7.14451
5.85857	7.02162
5.85196	6.97355
5.84536	6.99625
5.83878	7.0848
5.83221	7.16438
5.82566	7.18917
5.81912	7.12113
5.81259	7.01006
5.80608	6.89793
5.79959	6.91373
5.79311	6.9613
5.78665	6.93903
5.78019	6.85508
5.77376	6.85462
5.76734	6.96222
5.76093	6.75302
5.75453	6.65677
5.74815	6.9108
5.74179	7.12525
5.73543	7.25395
5.7291	7.52978
5.72277	7.85415
5.71646	8.00237
5.71017	8.22609
5.70389	8.42268
5.69762	8.62978
5.69136	8.9033
5.68513	9.13219
5.6789	9.58536
5.67268	10.1458
5.66648	10.4552
5.6603	10.9073
5.65413	11.4869
5.64797	11.8605
5.64182	12.0572
5.63569	11.784
5.62957	11.2614
5.62347	10.6241
5.61737	9.73292
5.61129	8.53804
5.60522	7.08198
5.59917	5.36674
5.59313	3.65017
5.5871	2.19614
5.58109	1.3743
5.57509	1.07391
5.5691	0.993019
5.56312	0.906012
5.55716	0.962961
5.55121	1.49821
5.54528	2.85835
5.53935	4.95366
5.53344	7.34227
5.52754	9.74435
5.52166	11.9936
5.51578	14.0066
5.50992	15.7428
5.50407	17.2751
5.49823	18.7021
5.49241	20.028
5.4866	21.2841
5.4808	22.5489
5.47501	23.7321
5.46923	24.9246
5.46347	26.0094
5.45772	26.9116
5.45198	27.9027
5.44625	28.9683
5.44054	30.0141
5.43484	31.0915
5.42914	32.2314
5.42347	33.4259
5.4178	34.2886
5.41214	35.0769
5.4065	35.9469
5.40087	36.7571
5.39525	37.5619
5.38964	38.4633
5.38404	39.4221
5.37846	40.1928
5.37288	40.8425
5.36732	41.5817
5.36177	42.3162
5.35623	43.0145
5.35071	43.674
5.34519	44.2188
5.33968	44.8224
5.33419	45.4461
5.32871	46.0126
5.32324	46.6909
5.31778	47.3586
5.31233	47.9765
5.30689	48.5845
5.30147	49.1257
5.29605	49.6337
5.29065	50.1051
5.28525	50.4856
5.27987	50.9407
5.2745	51.2768
5.26914	51.561
5.26379	51.9432
5.25845	52.3784
5.25312	52.7478
5.24781	53.1317
5.2425	53.5293
5.23721	53.8841
5.23192	54.1667
5.22665	54.415
5.22138	54.6064
5.21613	54.9292
5.21089	55.2532
5.20566	55.4944
5.20044	55.7917
5.19522	56.0708
5.19002	56.2836
5.18483	56.4643
5.17965	56.6665
5.17448	56.7807
5.16933	56.8737
5.16418	57.0252
5.15904	57.2111
5.15391	57.4122
5.14879	57.6133
5.14368	57.7512
5.13859	57.8729
5.1335	57.9257
5.12842	57.8657
5.12335	57.6405
5.1183	56.9275
5.11325	55.2251
5.10821	52.3069
5.10318	49.0794
5.09817	48.0854
5.09316	51.0825
5.08816	54.9371
5.08317	57.3729
5.07819	58.5847
5.07322	59.1996
5.06826	59.5631
5.06331	59.7933
5.05837	59.8657
5.05344	59.8977
5.04852	59.9481
5.04361	60.0525
5.03871	60.0495
5.03382	60.0071
5.02894	59.9593
5.02406	59.9502
5.0192	59.9241
5.01435	59.7946
5.0095	59.6809
5.00467	59.6797
4.99984	59.6892
4.99502	59.628
4.99021	59.5464
4.98542	59.5599
4.98063	59.5671
4.97585	59.5086
4.97108	59.3923
4.96632	59.329
4.96156	59.3216
4.95682	59.2759
4.95209	59.1635
4.94736	59.1237
4.94264	59.1616
4.93794	59.1844
4.93324	59.1333
4.92855	59.118
4.92387	59.1373
4.9192	59.185
4.91453	59.2394
4.90988	59.2638
4.90524	59.2631
4.9006	59.3423
4.89597	59.3762
4.89135	59.3849
4.88674	59.4393
4.88214	59.5213
4.87755	59.5651
4.87296	59.534
4.86839	59.4305
4.86382	59.4713
4.85926	59.5796
4.85471	59.6433
4.85017	59.6451
4.84564	59.6253
4.84111	59.6465
4.8366	59.6721
4.83209	59.6374
4.82759	59.6193
4.8231	59.6937
4.81862	59.71
4.81415	59.6375
4.80968	59.5639
4.80522	59.5316
4.80077	59.537
4.79633	59.5034
4.7919	59.4741
4.78747	59.387
4.78306	59.2799
4.77865	59.1492
4.77425	58.9738
4.76986	58.6697
4.76547	58.2414
4.7611	57.7957
4.75673	57.3945
4.75237	57.0138
4.74802	56.5375
4.74367	55.9402
4.73934	55.29
4.73501	54.5472
4.73069	53.6222
4.72638	52.3597
4.72207	50.7904
4.71777	48.9047
4.71348	46.75
4.7092	44.5342
4.70493	42.5499
4.70066	40.7392
4.69641	39.2426
4.69216	38.0997
4.68791	37.1419
4.68368	36.3654
4.67945	35.9051
4.67523	35.708
4.67102	35.5996
4.66682	35.6559
4.66262	35.9435
4.65843	36.5288
4.65425	37.5304
4.65007	38.7736
4.64591	40.1894
4.64175	41.7371
4.6376	43.3765
4.63345	44.9044
4.62932	46.202
4.62519	47.2453
4.62106	48.1732
4.61695	49.0684
4.61284	49.8054
4.60874	50.3062
4.60465	50.6847
4.60056	50.8838
4.59648	51.0609
4.59241	51.3292
4.58835	51.6145
4.58429	51.8355
4.58024	51.9015
4.5762	51.8704
4.57216	51.8944
4.56814	51.9943
4.56411	52.1516
4.5601	52.187
4.55609	52.244
4.55209	52.3067
4.5481	52.3496
4.54411	52.3299
4.54013	52.293
4.53616	52.3257
4.5322	52.4235
4.52824	52.4452
4.52429	52.4648
4.52034	52.5855
4.51641	52.6736
4.51247	52.6826
4.50855	52.7615
4.50463	52.9199
4.50072	53.1745
4.49682	53.4066
4.49292	53.6726
4.48903	54.0147
4.48515	54.4846
4.48127	54.959
4.4774	55.3956
4.47354	55.8518
4.46968	56.3584
4.46584	56.7738
4.46199	57.0589
4.45815	57.3168
4.45432	57.5844
4.4505	57.9053
4.44668	58.2552
4.44287	58.6469
4.43907	59.0642
4.43527	59.4517
4.43148	59.7773
4.4277	59.9751
4.42392	60.1389
4.42015	60.3243
4.41638	60.4705
4.41262	60.6716
4.40887	60.8799
4.40513	60.9709
4.40139	61.0815
4.39765	61.2903
4.39393	61.433
4.39021	61.4684
4.38649	61.5301
4.38278	61.6394
4.37908	61.7228
4.37539	61.7048
4.3717	61.6121
4.36801	61.3993
4.36434	61.1592
4.36067	60.8903
4.357	60.5568
4.35335	60.2401
4.34969	59.9863
4.34605	59.8581
4.34241	59.837
4.33877	59.7706
4.33514	59.7137
4.33152	59.7349
4.32791	59.7941
4.3243	59.7556
4.32069	59.648
4.3171	59.6273
4.31351	59.6384
4.30992	59.6775
4.30634	59.7752
4.30277	59.9303
4.2992	60.1083
4.29564	60.1614
4.29208	60.0103
4.28853	59.81
4.28499	59.5097
4.28145	59.075
4.27792	58.6338
4.27439	58.1939
4.27087	57.7813
4.26735	57.5749
4.26384	57.7801
4.26034	58.3234
4.25684	58.9138
4.25335	59.2978
4.24986	59.4627
4.24638	59.4624
4.24291	59.4396
4.23944	59.4112
4.23598	59.3488
4.23252	59.2088
4.22906	59.098
4.22562	59.0969
4.22218	59.0466
4.21874	58.9699
4.21531	58.8639
4.21189	58.7758
4.20847	58.7394
4.20506	58.6502
4.20165	58.4949
4.19825	58.3437
4.19485	58.1099
4.19146	57.856
4.18807	57.6794
4.18469	57.4906
4.18132	57.2079
4.17795	56.915
4.17458	56.6905
4.17123	56.4646
4.16787	56.2257
4.16453	55.9618
4.16118	55.6718
4.15785	55.3676
4.15451	54.9994
4.15119	54.5753
4.14787	54.1588
4.14455	53.7164
4.14124	53.2506
4.13794	52.716
4.13464	52.1268
4.13134	51.611
4.12805	51.1456
4.12477	50.5508
4.12149	49.9615
4.11822	49.3977
4.11495	48.8412
4.11168	48.226
4.10843	47.5497
4.10517	46.9028
4.10192	46.357
4.09868	45.7846
4.09545	45.0929
4.09221	44.4492
4.08899	43.7849
4.08576	43.0201
4.08255	42.1887
4.07933	41.2811
4.07613	40.3962
4.07292	39.4763
4.06973	38.4799
4.06654	37.462
4.06335	36.4772
4.06017	35.4747
4.05699	34.3133
4.05382	32.8781
4.05065	31.1146
4.04749	29.1623
4.04433	27.0943
4.04118	24.8692
4.03803	22.7121
4.03489	20.9003
4.03175	19.3558
4.02862	17.8247
4.02549	16.4256
4.02237	15.188
4.01925	13.9614
4.01614	12.6969
4.01303	11.3526
4.00993	9.80865
4.00683	8.30321
4.00373	7.05897
4.00064	6.06931
3.99756	5.30392
3.99448	4.70724
3.9914	4.17596
3.98833	3.73083
3.98527	3.50813
3.98221	3.38479
3.97915	3.35388
3.9761	3.41055
3.97305	3.51343
3.97001	3.60925
3.96697	3.74821
3.96394	3.91844
3.96091	4.23621
3.95789	4.64861
3.95487	5.0567
3.95186	5.71384
3.94885	6.58128
3.94584	7.52671
3.94284	8.60804
3.93984	9.74225
3.93685	10.552
3.93386	10.7951
3.93088	10.8739
3.9279	11.1294
3.92493	11.475
3.92196	11.7877
3.919	12.0619
3.91604	12.3114
3.91308	12.5614
3.91013	12.6852
3.90718	12.8456
3.90424	13.0052
3.9013	13.096
3.89837	13.1865
3.89544	13.3728
3.89252	13.5021
3.8896	13.6329
3.88668	13.6713
3.88377	13.715
3.88086	13.9399
3.87796	14.1516
3.87506	14.1176
3.87217	14.0164
3.86928	14.1496
3.86639	14.3028
3.86351	14.3302
3.86064	14.3265
3.85776	14.5142
3.8549	14.7101
3.85203	14.808
3.84917	14.9793
3.84631	15.2544
3.84346	15.6258
3.84062	16.1425
3.83777	16.8052
3.83494	17.6705
3.8321	18.6235
3.82927	19.6628
3.82644	20.8607
3.82362	22.1094
3.82081	23.3148
3.81799	24.5819
3.81518	26.0154
3.81238	27.5204
3.80958	29.1187
3.80678	31.007
3.80399	33.0145
3.8012	35.1914
3.79841	37.5733
3.79563	40.1296
3.79286	42.6832
3.79008	44.8946
3.78731	46.7192
3.78455	48.1185
3.78179	49.1776
3.77903	50.0297
3.77628	50.6896
3.77353	51.2924
3.77079	51.8946
3.76805	52.45
3.76531	52.8627
3.76258	53.2818
3.75985	53.6445
3.75713	53.7849
3.7544	53.8686
3.75169	54.0222
3.74898	54.1887
3.74627	54.4307
3.74356	54.7204
3.74086	54.982
3.73816	55.2643
3.73547	55.4852
3.73278	55.7049
3.7301	55.9531
3.72741	56.1057
3.72474	56.2629
3.72206	56.4308
3.71939	56.5404
3.71673	56.5998
3.71406	56.6487
3.71141	56.7036
3.70875	56.7677
3.7061	56.8005
3.70345	56.8666
3.70081	56.9188
3.69817	56.8521
3.69553	56.8329
3.6929	56.8366
3.69027	56.8506
3.68765	56.7452
3.68503	56.6635
3.68241	56.6119
3.6798	56.5454
3.67719	56.4419
3.67458	56.3607
3.67198	56.4107
3.66938	56.3254
3.66678	56.2095
3.66419	56.0514
3.66161	55.9199
3.65902	55.7809
3.65644	55.5783
3.65387	55.4153
3.65129	55.3302
3.64872	55.2378
3.64616	55.1145
3.64359	54.911
3.64103	54.7175
3.63848	54.5569
3.63593	54.3767
3.63338	54.1054
3.63084	53.9162
3.6283	53.7728
3.62576	53.5439
3.62322	53.3209
3.62069	53.1134
3.61817	52.8167
3.61564	52.4807
3.61312	52.2582
3.61061	52.0165
3.6081	51.6623
3.60559	51.2363
3.60308	50.8548
3.60058	50.4837
3.59808	49.9875
3.59558	49.4533
3.59309	48.8972
3.59061	48.2663
3.58812	47.5473
3.58564	46.731
3.58316	45.8055
3.58069	44.7706
3.57822	43.6883
3.57575	42.7281
3.57328	42.1193
3.57082	41.8362
3.56836	41.7765
3.56591	41.86
3.56346	41.8566
3.56101	41.6937
3.55857	41.4
3.55613	40.963
3.55369	40.4221
3.55126	39.8161
3.54883	39.0419
3.5464	38.0925
3.54397	37.0447
3.54155	35.9436
3.53914	34.632
3.53672	33.1355
3.53431	31.5127
3.5319	29.7064
3.5295	27.6675
3.5271	25.4195
3.5247	23.1294
3.52231	20.9165
3.51991	18.9105
3.51753	17.3554
3.51514	16.1761
3.51276	15.2004
3.51038	14.4236
3.50801	13.7382
3.50563	13.1995
3.50327	12.749
3.5009	12.147
3.49854	11.6487
3.49618	11.2698
3.49382	10.7564
3.49147	10.3177
3.48912	9.94798
3.48677	9.5033
3.48443	9.11218
3.48209	8.79411
3.47975	8.58705
3.47742	8.54566
3.47509	8.78829
3.47276	9.35897
3.47044	10.3047
3.46812	11.5659
3.4658	12.9053
3.46348	14.1671
3.46117	15.0781
3.45886	15.7036
3.45656	16.2085
3.45425	16.5724
3.45195	16.7437
3.44966	16.8126
3.44736	16.9087
3.44507	17.0519
3.44279	17.1623
3.4405	17.1687
3.43822	17.2347
3.43594	17.2701
3.43367	17.2502
3.43139	17.1951
3.42912	17.2687
3.42686	17.2529
3.42459	17.2256
3.42233	17.227
3.42007	17.0979
3.41782	17.0474
3.41557	17.0357
3.41332	17.04
3.41108	17.087
3.40883	16.9183
3.40659	16.7963
3.40435	16.7122
3.40212	16.6086
3.39989	16.5616
3.39766	16.4947
3.39544	16.3427
3.39322	16.2021
3.391	16.0454
3.38878	15.8493
3.38657	15.7525
3.38436	15.7946
3.38215	15.6648
3.37994	15.3816
3.37774	15.2463
3.37554	15.1979
3.37335	15.1052
3.37115	15.0568
3.36896	15.0503
3.36678	14.7831
3.36459	14.4053
3.36241	13.9792
3.36023	13.5073
3.35805	13.0032
3.35588	12.5603
3.35371	12.2123
3.35154	12.0786
3.34938	12.317
3.34721	13.022
3.34505	14.4141
3.3429	16.6592
3.34074	19.5358
3.33859	22.3936
3.33644	25.0269
3.3343	27.1751
3.33215	28.8595
3.33001	30.302
3.32788	31.525
3.32574	32.4777
3.32361	33.2415
3.32148	33.8891
3.31936	34.4028
3.31723	34.8719
3.31511	35.2605
3.31299	35.5473
3.31088	35.9176
3.30876	36.294
3.30665	36.5937
3.30455	36.789
3.30244	36.9413
3.30034	37.1722
3.29824	37.337
3.29614	37.3865
3.29405	37.4932
3.29196	37.6669
3.28987	37.7588
3.28778	37.8784
3.2857	38.0265
3.28362	38.103
3.28154	38.1535
3.27946	38.2995
3.27739	38.3263
3.27532	38.2801
3.27325	38.3185
3.27119	38.4211
3.26913	38.4072
3.26707	38.3346
3.26501	38.3645
3.26295	38.4031
3.2609	38.3949
3.25885	38.3507
3.2568	38.2802
3.25476	38.2315
3.25272	38.2042
3.25068	38.2064
3.24864	38.2108
3.24661	38.2597
3.24458	38.2249
3.24255	38.0774
3.24052	38.0512
3.2385	38.1454
3.23648	38.1414
3.23446	37.9891
3.23244	37.8543
3.23043	37.7943
3.22841	37.7866
3.2264	37.8403
3.2244	37.7325
3.22239	37.6998
3.22039	37.6766
3.21839	37.5721
3.2164	37.4781
3.2144	37.3956
3.21241	37.3594
3.21042	37.3696
3.20844	37.2478
3.20645	37.1099
3.20447	37.1343
3.20249	37.1489
3.20051	36.963
3.19854	36.8218
3.19657	36.7642
3.1946	36.6898
3.19263	36.6807
3.19067	36.6168
3.1887	36.4692
3.18674	36.4518
3.18479	36.3721
3.18283	36.189
3.18088	36.1153
3.17893	36.086
3.17698	35.9303
3.17504	35.7043
3.17309	35.5891
3.17115	35.5871
3.16921	35.4266
3.16728	35.1482
3.16534	34.8719
3.16341	34.6264
3.16148	34.4697
3.15956	34.3053
3.15763	34.0794
3.15571	33.8712
3.15379	33.7806
3.15187	33.7579
3.14996	33.6827
3.14805	33.5781
3.14614	33.5579
3.14423	33.571
3.14232	33.4502
3.14042	33.3809
3.13852	33.3868
3.13662	33.3615
3.13472	33.3162
3.13283	33.2978
3.13094	33.2276
3.12905	33.2008
3.12716	33.19
3.12528	33.0852
3.12339	32.9012
3.12151	32.7842
3.11964	32.6417
3.11776	32.425
3.11589	32.247
3.11401	32.095
3.11214	32.0057
3.11028	31.9154
3.10841	31.8816
3.10655	31.9164
3.10469	31.9356
3.10283	31.822
3.10098	31.878
3.09912	32.0668
3.09727	32.1305
3.09542	32.122
3.09358	32.1313
3.09173	32.0737
3.08989	31.963
3.08805	31.9814
3.08621	32.1031
3.08437	32.0964
3.08254	32.0821
3.08071	32.1654
3.07888	32.2318
3.07705	32.2245
3.07523	32.2011
3.0734	32.1989
3.07158	32.2023
3.06977	32.0911
3.06795	32.0698
3.06613	32.1126
3.06432	32.0281
3.06251	31.9083
3.0607	31.9662
3.0589	32.0016
3.0571	31.9711
3.05529	31.944
3.05349	32.0258
3.0517	31.9909
3.0499	31.9842
3.04811	32.0447
3.04632	32.0343
3.04453	32.0053
3.04274	31.9331
3.04096	31.9054
3.03918	31.821
3.0374	31.8203
3.03562	31.8292
3.03384	31.7622
3.03207	31.7327
3.03029	31.8508
3.02852	31.845
3.02676	31.7457
3.02499	31.7784
3.02323	31.7876
3.02146	31.7609
3.0197	31.7215
3.01795	31.6473
3.01619	31.7066
3.01444	31.7243
3.01269	31.7051
3.01094	31.7272
3.00919	31.7773
3.00744	31.7019
3.0057	31.6259
3.00396	31.5663
3.00222	31.5373
3.00048	31.5311
2.99875	31.5113
2.99701	31.4722
2.99528	31.3539
2.99355	31.3925
2.99183	31.4751
2.9901	31.4767
2.98838	31.51
2.98666	31.4871
2.98494	31.414
2.98322	31.3503
2.9815	31.3197
2.97979	31.3752
2.97808	31.4432
2.97637	31.4292
2.97466	31.3274
2.97295	31.3087
2.97125	31.2249
2.96955	31.2516
2.96785	31.2811
2.96615	31.2724
2.96446	31.3051
2.96276	31.2954
2.96107	31.2398
2.95938	31.1813
2.95769	31.259
2.95601	31.3448
2.95432	31.2439
2.95264	31.0873
2.95096	31.0421
2.94928	31.2009
2.9476	31.2246
2.94593	31.0843
2.94425	31.101
2.94258	31.2175
2.94092	31.2829
2.93925	31.4167
2.93758	31.523
2.93592	31.493
2.93426	31.3891
2.9326	31.3067
2.93094	31.4549
2.92928	31.6163
2.92763	31.7071
2.92598	31.6904
2.92433	31.6498
2.92268	31.7174
2.92103	31.7723
2.91939	31.762
2.91775	31.7473
2.9161	31.8787
2.91447	31.9927
2.91283	32.1025
2.91119	32.2679
2.90956	32.3172
2.90793	32.2897
2.9063	32.3621
2.90467	32.3853
2.90304	32.4505
2.90142	32.4843
2.89979	32.4351
2.89817	32.4823
2.89656	32.6029
2.89494	32.6295
2.89332	32.6406
2.89171	32.7959
2.8901	32.9476
2.88849	32.9954
2.88688	33.1803
2.88527	33.333
2.88367	33.3982
2.88206	33.5133
2.88046	33.591
2.87886	33.6742
2.87727	33.7917
2.87567	33.8279
2.87408	33.8145
2.87248	33.9752
2.87089	34.1355
2.8693	34.1944
2.86772	34.3572
2.86613	34.4919
2.86455	34.524
2.86297	34.6537
2.86139	34.6879
2.85981	34.7037
2.85823	34.8446
2.85666	35.098
2.85508	35.2059
2.85351	35.2753
2.85194	35.4507
2.85038	35.6335
2.84881	35.7762
2.84724	35.8908
2.84568	36.0298
2.84412	36.0869
2.84256	36.0922
2.841	36.263
2.83945	36.4298
2.83789	36.4257
2.83634	36.4907
2.83479	36.6278
2.83324	36.721
2.83169	36.8737
2.83015	36.9554
2.82861	37.1867
2.82706	37.3889
2.82552	37.3942
2.82398	37.4479
2.82245	37.6003
2.82091	37.7802
2.81938	37.9533
2.81784	37.9964
2.81631	37.9862
2.81479	38.1417
2.81326	38.2555
2.81173	38.299
2.81021	38.4002
2.80869	38.5992
2.80716	38.64
2.80565	38.8211
2.80413	39.0934
2.80261	39.1204
2.8011	38.8085
2.79959	38.6661
2.79808	38.6871
2.79657	38.6455
2.79506	38.6294
2.79355	38.4793
2.79205	38.3053
2.79055	38.2411
2.78904	38.4272
2.78754	38.749
2.78605	38.8313
2.78455	38.9683
2.78306	39.3541
2.78156	39.6878
2.78007	40.0241
2.77858	40.3165
2.77709	40.6917
2.77561	40.9601
2.77412	41.1406
2.77264	41.6773
2.77116	42.4077
2.76968	42.6886
2.7682	42.9198
2.76672	43.0533
2.76524	43.0136
2.76377	43.4961
2.7623	43.9666
2.76083	43.9672
2.75936	44.0908
2.75789	44.4688
2.75642	45.1414
2.75496	45.6242
2.7535	45.733
2.75203	46.0406
2.75057	46.4965
2.74912	47.1186
2.74766	47.7621
2.7462	48.415
2.74475	49.0439
2.7433	49.7185
2.74185	50.5613
2.7404	51.4804
2.73895	52.0114
2.7375	52.3841
2.73606	53.1845
2.73462	54.0025
2.73318	54.5512
2.73174	55.2262
2.7303	55.8997
2.72886	56.6915
2.72742	57.6075
2.72599	58.8736
2.72456	60.1266
2.72313	60.5885
2.7217	61.5562
2.72027	62.9021
2.71884	63.3384
2.71742	63.9527
2.71599	64.6315
2.71457	65.3707
2.71315	66.2933
2.71173	67.78
2.71032	68.7159
2.7089	69.0561
2.70748	69.4681
2.70607	70.0765
2.70466	70.8286
2.70325	71.5583
2.70184	72.3802
2.70043	73.0423
2.69903	73.5191
2.69762	74.1883
2.69622	75.1215
2.69482	76.2226
2.69342	76.9409
2.69202	77.0236
2.69062	77.3494
2.68923	77.935
2.68783	78.4641
2.68644	78.9483
2.68505	79.3767
2.68366	79.8021
2.68227	79.9112
2.68089	80.1042
2.6795	80.8814
2.67812	81.242
2.67673	81.6834
2.67535	81.6759
2.67397	81.4051
2.6726	81.5605
2.67122	82.7218
2.66984	83.1605
2.66847	82.7569
2.6671	83.2441
2.66572	83.5081
2.66435	83.2227
2.66299	82.6453
2.66162	82.7854
2.66025	82.9918
2.65889	83.043
2.65753	82.9335
2.65616	83.2326
2.65481	83.3401
2.65345	83.5018
2.65209	83.7502
2.65073	83.6358
2.64938	83.5506
2.64803	83.7323
2.64667	84.0411
2.64532	84.1922
2.64397	84.0539
2.64263	84.1197
2.64128	84.0156
2.63994	83.9849
2.63859	84.0716
2.63725	84.1634
2.63591	84.2167
2.63457	84.4608
2.63323	84.5326
2.6319	84.8364
2.63056	85.3846
2.62923	84.996
2.62789	84.8386
2.62656	85.1932
2.62523	84.8098
2.6239	84.5504
2.62258	84.6829
2.62125	85.4107
2.61993	85.6249
2.6186	85.2196
2.61728	85.4803
2.61596	85.3326
2.61464	84.9368
2.61332	85.0052
2.61201	84.9733
2.61069	85.0754
2.60938	85.0681
2.60807	85.0648
2.60675	85.4793
2.60544	85.7783
2.60414	85.3308
2.60283	84.9737
2.60152	84.685
2.60022	84.4221
2.59891	84.3966
2.59761	84.5549
2.59631	85.1862
2.59501	86.0583
2.59371	85.2039
2.59242	84.1255
2.59112	83.8104
2.58983	83.8496
2.58853	83.934
2.58724	83.9473
2.58595	83.5594
2.58466	83.7185
2.58338	83.654
2.58209	83.2076
2.5808	83.0918
2.57952	82.7668
2.57824	82.8163
2.57695	82.989
2.57567	82.6807
2.5744	82.6773
2.57312	82.6647
2.57184	82.089
2.57057	81.9275
2.56929	81.6519
2.56802	80.9939
2.56675	80.6063
2.56548	80.52
2.56421	80.3434
2.56294	79.8969
2.56168	79.3154
2.56041	78.4152
2.55915	77.4308
2.55789	76.6008
2.55662	75.8329
2.55536	75.0292
2.5541	74.2576
2.55285	73.3826
2.55159	72.2694
2.55034	71.2289
2.54908	70.2593
2.54783	69.351
2.54658	68.416
2.54533	67.5734
2.54408	66.7855
2.54283	66.1197
2.54159	65.4967
2.54034	64.9334
2.5391	64.6124
2.53785	64.4203
2.53661	64.4573
2.53537	64.5541
2.53413	64.6642
2.53289	64.9945
2.53166	65.3164
2.53042	65.6137
2.52919	66.089
2.52795	66.6284
2.52672	67.1097
2.52549	67.6376
2.52426	68.2939
2.52303	68.7763
2.52181	69.1273
2.52058	69.5287
2.51936	69.9657
2.51813	70.3219
2.51691	70.6118
2.51569	70.7886
2.51447	70.987
2.51325	71.2818
2.51203	71.493
2.51082	71.5681
2.5096	71.6557
2.50839	71.8834
2.50717	71.962
2.50596	71.9462
2.50475	72.0502
2.50354	72.2424
2.50233	72.2853
2.50113	72.2731
2.49992	72.3661
2.49872	72.521
2.49751	72.5722
2.49631	72.7109
2.49511	72.8721
2.49391	72.9725
2.49271	73.0197
2.49151	73.2008
2.49031	73.3576
2.48912	73.3659
2.48792	73.5264
2.48673	73.6867
2.48554	73.8708
2.48435	74.1812
2.48316	74.418
2.48197	74.6489
2.48078	74.9704
2.4796	75.3367
2.47841	75.6557
2.47723	75.8969
2.47604	76.1974
2.47486	76.595
2.47368	76.882
2.4725	77.2087
2.47132	77.6301
2.47014	78.0469
2.46897	78.4124
2.46779	78.6773
2.46662	79.0285
2.46545	79.4441
2.46427	79.7955
2.4631	80.14
2.46193	80.4285
2.46077	80.665
2.4596	80.9404
2.45843	81.102
2.45727	81.3287
2.4561	81.6736
2.45494	81.9378
2.45378	82.1146
2.45262	82.2997
2.45146	82.4975
2.4503	82.7702
2.44914	82.9874
2.44799	83.1455
2.44683	83.1906
2.44568	83.3785
2.44452	83.6365
2.44337	83.838
2.44222	83.9342
2.44107	84.0885
2.43992	84.2701
2.43877	84.3549
2.43763	84.4502
2.43648	84.5786
2.43534	84.9032
2.43419	85.0943
2.43305	85.1364
2.43191	85.1223
2.43077	85.2866
2.42963	85.5327
2.42849	85.6136
2.42736	85.7557
2.42622	86.0292
2.42509	86.1212
2.42395	86.1496
2.42282	86.2239
2.42169	86.3159
2.42056	86.4054
2.41943	86.5841
2.4183	86.6951
2.41717	86.7169
2.41605	86.8455
2.41492	86.9379
2.4138	86.9419
2.41267	87.0372
2.41155	87.1403
2.41043	87.2439
2.40931	87.3231
2.40819	87.2858
2.40707	87.2802
2.40595	87.2282
2.40484	87.113
2.40372	87.1297
2.40261	87.1522
2.4015	87.1616
2.40039	87.192
2.39928	87.2594
2.39817	87.4033
2.39706	87.5214
2.39595	87.6719
2.39484	87.8075
2.39374	87.7217
2.39263	87.5894
2.39153	87.5084
2.39043	87.5389
2.38932	87.6429
2.38822	87.7168
2.38712	87.7536
2.38603	87.7522
2.38493	87.7223
2.38383	87.6236
2.38274	87.6151
2.38164	87.6234
2.38055	87.5012
2.37946	87.339
2.37836	87.2566
2.37727	87.2162
2.37618	87.1221
2.3751	86.9969
2.37401	86.9137
2.37292	86.7523
2.37184	86.5779
2.37075	86.3896
2.36967	86.1632
2.36859	85.9782
2.3675	85.749
2.36642	85.4894
2.36534	85.1864
2.36427	84.6978
2.36319	84.0323
2.36211	83.4943
2.36104	83.1528
2.35996	82.7102
2.35889	82.1084
2.35781	81.5433
2.35674	81.0834
2.35567	80.5707
2.3546	79.9872
2.35353	79.4009
2.35247	78.9015
2.3514	78.5163
2.35033	78.0339
2.34927	77.5766
2.3482	77.177
2.34714	76.9523
2.34608	76.7675
2.34502	76.4765
2.34396	76.2259
2.3429	76.1163
2.34184	76.0445
2.34078	75.9991
2.33973	75.9341
2.33867	75.8579
2.33762	75.9456
2.33656	76.0907
2.33551	76.2795
2.33446	76.4557
2.33341	76.777
2.33236	77.1587
2.33131	77.365
2.33026	77.4615
2.32922	77.6527
2.32817	78.0727
2.32712	78.4343
2.32608	78.704
2.32504	78.9085
2.324	79.0506
2.32295	79.3571
2.32191	79.7209
2.32087	79.9677
2.31984	80.1524
2.3188	80.2064
2.31776	80.4525
2.31673	80.6952
2.31569	80.7302
2.31466	80.8318
2.31362	80.9961
2.31259	80.996
2.31156	81.1163
2.31053	81.2345
2.3095	81.2572
2.30847	81.4305
2.30745	81.4577
2.30642	81.3357
2.3054	81.4519
2.30437	81.6946
2.30335	81.7239
2.30232	81.7769
2.3013	81.907
2.30028	82.0578
2.29926	82.2156
2.29824	82.1863
2.29722	82.2743
2.29621	82.4583
2.29519	82.6331
2.29417	82.7983
2.29316	82.8264
2.29215	82.8503
2.29113	82.8021
2.29012	82.9209
2.28911	83.1565
2.2881	83.4163
2.28709	83.7066
2.28608	83.8959
2.28507	84.0476
2.28407	84.1523
2.28306	84.3786
2.28206	84.577
2.28105	84.6397
2.28005	84.8337
2.27905	85.1365
2.27805	85.3783
2.27705	85.3879
2.27605	85.5017
2.27505	85.7697
2.27405	86.0633
2.27305	86.2728
2.27206	86.4347
2.27106	86.5962
2.27007	86.7011
2.26907	86.9159
2.26808	87.1256
2.26709	87.1986
2.2661	87.2185
2.26511	87.1274
2.26412	87.2434
2.26313	87.5032
2.26214	87.7153
2.26116	87.8011
2.26017	87.8463
2.25919	87.9395
2.2582	88.005
2.25722	88.0832
2.25624	88.275
2.25526	88.3727
2.25428	88.3955
2.2533	88.501
2.25232	88.6414
2.25134	88.7434
2.25036	88.7971
2.24939	88.7136
2.24841	88.6848
2.24744	88.7564
2.24646	88.8812
2.24549	89.0771
2.24452	89.1622
2.24355	89.3192
2.24257	89.4812
2.24161	89.5111
2.24064	89.6005
2.23967	89.6555
2.2387	89.6008
2.23774	89.6038
2.23677	89.6822
2.23581	89.6657
2.23484	89.7631
2.23388	89.9022
2.23292	89.8911
2.23196	89.9097
2.231	90.037
2.23004	89.9907
2.22908	90.0882
2.22812	90.272
2.22716	90.2332
2.22621	90.0291
2.22525	90.1025
2.2243	90.3325
2.22334	90.4085
2.22239	90.5106
2.22144	90.577
2.22049	90.4466
2.21953	90.3559
2.21859	90.327
2.21764	90.4369
2.21669	90.5314
2.21574	90.5879
2.21479	90.5617
2.21385	90.4786
2.2129	90.4058
2.21196	90.3605
2.21102	90.4446
2.21007	90.5194
2.20913	90.5886
2.20819	90.6274
2.20725	90.6407
2.20631	90.7072
2.20537	90.6918
2.20444	90.7549
2.2035	90.9615
2.20256	90.9584
2.20163	90.7881
2.20069	90.8168
2.19976	90.8895
2.19883	90.868
2.19789	90.8827
2.19696	90.9719
2.19603	91.0092
2.1951	90.8929
2.19417	90.9335
2.19325	91.0162
2.19232	90.9541
2.19139	90.9887
2.19047	91.0946
2.18954	91.176
2.18862	91.1498
2.18769	91.1039
2.18677	91.2406
2.18585	91.229
2.18493	91.0889
2.18401	91.0286
2.18309	91.0187
2.18217	90.9426
2.18125	90.9534
2.18033	90.9981
2.17942	91.0285
2.1785	90.9658
2.17759	90.9416
2.17667	91.0511
2.17576	90.9941
2.17485	90.8933
2.17393	90.8456
2.17302	90.8325
2.17211	90.7502
2.1712	90.643
2.17029	90.8016
2.16939	90.9318
2.16848	90.8319
2.16757	90.7707
2.16667	90.7194
2.16576	90.7383
2.16486	90.5537
2.16395	90.3851
2.16305	90.4131
2.16215	90.5004
2.16125	90.5622
2.16035	90.6625
2.15945	90.6297
2.15855	90.5561
2.15765	90.4878
2.15675	90.4975
2.15586	90.4555
2.15496	90.4529
2.15406	90.4999
2.15317	90.5257
2.15228	90.6441
2.15138	90.7093
2.15049	90.6539
2.1496	90.6084
2.14871	90.6362
2.14782	90.6569
2.14693	90.5866
2.14604	90.6069
2.14515	90.7111
2.14427	90.7108
2.14338	90.8845
2.14249	91.0929
2.14161	91.0884
2.14072	91.0955
2.13984	91.1773
2.13896	91.0707
2.13808	90.9036
2.13719	90.8717
2.13631	91.074
2.13543	91.3352
2.13455	91.3544
2.13368	91.2593
2.1328	91.105
2.13192	91.1553
2.13105	91.2175
2.13017	91.2169
2.1293	91.2578
2.12842	91.2061
2.12755	91.117
2.12668	91.2384
2.1258	91.2671
2.12493	91.1797
2.12406	91.3327
2.12319	91.484
2.12232	91.5297
2.12145	91.5255
2.12059	91.3248
2.11972	91.1853
2.11885	91.1871
2.11799	91.2337
2.11712	91.3396
2.11626	91.3006
2.1154	91.2284
2.11453	91.2353
2.11367	91.2439
2.11281	91.3292
2.11195	91.2557
2.11109	91.3037
2.11023	91.4811
2.10937	91.3245
2.10851	91.2613
2.10766	91.3935
2.1068	91.2744
2.10594	91.3527
2.10509	91.5373
2.10423	91.467
2.10338	91.4285
2.10253	91.4379
2.10168	91.5992
2.10082	91.6063
2.09997	91.4606
2.09912	91.3873
2.09827	91.3404
2.09742	91.2851
2.09658	91.3003
2.09573	91.2985
2.09488	91.382
2.09404	91.4972
2.09319	91.3795
2.09235	91.2618
2.0915	91.3884
2.09066	91.5471
2.08982	91.5533
2.08897	91.3781
2.08813	91.1676
2.08729	91.1725
2.08645	91.2074
2.08561	91.3686
2.08477	91.4313
2.08394	91.4814
2.0831	91.5114
2.08226	91.3372
2.08143	91.4473
2.08059	91.8581
2.07976	91.8346
2.07892	91.3492
2.07809	91.0163
2.07726	91.0373
2.07643	91.0997
2.07559	91.0766
2.07476	91.3637
2.07393	91.2827
2.0731	91.2273
2.07228	91.3151
2.07145	91.3055
2.07062	91.2081
2.06979	91.0586
2.06897	90.933
2.06814	91.0811
2.06732	91.3972
2.06649	91.422
2.06567	91.2042
2.06485	91.0646
2.06403	91.0988
2.0632	91.3232
2.06238	91.4241
2.06156	91.2055
2.06074	91.1846
2.05993	91.342
2.05911	91.3434
2.05829	91.3563
2.05747	91.4289
2.05666	91.3978
2.05584	91.3796
2.05503	91.4678
2.05421	91.3569
2.0534	91.2871
2.05259	91.2119
2.05177	91.1559
2.05096	91.3017
2.05015	91.2942
2.04934	91.1837
2.04853	91.3204
2.04772	91.2351
2.04691	90.8895
2.04611	90.8272
2.0453	90.9277
2.04449	91.0775
2.04369	91.2337
2.04288	91.1751
2.04208	91.0987
2.04127	91.1087
2.04047	91.0652
2.03967	90.9041
2.03886	90.8376
2.03806	90.8538
2.03726	90.8108
2.03646	90.6589
2.03566	90.5646
2.03486	90.8184
2.03407	91.0699
2.03327	90.865
2.03247	90.6948
2.03167	90.6889
2.03088	90.8457
2.03008	90.8191
2.02929	90.7207
2.0285	90.8406
2.0277	90.9369
2.02691	91.0262
2.02612	90.8766
2.02533	90.8879
2.02453	90.6047
2.02374	90.3081
2.02295	90.5666
2.02217	90.6228
2.02138	90.4624
2.02059	90.3586
2.0198	90.3813
2.01902	90.6092
2.01823	90.5954
2.01744	90.464
2.01666	90.4688
2.01588	90.4461
2.01509	90.2058
2.01431	90.1933
2.01353	90.1129
2.01275	90.2042
2.01196	90.1517
2.01118	90.1712
2.0104	90.1652
2.00963	89.9988
2.00885	89.9343
2.00807	90.0548
2.00729	89.9507
2.00651	89.7998
2.00574	89.6363
2.00496	89.6153
2.00419	89.7474
2.00341	89.6238
2.00264	89.4535
2.00187	89.4064
2.00109	89.3891
2.00032	89.1627
