Name: Titanite (Sphene) CaTiSiO_5
Type: Mineral
Class: Silicates
Subclass: Nesosilicates
Particle Size: 45-125um
Sample No.: NS-7A
Owner: JPL
Wavelength range: IR
Origin: Brazil, Minas Gerais, Capelinha
Collected by JPL
Description: 





Measurement: Hemispherical reflectance
First Column: X
Second Column: Y
X Units:  Wavelength (micrometers)
Y Units:  Reflectance (percent)
First X Value: 15.3853
Last X Value: 2.00032
Number of X Values: 2256
Additional information: ns07aa.txt
 
15.3853	10.0436
15.3397	10.039
15.2945	10.0425
15.2495	9.98418
15.2048	10.054
15.1603	10.2688
15.1161	10.1801
15.0722	10.0921
15.0285	10.2987
14.9851	10.6384
14.9419	10.7363
14.8989	10.5451
14.8563	10.6821
14.8138	11.0637
14.7716	11.2129
14.7296	11.1598
14.6879	11.1196
14.6464	10.9907
14.6052	11.1485
14.5641	11.401
14.5233	11.5648
14.4828	11.5331
14.4424	11.6119
14.4023	11.718
14.3624	11.7093
14.3227	11.6772
14.2833	11.7053
14.244	11.6916
14.205	11.7461
14.1662	11.8283
14.1276	11.7453
14.0892	11.7401
14.051	11.8071
14.0131	11.7741
13.9753	11.7972
13.9377	11.929
13.9004	11.8541
13.8632	11.8915
13.8262	12.034
13.7895	12.0926
13.7529	12.0027
13.7165	11.8194
13.6803	11.8949
13.6443	11.9052
13.6085	11.9661
13.5729	12.1264
13.5374	12.0871
13.5022	11.9854
13.4671	11.9184
13.4322	11.9783
13.3975	11.9107
13.363	11.7322
13.3286	11.6475
13.2944	11.6365
13.2604	11.4947
13.2266	11.4267
13.193	11.1906
13.1595	10.7332
13.1262	10.5682
13.093	10.438
13.06	10.144
13.0272	9.82061
12.9946	9.70704
12.9621	9.43918
12.9298	9.16422
12.8976	8.98293
12.8656	8.72087
12.8337	8.57101
12.8021	8.48341
12.7705	8.37376
12.7391	8.27158
12.7079	8.1054
12.6769	7.97543
12.6459	7.9203
12.6152	7.9698
12.5845	7.88532
12.5541	7.83311
12.5238	7.86159
12.4936	7.99885
12.4635	8.18872
12.4337	8.28183
12.4039	8.39233
12.3743	8.55244
12.3448	8.73108
12.3155	8.97574
12.2863	9.3138
12.2573	9.69763
12.2284	10.1323
12.1996	10.5647
12.171	10.9753
12.1425	11.4163
12.1141	11.9271
12.0859	12.5103
12.0578	13.2264
12.0298	13.9618
12.0019	14.5876
11.9742	15.2119
11.9466	15.9437
11.9192	16.6785
11.8918	17.5146
11.8646	18.219
11.8375	19.1119
11.8106	20.07
11.7837	20.986
11.757	21.8447
11.7304	22.7848
11.7039	23.6549
11.6776	24.3941
11.6513	25.0842
11.6252	25.8147
11.5992	26.7167
11.5733	27.693
11.5475	28.7905
11.5219	29.7452
11.4963	30.6515
11.4709	31.3279
11.4455	31.515
11.4203	31.5366
11.3952	31.4345
11.3702	30.9716
11.3454	30.3623
11.3206	29.6987
11.2959	29.1895
11.2714	29.2343
11.2469	29.8386
11.2226	30.6663
11.1983	31.7204
11.1742	32.7941
11.1502	33.6903
11.1263	34.4969
11.1024	35.1493
11.0787	35.5006
11.0551	35.6783
11.0316	35.7424
11.0081	35.6993
10.9848	35.5514
10.9616	35.3931
10.9385	35.1893
10.9154	35.0309
10.8925	35.152
10.8697	35.6648
10.8469	36.3921
10.8243	37.106
10.8017	37.7052
10.7793	38.2074
10.7569	38.4422
10.7346	38.4113
10.7125	38.5557
10.6904	38.8389
10.6684	38.9608
10.6465	38.8786
10.6247	38.7573
10.6029	38.7597
10.5813	38.8898
10.5597	39.2602
10.5383	39.8242
10.5169	40.2275
10.4956	40.4317
10.4744	40.5307
10.4533	40.4577
10.4323	40.3303
10.4113	40.2074
10.3904	39.9716
10.3697	39.6716
10.349	39.3768
10.3284	38.9942
10.3078	38.5881
10.2874	38.2429
10.267	37.8621
10.2467	37.3835
10.2265	36.8789
10.2064	36.3767
10.1863	35.6767
10.1663	34.6259
10.1464	33.4428
10.1266	32.0532
10.1069	30.7306
10.0872	29.5505
10.0676	28.3816
10.0481	27.2348
10.0287	26.2392
10.0093	25.2111
9.99005	24.2727
9.97084	23.4157
9.95169	22.4899
9.93263	21.4137
9.91364	20.2508
9.89472	19.017
9.87587	17.7063
9.8571	16.187
9.83839	14.5079
9.81976	12.9205
9.80119	11.5519
9.78271	10.2377
9.76428	8.86621
9.74592	7.46508
9.72764	6.38496
9.70943	5.45712
9.69128	4.47789
9.6732	3.63886
9.65518	3.04564
9.63724	2.59317
9.61935	2.03372
9.60155	1.54736
9.5838	1.283
9.56611	1.09528
9.5485	0.857504
9.53094	0.673525
9.51345	0.594687
9.49604	0.52194
9.47867	0.487617
9.46137	0.349806
9.44414	0.170439
9.42697	0.0963384
9.40986	0.0994081
9.39281	0.281123
9.37583	0.304867
9.35891	0.217064
9.34204	0.226758
9.32524	0.257791
9.3085	0.298037
9.29182	0.280469
9.27519	0.241337
9.25863	0.131285
9.24213	0.127918
9.22568	0.144408
9.2093	0.185477
9.19297	0.248952
9.17669	0.281369
9.16048	0.347324
9.14433	0.389732
9.12823	0.440828
9.11218	0.33607
9.0962	0.256189
9.08027	0.220766
9.06439	0.247337
9.04858	0.39099
9.03281	0.472763
9.0171	0.570897
9.00145	0.524135
8.98585	0.626669
8.9703	0.692676
8.9548	0.563514
8.93937	0.617562
8.92398	0.717568
8.90865	0.527294
8.89337	0.533311
8.87814	0.666944
8.86296	0.615371
8.84784	0.730105
8.83277	0.921887
8.81774	0.90679
8.80277	0.87848
8.78786	0.905608
8.77298	1.02094
8.75816	0.992733
8.7434	0.962436
8.72868	1.11458
8.714	1.3625
8.69938	1.40986
8.68481	1.34358
8.67029	1.40324
8.65581	1.50689
8.64139	1.48706
8.62701	1.46878
8.61268	1.49747
8.5984	1.51958
8.58416	1.53359
8.56997	1.59451
8.55583	1.78243
8.54174	1.92816
8.52769	1.94996
8.51368	1.92823
8.49973	1.91083
8.48582	1.98318
8.47195	2.02839
8.45813	2.05863
8.44436	2.07521
8.43062	2.05867
8.41693	2.17094
8.4033	2.34115
8.3897	2.36952
8.37614	2.40886
8.36264	2.46186
8.34917	2.53497
8.33574	2.57669
8.32236	2.59925
8.30903	2.65053
8.29573	2.66883
8.28248	2.72707
8.26927	2.66752
8.2561	2.61868
8.24298	2.64859
8.2299	2.76717
8.21685	2.77764
8.20385	2.88715
8.19089	3.00602
8.17797	2.9287
8.16509	2.98484
8.15225	3.01038
8.13946	2.95145
8.1267	2.92864
8.11398	2.84748
8.10131	2.85791
8.08867	2.97755
8.07606	3.16575
8.0635	3.27146
8.05099	3.33779
8.0385	3.39672
8.02606	3.45638
8.01366	3.53733
8.00129	3.61791
7.98896	3.73397
7.97667	3.85699
7.96442	3.93325
7.9522	4.017
7.94002	4.04691
7.92788	4.10927
7.91578	4.22595
7.90371	4.39526
7.89168	4.54972
7.87969	4.68968
7.86773	4.79131
7.85581	4.81683
7.84392	4.86028
7.83207	4.90404
7.82026	4.948
7.80849	5.0963
7.79674	5.23215
7.78503	5.36197
7.77337	5.492
7.76173	5.58141
7.75012	5.62783
7.73856	5.63051
7.72703	5.66896
7.71553	5.71515
7.70406	5.75593
7.69263	5.79103
7.68123	5.83805
7.66987	6.00199
7.65855	6.03157
7.64725	5.94094
7.63598	5.93932
7.62475	5.98028
7.61356	5.9964
7.60239	5.97778
7.59126	6.0187
7.58017	6.06089
7.5691	6.10706
7.55806	6.17903
7.54707	6.2284
7.5361	6.17744
7.52516	6.12605
7.51425	6.16501
7.50338	6.28903
7.49253	6.38207
7.48172	6.48484
7.47094	6.58466
7.46019	6.61663
7.44947	6.66004
7.43879	6.77038
7.42813	6.85944
7.4175	6.94051
7.4069	6.99661
7.39634	7.02497
7.3858	7.07231
7.37529	7.19283
7.36482	7.30199
7.35437	7.34541
7.34396	7.35767
7.33357	7.47448
7.32321	7.64898
7.31288	7.70521
7.30258	7.78
7.29231	7.85212
7.28207	7.88378
7.27185	7.94122
7.26167	7.93008
7.25152	7.98899
7.24139	8.05128
7.23129	8.04981
7.22122	8.15215
7.21117	8.29275
7.20116	8.25969
7.19117	8.14953
7.18121	8.20274
7.17128	8.29543
7.16137	8.25648
7.1515	8.32446
7.14164	8.37084
7.13182	8.26827
7.12203	8.28354
7.11225	8.32151
7.10251	8.33603
7.0928	8.36999
7.08311	8.38775
7.07344	8.41908
7.06381	8.49163
7.0542	8.70455
7.04461	8.86265
7.03506	8.74775
7.02552	8.75788
7.01601	8.84072
7.00653	8.90868
6.99708	9.03301
6.98765	9.05435
6.97824	9.15857
6.96886	9.4607
6.95951	9.63862
6.95018	9.46508
6.94087	9.36179
6.9316	9.44242
6.92234	9.63384
6.91311	9.76378
6.90391	9.82747
6.89473	9.87545
6.88557	10.0417
6.87644	10.3546
6.86733	10.8093
6.85824	10.8712
6.84918	10.6501
6.84015	10.7116
6.83114	11.0291
6.82215	11.2656
6.81319	11.3469
6.80424	11.5718
6.79532	11.9185
6.78643	12.1219
6.77756	12.1155
6.76871	12.274
6.75989	12.3684
6.75109	12.5204
6.74231	12.7342
6.73355	13.0074
6.72482	13.2891
6.71611	13.6139
6.70742	13.843
6.69875	13.8511
6.69011	14.1492
6.68149	14.6361
6.67289	14.831
6.66431	14.8801
6.65576	15.0324
6.64722	15.5807
6.63871	16.3017
6.63022	16.1997
6.62175	15.912
6.61331	15.9425
6.60488	16.045
6.59648	16.4225
6.5881	16.6654
6.57974	16.9784
6.5714	17.3565
6.56308	17.2069
6.55478	17.192
6.54651	17.0975
6.53825	17.0552
6.53001	17.2088
6.5218	17.5205
6.51361	17.4775
6.50544	17.7179
6.49729	18.4958
6.48915	18.6303
6.48104	18.2325
6.47295	17.9905
6.46488	17.7672
6.45683	17.6848
6.4488	17.616
6.44079	17.5834
6.4328	17.6865
6.42482	17.9358
6.41687	18.5833
6.40894	18.2466
6.40103	17.3291
6.39314	17.0403
6.38526	16.9838
6.37741	17.0316
6.36957	17.1001
6.36176	16.797
6.35396	16.719
6.34618	17.0161
6.33843	16.8007
6.33069	16.5101
6.32297	16.5916
6.31527	16.6128
6.30758	16.6361
6.29992	16.7011
6.29227	16.8489
6.28465	16.9544
6.27704	17.0221
6.26945	17.151
6.26188	17.3629
6.25432	17.4793
6.24679	17.4922
6.23927	17.4618
6.23177	17.4539
6.22429	17.5379
6.21683	17.6361
6.20938	17.6734
6.20195	17.6131
6.19454	17.7772
6.18715	18.2106
6.17978	17.9764
6.17242	17.5366
6.16508	17.5636
6.15776	17.6561
6.15045	17.5074
6.14317	17.4611
6.1359	17.3571
6.12864	17.1616
6.12141	17.3228
6.11419	17.6955
6.10699	17.3002
6.0998	16.7985
6.09263	16.6402
6.08549	16.5143
6.07835	16.6238
6.07123	16.6029
6.06413	16.1573
6.05705	16.2389
6.04998	16.9512
6.04293	16.2601
6.0359	15.3006
6.02888	15.044
6.02187	14.9389
6.01489	14.9216
6.00792	14.7215
6.00096	14.5206
5.99403	14.5947
5.98711	14.4822
5.9802	14.1854
5.97331	14.1068
5.96644	13.9192
5.95958	13.4768
5.95274	13.3406
5.94591	13.3198
5.9391	13.5555
5.9323	13.1942
5.92552	12.5077
5.91876	12.2485
5.91201	11.941
5.90528	11.7213
5.89856	11.8331
5.89186	11.475
5.88517	11.2587
5.8785	11.0744
5.87184	10.4263
5.8652	10.125
5.85857	9.82811
5.85196	9.49883
5.84536	9.21087
5.83878	9.03349
5.83221	9.03919
5.82566	9.09276
5.81912	8.82204
5.81259	8.3311
5.80608	8.05768
5.79959	7.88158
5.79311	7.70821
5.78665	7.57516
5.78019	7.51885
5.77376	7.65188
5.76734	7.93417
5.76093	7.79083
5.75453	7.67066
5.74815	7.86435
5.74179	7.8371
5.73543	7.81468
5.7291	7.94681
5.72277	8.11681
5.71646	8.33135
5.71017	8.48906
5.70389	8.46613
5.69762	8.60035
5.69136	8.80216
5.68513	8.86256
5.6789	8.9601
5.67268	9.08995
5.66648	9.18939
5.6603	9.34164
5.65413	9.51272
5.64797	9.75435
5.64182	9.9865
5.63569	9.99458
5.62957	10.0273
5.62347	10.1946
5.61737	10.409
5.61129	10.5437
5.60522	10.6542
5.59917	10.7974
5.59313	10.8849
5.5871	11.1278
5.58109	11.5038
5.57509	11.6406
5.5691	11.6858
5.56312	11.8676
5.55716	12.0117
5.55121	12.1316
5.54528	12.2575
5.53935	12.4767
5.53344	12.6303
5.52754	12.7609
5.52166	12.873
5.51578	12.9531
5.50992	13.0003
5.50407	12.9978
5.49823	12.9613
5.49241	12.9471
5.4866	12.9815
5.4808	13.0157
5.47501	12.9853
5.46923	13.0463
5.46347	13.0745
5.45772	12.94
5.45198	12.8512
5.44625	12.8607
5.44054	12.8604
5.43484	12.7926
5.42914	12.8263
5.42347	13.0747
5.4178	13.0507
5.41214	12.8591
5.4065	12.8099
5.40087	12.8073
5.39525	12.7704
5.38964	12.8133
5.38404	12.9456
5.37846	13.1027
5.37288	13.2591
5.36732	13.4369
5.36177	13.7377
5.35623	14.1208
5.35071	14.5312
5.34519	14.7699
5.33968	15.0354
5.33419	15.4286
5.32871	15.7807
5.32324	16.0785
5.31778	16.4077
5.31233	16.7403
5.30689	17.0388
5.30147	17.4147
5.29605	17.8817
5.29065	18.2996
5.28525	18.7147
5.27987	19.335
5.2745	19.9398
5.26914	20.5266
5.26379	21.2131
5.25845	21.9542
5.25312	22.7248
5.24781	23.4589
5.2425	24.1637
5.23721	24.9247
5.23192	25.5845
5.22665	26.1886
5.22138	26.9029
5.21613	27.7252
5.21089	28.3492
5.20566	28.9587
5.20044	29.7809
5.19522	30.4805
5.19002	31.1268
5.18483	31.8321
5.17965	32.5367
5.17448	33.2253
5.16933	33.8164
5.16418	34.3172
5.15904	34.7589
5.15391	35.1772
5.14879	35.5824
5.14368	35.8356
5.13859	36.0367
5.1335	36.2026
5.12842	36.3286
5.12335	36.4377
5.1183	36.4953
5.11325	36.5454
5.10821	36.5117
5.10318	36.4721
5.09817	36.4073
5.09316	36.3004
5.08816	36.1284
5.08317	35.9593
5.07819	35.7369
5.07322	35.4426
5.06826	35.1258
5.06331	34.8724
5.05837	34.7031
5.05344	34.5661
5.04852	34.4845
5.04361	34.4642
5.03871	34.4777
5.03382	34.6375
5.02894	34.9055
5.02406	35.3127
5.0192	35.8227
5.01435	36.2752
5.0095	36.7991
5.00467	37.3924
4.99984	38.0387
4.99502	38.7698
4.99021	39.5256
4.98542	40.2557
4.98063	40.949
4.97585	41.6209
4.97108	42.3175
4.96632	43.0495
4.96156	43.7732
4.95682	44.5475
4.95209	45.1417
4.94736	45.7078
4.94264	46.3922
4.93794	47.1073
4.93324	47.7757
4.92855	48.4186
4.92387	48.9593
4.9192	49.4897
4.91453	50.1259
4.90988	50.8039
4.90524	51.4247
4.9006	52.0236
4.89597	52.5816
4.89135	53.0274
4.88674	53.4855
4.88214	53.9656
4.87755	54.3842
4.87296	54.7865
4.86839	55.1864
4.86382	55.5875
4.85926	55.942
4.85471	56.2294
4.85017	56.4588
4.84564	56.8671
4.84111	57.2312
4.8366	57.5128
4.83209	57.8501
4.82759	58.146
4.8231	58.4235
4.81862	58.7038
4.81415	58.9222
4.80968	59.1577
4.80522	59.4148
4.80077	59.6287
4.79633	59.8068
4.7919	59.9795
4.78747	60.1831
4.78306	60.4291
4.77865	60.5809
4.77425	60.7875
4.76986	61.0181
4.76547	61.2113
4.7611	61.4437
4.75673	61.7635
4.75237	61.9239
4.74802	61.9967
4.74367	62.2013
4.73934	62.3936
4.73501	62.5746
4.73069	62.7893
4.72638	62.905
4.72207	62.965
4.71777	63.044
4.71348	63.0697
4.7092	63.1013
4.70493	63.1056
4.70066	63.1111
4.69641	63.0522
4.69216	62.9574
4.68791	62.9861
4.68368	63.033
4.67945	63.0465
4.67523	62.9921
4.67102	62.953
4.66682	62.9773
4.66262	63.0632
4.65843	63.2022
4.65425	63.3564
4.65007	63.5426
4.64591	63.7646
4.64175	63.9644
4.6376	64.2087
4.63345	64.4747
4.62932	64.6698
4.62519	64.9074
4.62106	65.1767
4.61695	65.3707
4.61284	65.574
4.60874	65.7801
4.60465	65.9692
4.60056	66.1037
4.59648	66.2814
4.59241	66.4772
4.58835	66.718
4.58429	66.8978
4.58024	67.1163
4.5762	67.3444
4.57216	67.5468
4.56814	67.7588
4.56411	67.9499
4.5601	68.0608
4.55609	68.2261
4.55209	68.4168
4.5481	68.6206
4.54411	68.8332
4.54013	68.9603
4.53616	69.0562
4.5322	69.2058
4.52824	69.3114
4.52429	69.4177
4.52034	69.563
4.51641	69.6682
4.51247	69.7507
4.50855	69.8915
4.50463	70.0211
4.50072	70.1017
4.49682	70.1404
4.49292	70.1676
4.48903	70.2118
4.48515	70.2857
4.48127	70.4004
4.4774	70.4962
4.47354	70.5477
4.46968	70.6179
4.46584	70.6597
4.46199	70.7432
4.45815	70.8118
4.45432	70.8704
4.4505	70.8608
4.44668	70.8782
4.44287	70.9937
4.43907	71.0415
4.43527	71.0608
4.43148	71.1262
4.4277	71.2012
4.42392	71.2587
4.42015	71.3338
4.41638	71.3701
4.41262	71.4364
4.40887	71.6355
4.40513	71.6687
4.40139	71.5909
4.39765	71.6204
4.39393	71.748
4.39021	71.862
4.38649	71.9676
4.38278	72.0981
4.37908	72.2187
4.37539	72.3309
4.3717	72.4128
4.36801	72.4058
4.36434	72.4429
4.36067	72.5341
4.357	72.6058
4.35335	72.6105
4.34969	72.6571
4.34605	72.8031
4.34241	72.9388
4.33877	72.9761
4.33514	73.0393
4.33152	73.0955
4.32791	73.1877
4.3243	73.3026
4.32069	73.34
4.3171	73.3082
4.31351	73.3688
4.30992	73.4543
4.30634	73.4882
4.30277	73.5715
4.2992	73.6716
4.29564	73.6971
4.29208	73.7367
4.28853	73.8041
4.28499	73.8886
4.28145	73.9574
4.27792	74.0561
4.27439	74.0863
4.27087	74.1055
4.26735	74.157
4.26384	74.2272
4.26034	74.3046
4.25684	74.4179
4.25335	74.4412
4.24986	74.4255
4.24638	74.5124
4.24291	74.5662
4.23944	74.539
4.23598	74.5418
4.23252	74.5766
4.22906	74.6926
4.22562	74.7763
4.22218	74.8128
4.21874	74.84
4.21531	74.9096
4.21189	74.9216
4.20847	74.8717
4.20506	74.9281
4.20165	75.0255
4.19825	75.0496
4.19485	75.0609
4.19146	75.0314
4.18807	75.0391
4.18469	75.0095
4.18132	75.0242
4.17795	75.033
4.17458	75.0408
4.17123	75.0277
4.16787	75.0416
4.16453	75.0803
4.16118	75.0858
4.15785	75.1066
4.15451	75.1622
4.15119	75.066
4.14787	74.9892
4.14455	75.0365
4.14124	75.0858
4.13794	75.1163
4.13464	75.1236
4.13134	75.1182
4.12805	75.1988
4.12477	75.2333
4.12149	75.2122
4.11822	75.2115
4.11495	75.1965
4.11168	75.1588
4.10843	75.2005
4.10517	75.1929
4.10192	75.2136
4.09868	75.2476
4.09545	75.2558
4.09221	75.2005
4.08899	75.2276
4.08576	75.2499
4.08255	75.2421
4.07933	75.2048
4.07613	75.2194
4.07292	75.2335
4.06973	75.2416
4.06654	75.2124
4.06335	75.1686
4.06017	75.1216
4.05699	75.0328
4.05382	75.0248
4.05065	75.0046
4.04749	74.9534
4.04433	74.8896
4.04118	74.7892
4.03803	74.7605
4.03489	74.7441
4.03175	74.6904
4.02862	74.625
4.02549	74.5616
4.02237	74.503
4.01925	74.476
4.01614	74.3084
4.01303	74.155
4.00993	74.1144
4.00683	74.0564
4.00373	73.9591
4.00064	73.8933
3.99756	73.7885
3.99448	73.6826
3.9914	73.5784
3.98833	73.4674
3.98527	73.2921
3.98221	73.1853
3.97915	73.1683
3.9761	73.102
3.97305	72.9676
3.97001	72.829
3.96697	72.7724
3.96394	72.7039
3.96091	72.5925
3.95789	72.5102
3.95487	72.3885
3.95186	72.2618
3.94885	72.1429
3.94584	72.0716
3.94284	72.0727
3.93984	71.9735
3.93685	71.8328
3.93386	71.7596
3.93088	71.6538
3.9279	71.5603
3.92493	71.537
3.92196	71.5287
3.919	71.4299
3.91604	71.4488
3.91308	71.4509
3.91013	71.351
3.90718	71.2927
3.90424	71.2137
3.9013	71.1452
3.89837	71.1134
3.89544	71.0491
3.89252	71.0445
3.8896	71.0083
3.88668	70.9404
3.88377	70.8778
3.88086	70.9301
3.87796	70.9319
3.87506	70.9503
3.87217	70.9886
3.86928	71.0596
3.86639	71.1493
3.86351	71.2259
3.86064	71.3175
3.85776	71.4195
3.8549	71.4807
3.85203	71.5423
3.84917	71.5824
3.84631	71.6323
3.84346	71.7382
3.84062	71.8165
3.83777	71.9351
3.83494	72.0493
3.8321	72.1298
3.82927	72.2823
3.82644	72.4165
3.82362	72.5149
3.82081	72.6461
3.81799	72.7672
3.81518	72.8658
3.81238	72.9686
3.80958	73.0512
3.80678	73.1472
3.80399	73.2696
3.8012	73.3987
3.79841	73.5005
3.79563	73.595
3.79286	73.7055
3.79008	73.8229
3.78731	73.942
3.78455	74.0839
3.78179	74.1915
3.77903	74.3478
3.77628	74.4561
3.77353	74.5192
3.77079	74.5489
3.76805	74.6101
3.76531	74.7437
3.76258	74.8563
3.75985	74.8833
3.75713	74.9087
3.7544	74.998
3.75169	75.0331
3.74898	75.0308
3.74627	75.0547
3.74356	75.078
3.74086	75.0886
3.73816	75.1255
3.73547	75.1502
3.73278	75.1639
3.7301	75.2041
3.72741	75.2008
3.72474	75.167
3.72206	75.1777
3.71939	75.2077
3.71673	75.1391
3.71406	75.0735
3.71141	75.0361
3.70875	75.049
3.7061	75.1215
3.70345	75.0619
3.70081	75.002
3.69817	75.0054
3.69553	74.9763
3.6929	74.9266
3.69027	74.9224
3.68765	74.9176
3.68503	74.8687
3.68241	74.8356
3.6798	74.8469
3.67719	74.8252
3.67458	74.7387
3.67198	74.7529
3.66938	74.7976
3.66678	74.8022
3.66419	74.7649
3.66161	74.7308
3.65902	74.7329
3.65644	74.7733
3.65387	74.7502
3.65129	74.7327
3.64872	74.6949
3.64616	74.6994
3.64359	74.7214
3.64103	74.7848
3.63848	74.7642
3.63593	74.6783
3.63338	74.6276
3.63084	74.6286
3.6283	74.6044
3.62576	74.5566
3.62322	74.4166
3.62069	74.3273
3.61817	74.4271
3.61564	74.3875
3.61312	74.2197
3.61061	74.1266
3.6081	74.0728
3.60559	73.9751
3.60308	73.8845
3.60058	73.7972
3.59808	73.7098
3.59558	73.6239
3.59309	73.5769
3.59061	73.4945
3.58812	73.4933
3.58564	73.6029
3.58316	73.6151
3.58069	73.5833
3.57822	73.5679
3.57575	73.6104
3.57328	73.7246
3.57082	73.8621
3.56836	73.9658
3.56591	74.1209
3.56346	74.2382
3.56101	74.3118
3.55857	74.4412
3.55613	74.6198
3.55369	74.7222
3.55126	74.8879
3.54883	74.999
3.5464	75.0739
3.54397	75.1498
3.54155	75.2898
3.53914	75.4031
3.53672	75.4633
3.53431	75.4993
3.5319	75.532
3.5295	75.5731
3.5271	75.5223
3.5247	75.4677
3.52231	75.4571
3.51991	75.4828
3.51753	75.4762
3.51514	75.3792
3.51276	75.303
3.51038	75.1817
3.50801	75.0332
3.50563	74.9627
3.50327	74.9234
3.5009	74.8737
3.49854	74.8771
3.49618	74.9515
3.49382	74.9575
3.49147	74.9395
3.48912	74.9953
3.48677	75.0151
3.48443	74.9787
3.48209	74.9656
3.47975	74.9476
3.47742	75.0162
3.47509	75.0367
3.47276	74.9756
3.47044	74.9093
3.46812	74.8972
3.4658	75.0062
3.46348	75.0248
3.46117	74.9556
3.45886	74.8709
3.45656	74.756
3.45425	74.6569
3.45195	74.6285
3.44966	74.6432
3.44736	74.6035
3.44507	74.4759
3.44279	74.3663
3.4405	74.2797
3.43822	74.1858
3.43594	74.1141
3.43367	74.0595
3.43139	73.9108
3.42912	73.7862
3.42686	73.5884
3.42459	73.407
3.42233	73.2967
3.42007	73.1765
3.41782	73.1104
3.41557	73.05
3.41332	72.955
3.41108	72.9235
3.40883	72.9266
3.40659	72.8909
3.40435	72.8939
3.40212	72.9722
3.39989	72.9805
3.39766	73.0173
3.39544	73.1062
3.39322	73.0676
3.391	72.9709
3.38878	72.9053
3.38657	72.8468
3.38436	72.7237
3.38215	72.6231
3.37994	72.6107
3.37774	72.6058
3.37554	72.5712
3.37335	72.5467
3.37115	72.5636
3.36896	72.5392
3.36678	72.5693
3.36459	72.7632
3.36241	72.8792
3.36023	72.8421
3.35805	72.8457
3.35588	72.8472
3.35371	72.8902
3.35154	72.9071
3.34938	72.8424
3.34721	72.759
3.34505	72.7855
3.3429	72.8197
3.34074	72.8611
3.33859	72.8903
3.33644	72.8807
3.3343	72.8235
3.33215	72.6809
3.33001	72.6156
3.32788	72.6328
3.32574	72.5976
3.32361	72.4951
3.32148	72.4333
3.31936	72.4056
3.31723	72.357
3.31511	72.3792
3.31299	72.3498
3.31088	72.2812
3.30876	72.2251
3.30665	72.1907
3.30455	72.0468
3.30244	71.863
3.30034	71.7912
3.29824	71.8304
3.29614	71.8265
3.29405	71.694
3.29196	71.6188
3.28987	71.5945
3.28778	71.5084
3.2857	71.4308
3.28362	71.3818
3.28154	71.2721
3.27946	71.2105
3.27739	71.1478
3.27532	71.0145
3.27325	70.9245
3.27119	70.8228
3.26913	70.7249
3.26707	70.6006
3.26501	70.4576
3.26295	70.3513
3.2609	70.1898
3.25885	69.9927
3.2568	69.8802
3.25476	69.8064
3.25272	69.6118
3.25068	69.4727
3.24864	69.4191
3.24661	69.2369
3.24458	69.1063
3.24255	68.9882
3.24052	68.9009
3.2385	68.7035
3.23648	68.4697
3.23446	68.3984
3.23244	68.2793
3.23043	68.0724
3.22841	67.9517
3.2264	67.8553
3.2244	67.7244
3.22239	67.5685
3.22039	67.5505
3.21839	67.5376
3.2164	67.4988
3.2144	67.4154
3.21241	67.25
3.21042	67.1334
3.20844	67.0229
3.20645	66.8223
3.20447	66.7072
3.20249	66.6767
3.20051	66.6397
3.19854	66.5038
3.19657	66.3586
3.1946	66.2176
3.19263	66.1474
3.19067	66.067
3.1887	65.9725
3.18674	65.8539
3.18479	65.6568
3.18283	65.485
3.18088	65.3869
3.17893	65.3135
3.17698	65.1798
3.17504	65.0045
3.17309	64.9201
3.17115	64.9113
3.16921	64.7623
3.16728	64.7056
3.16534	64.6865
3.16341	64.5398
3.16148	64.3577
3.15956	64.2399
3.15763	64.2084
3.15571	64.1379
3.15379	64.041
3.15187	63.8594
3.14996	63.7118
3.14805	63.596
3.14614	63.3853
3.14423	63.2442
3.14232	63.1578
3.14042	62.9897
3.13852	62.8541
3.13662	62.7285
3.13472	62.552
3.13283	62.4038
3.13094	62.3328
3.12905	62.2357
3.12716	62.0304
3.12528	61.8659
3.12339	61.7681
3.12151	61.6336
3.11964	61.4741
3.11776	61.2263
3.11589	61.1042
3.11401	61.0465
3.11214	60.8855
3.11028	60.7018
3.10841	60.5919
3.10655	60.4922
3.10469	60.3903
3.10283	60.2516
3.10098	60.0647
3.09912	59.9924
3.09727	59.9162
3.09542	59.7929
3.09358	59.5954
3.09173	59.4582
3.08989	59.2851
3.08805	59.1501
3.08621	59.064
3.08437	58.9456
3.08254	58.8172
3.08071	58.6949
3.07888	58.6008
3.07705	58.3922
3.07523	58.1649
3.0734	58.0167
3.07158	57.8463
3.06977	57.6365
3.06795	57.5421
3.06613	57.3968
3.06432	57.1331
3.06251	56.907
3.0607	56.7203
3.0589	56.4934
3.0571	56.4304
3.05529	56.2786
3.05349	55.9427
3.0517	55.8212
3.0499	55.7855
3.04811	55.6507
3.04632	55.563
3.04453	55.5151
3.04274	55.3861
3.04096	55.249
3.03918	55.095
3.0374	54.9329
3.03562	54.7084
3.03384	54.5313
3.03207	54.5724
3.03029	54.5796
3.02852	54.403
3.02676	54.1507
3.02499	54.0948
3.02323	54.0836
3.02146	53.8751
3.0197	53.6328
3.01795	53.5249
3.01619	53.4878
3.01444	53.401
3.01269	53.2337
3.01094	53.1206
3.00919	52.9524
3.00744	52.8126
3.0057	52.6472
3.00396	52.4154
3.00222	52.2147
3.00048	51.9952
2.99875	51.7781
2.99701	51.6747
2.99528	51.5807
2.99355	51.474
2.99183	51.3457
2.9901	51.0709
2.98838	50.7965
2.98666	50.6784
2.98494	50.5453
2.98322	50.4254
2.9815	50.2627
2.97979	50.0098
2.97808	49.7707
2.97637	49.6104
2.97466	49.4708
2.97295	49.3488
2.97125	49.2289
2.96955	49.015
2.96785	48.7978
2.96615	48.5848
2.96446	48.3515
2.96276	48.0833
2.96107	47.8461
2.95938	47.6921
2.95769	47.3371
2.95601	46.9269
2.95432	46.607
2.95264	46.2955
2.95096	45.9444
2.94928	45.44
2.9476	44.8955
2.94593	44.5798
2.94425	44.1733
2.94258	43.6371
2.94092	43.1455
2.93925	42.7199
2.93758	42.3775
2.93592	41.9741
2.93426	41.6699
2.9326	41.2877
2.93094	40.7392
2.92928	40.3023
2.92763	40.0878
2.92598	39.8324
2.92433	39.3324
2.92268	38.898
2.92103	38.5399
2.91939	38.0526
2.91775	37.6428
2.9161	37.1206
2.91447	36.4845
2.91283	35.7266
2.91119	34.9222
2.90956	34.0509
2.90793	33.1032
2.9063	31.8461
2.90467	30.6548
2.90304	29.5034
2.90142	28.1846
2.89979	26.8639
2.89817	25.4409
2.89656	24.0845
2.89494	22.8195
2.89332	21.4044
2.89171	19.9289
2.8901	18.4854
2.88849	17.0268
2.88688	15.6118
2.88527	14.2123
2.88367	12.8397
2.88206	11.5895
2.88046	10.5267
2.87886	9.64514
2.87727	8.97731
2.87567	8.48012
2.87408	8.0661
2.87248	7.75001
2.87089	7.60653
2.8693	7.56747
2.86772	7.70181
2.86613	7.82605
2.86455	7.98328
2.86297	8.23551
2.86139	8.95466
2.85981	9.66174
2.85823	10.4883
2.85666	11.5742
2.85508	12.824
2.85351	14.1627
2.85194	15.5969
2.85038	17.3379
2.84881	19.431
2.84724	21.6101
2.84568	23.8283
2.84412	26.2111
2.84256	28.5064
2.841	30.5292
2.83945	32.3341
2.83789	34.1579
2.83634	35.7031
2.83479	36.901
2.83324	37.948
2.83169	38.9205
2.83015	39.898
2.82861	40.6445
2.82706	41.2644
2.82552	41.9568
2.82398	42.5638
2.82245	43.1072
2.82091	43.5568
2.81938	43.8678
2.81784	43.9389
2.81631	44.0649
2.81479	44.3829
2.81326	44.6215
2.81173	44.7556
2.81021	44.8831
2.80869	45.0197
2.80716	45.2804
2.80565	45.7115
2.80413	46.33
2.80261	46.7229
2.8011	46.8063
2.79959	47.0538
2.79808	47.3285
2.79657	47.6072
2.79506	47.9811
2.79355	48.3653
2.79205	48.6775
2.79055	49.09
2.78904	49.8165
2.78754	50.6254
2.78605	50.7033
2.78455	50.6093
2.78306	50.9973
2.78156	51.3574
2.78007	51.4631
2.77858	51.6334
2.77709	51.9668
2.77561	52.1489
2.77412	52.3689
2.77264	52.8842
2.77116	53.5051
2.76968	53.6299
2.7682	53.8344
2.76672	53.9513
2.76524	54.0274
2.76377	54.6749
2.7623	54.9106
2.76083	54.4847
2.75936	54.3884
2.75789	54.8009
2.75642	56.0484
2.75496	56.5889
2.7535	55.6123
2.75203	55.42
2.75057	55.3782
2.74912	55.4855
2.74766	55.6912
2.7462	55.8587
2.74475	56.0609
2.7433	56.5115
2.74185	57.3738
2.7404	58.218
2.73895	57.8713
2.7375	56.7951
2.73606	56.8417
2.73462	57.1927
2.73318	56.8054
2.73174	56.6103
2.7303	56.5873
2.72886	56.675
2.72742	56.8588
2.72599	57.587
2.72456	58.5027
2.72313	58.0286
2.7217	58.5392
2.72027	59.2868
2.71884	58.1535
2.71742	57.7261
2.71599	57.517
2.71457	57.5382
2.71315	57.9043
2.71173	59.1514
2.71032	59.6284
2.7089	58.9593
2.70748	58.4242
2.70607	58.2967
2.70466	58.4622
2.70325	58.834
2.70184	59.4321
2.70043	59.4608
2.69903	59.3513
2.69762	59.6714
2.69622	60.3962
2.69482	61.2474
2.69342	61.4524
2.69202	60.7405
2.69062	60.5595
2.68923	60.8151
2.68783	61.0929
2.68644	61.4022
2.68505	61.6078
2.68366	61.7661
2.68227	61.5633
2.68089	61.7041
2.6795	62.688
2.67812	62.9635
2.67673	63.2097
2.67535	62.7307
2.67397	62.1111
2.6726	62.3579
2.67122	64.3361
2.66984	64.7162
2.66847	63.5318
2.6671	64.4575
2.66572	64.878
2.66435	64.1845
2.66299	63.0235
2.66162	62.9824
2.66025	63.1693
2.65889	63.1941
2.65753	62.803
2.65616	63.0944
2.65481	63.358
2.65345	63.6765
2.65209	63.7319
2.65073	63.307
2.64938	63.1813
2.64803	63.4186
2.64667	63.8517
2.64532	64.1851
2.64397	63.9404
2.64263	63.9035
2.64128	63.8486
2.63994	63.9097
2.63859	63.9613
2.63725	64.0236
2.63591	64.1475
2.63457	64.603
2.63323	64.6381
2.6319	64.9964
2.63056	65.9417
2.62923	65.0898
2.62789	64.7035
2.62656	65.2639
2.62523	64.4558
2.6239	63.861
2.62258	63.8976
2.62125	64.8995
2.61993	65.1406
2.6186	64.4259
2.61728	65.0642
2.61596	64.6465
2.61464	63.6989
2.61332	63.6677
2.61201	63.513
2.61069	63.7145
2.60938	63.9553
2.60807	64.0344
2.60675	64.6538
2.60544	65.3157
2.60414	64.5122
2.60283	63.9667
2.60152	63.8832
2.60022	63.5702
2.59891	63.3714
2.59761	63.7199
2.59631	65.097
2.59501	66.9429
2.59371	65.7
2.59242	63.7538
2.59112	63.3407
2.58983	63.6225
2.58853	63.8849
2.58724	64.1511
2.58595	63.9885
2.58466	64.566
2.58338	64.7932
2.58209	64.2985
2.5808	64.4581
2.57952	64.2814
2.57824	64.7394
2.57695	65.4399
2.57567	65.597
2.5744	66.2139
2.57312	66.6394
2.57184	66.2254
2.57057	66.8158
2.56929	67.2963
2.56802	66.963
2.56675	66.8704
2.56548	67.5898
2.56421	68.3272
2.56294	68.6787
2.56168	69.0161
2.56041	68.7373
2.55915	68.1431
2.55789	67.9255
2.55662	67.8857
2.55536	67.9199
2.5541	68.1463
2.55285	68.2983
2.55159	68.1424
2.55034	67.7971
2.54908	67.5779
2.54783	67.5435
2.54658	67.3281
2.54533	67.1184
2.54408	67.1946
2.54283	67.2843
2.54159	66.9666
2.54034	66.7238
2.5391	66.6579
2.53785	66.6477
2.53661	66.7008
2.53537	66.5313
2.53413	66.4223
2.53289	66.6871
2.53166	66.7165
2.53042	66.625
2.52919	66.7529
2.52795	66.8745
2.52672	66.9269
2.52549	67.1119
2.52426	67.1517
2.52303	67.1621
2.52181	67.2189
2.52058	67.3543
2.51936	67.4372
2.51813	67.4054
2.51691	67.4365
2.51569	67.4923
2.51447	67.4606
2.51325	67.4703
2.51203	67.4298
2.51082	67.3472
2.5096	67.2624
2.50839	67.2197
2.50717	67.2847
2.50596	67.2559
2.50475	67.1445
2.50354	67.0905
2.50233	66.9666
2.50113	66.7979
2.49992	66.7377
2.49872	66.7267
2.49751	66.7825
2.49631	66.7368
2.49511	66.6165
2.49391	66.5209
2.49271	66.4547
2.49151	66.4126
2.49031	66.3974
2.48912	66.4729
2.48792	66.6528
2.48673	66.8801
2.48554	67.0206
2.48435	67.1515
2.48316	67.1908
2.48197	67.3502
2.48078	67.4722
2.4796	67.5738
2.47841	67.8685
2.47723	68.2095
2.47604	68.4477
2.47486	68.6859
2.47368	68.9122
2.4725	69.1032
2.47132	69.2082
2.47014	69.3279
2.46897	69.4266
2.46779	69.5494
2.46662	69.6025
2.46545	69.7383
2.46427	69.9363
2.4631	69.9932
2.46193	69.9874
2.46077	70.1906
2.4596	70.3586
2.45843	70.4614
2.45727	70.6042
2.4561	70.7638
2.45494	70.8475
2.45378	70.8068
2.45262	70.9101
2.45146	71.1763
2.4503	71.3225
2.44914	71.3724
2.44799	71.4932
2.44683	71.5727
2.44568	71.5037
2.44452	71.4982
2.44337	71.6506
2.44222	71.7164
2.44107	71.5521
2.43992	71.3878
2.43877	71.2534
2.43763	70.9919
2.43648	70.6709
2.43534	70.4053
2.43419	69.9937
2.43305	69.4983
2.43191	69.1437
2.43077	68.6776
2.42963	68.0992
2.42849	67.502
2.42736	66.8563
2.42622	66.2785
2.42509	65.7247
2.42395	65.1023
2.42282	64.1719
2.42169	63.3462
2.42056	62.7217
2.41943	61.9108
2.4183	61.1262
2.41717	60.2089
2.41605	59.3467
2.41492	58.618
2.4138	57.9752
2.41267	57.4648
2.41155	56.8767
2.41043	56.2497
2.40931	55.7053
2.40819	55.3585
2.40707	55.1178
2.40595	54.7444
2.40484	54.3893
2.40372	54.1656
2.40261	53.9518
2.4015	53.87
2.40039	53.7905
2.39928	53.7886
2.39817	53.8614
2.39706	54.2039
2.39595	54.6448
2.39484	55.1313
2.39374	55.7833
2.39263	56.6208
2.39153	57.5629
2.39043	58.4472
2.38932	59.4001
2.38822	60.4701
2.38712	61.492
2.38603	62.554
2.38493	63.6892
2.38383	64.7376
2.38274	65.7927
2.38164	66.8375
2.38055	67.8569
2.37946	68.6862
2.37836	69.3613
2.37727	70.196
2.37618	71.1599
2.3751	71.9047
2.37401	72.3798
2.37292	72.838
2.37184	73.3655
2.37075	73.8364
2.36967	74.2476
2.36859	74.6683
2.3675	75.0582
2.36642	75.3631
2.36534	75.7536
2.36427	75.9996
2.36319	75.9733
2.36211	76.1426
2.36104	76.2818
2.35996	76.3914
2.35889	76.5452
2.35781	76.586
2.35674	76.6548
2.35567	76.7465
2.3546	76.771
2.35353	76.8384
2.35247	76.8563
2.3514	76.9551
2.35033	77.0686
2.34927	77.0489
2.3482	77.0089
2.34714	76.95
2.34608	76.978
2.34502	77.0511
2.34396	77.0714
2.3429	77.058
2.34184	77.0683
2.34078	76.9725
2.33973	77.043
2.33867	77.0909
2.33762	76.8385
2.33656	76.7115
2.33551	76.487
2.33446	76.3928
2.33341	76.4834
2.33236	76.3966
2.33131	76.2876
2.33026	76.1795
2.32922	76
2.32817	75.8667
2.32712	75.7193
2.32608	75.5292
2.32504	75.298
2.324	75.1646
2.32295	74.9676
2.32191	74.6847
2.32087	74.352
2.31984	74.0886
2.3188	73.8507
2.31776	73.5454
2.31673	73.3397
2.31569	73.1432
2.31466	72.827
2.31362	72.507
2.31259	72.3491
2.31156	72.2565
2.31053	72.0247
2.3095	71.744
2.30847	71.6026
2.30745	71.43
2.30642	71.1238
2.3054	71.0145
2.30437	71.0512
2.30335	71.0029
2.30232	70.9159
2.3013	70.7409
2.30028	70.6776
2.29926	70.7574
2.29824	70.791
2.29722	70.8545
2.29621	70.9519
2.29519	70.9817
2.29417	71.1799
2.29316	71.4577
2.29215	71.4795
2.29113	71.4143
2.29012	71.4732
2.28911	71.5289
2.2881	71.4013
2.28709	71.3227
2.28608	71.3525
2.28507	71.3654
2.28407	71.2278
2.28306	71.0161
2.28206	70.8257
2.28105	70.616
2.28005	70.3307
2.27905	70.1258
2.27805	69.7388
2.27705	69.2102
2.27605	68.8169
2.27505	68.3873
2.27405	67.7991
2.27305	67.2977
2.27206	66.7713
2.27106	66.0617
2.27007	65.3649
2.26907	64.6907
2.26808	64.1041
2.26709	63.5808
2.2661	63.0416
2.26511	62.5581
2.26412	62.352
2.26313	62.3639
2.26214	62.4346
2.26116	62.6592
2.26017	63.1312
2.25919	63.6742
2.2582	64.2294
2.25722	64.7327
2.25624	65.3227
2.25526	65.9209
2.25428	66.4303
2.2533	66.7999
2.25232	67.0742
2.25134	67.4803
2.25036	67.7348
2.24939	67.8017
2.24841	67.9469
2.24744	68.0174
2.24646	68.0716
2.24549	68.0646
2.24452	68.2171
2.24355	68.428
2.24257	68.3663
2.24161	68.3761
2.24064	68.3412
2.23967	68.2655
2.2387	68.2287
2.23774	68.1138
2.23677	67.9546
2.23581	67.8431
2.23484	67.701
2.23388	67.5444
2.23292	67.5308
2.23196	67.566
2.231	67.3391
2.23004	67.0645
2.22908	66.9789
2.22812	66.9834
2.22716	66.7518
2.22621	66.639
2.22525	66.5807
2.2243	66.5559
2.22334	66.5686
2.22239	66.5485
2.22144	66.4243
2.22049	66.4051
2.21953	66.4903
2.21859	66.7094
2.21764	66.9321
2.21669	67.071
2.21574	67.2281
2.21479	67.2954
2.21385	67.274
2.2129	67.2249
2.21196	67.0165
2.21102	66.6962
2.21007	66.1837
2.20913	65.411
2.20819	64.4883
2.20725	63.6168
2.20631	62.5583
2.20537	61.4563
2.20444	60.4477
2.2035	59.5389
2.20256	58.7035
2.20163	58.0271
2.20069	57.7944
2.19976	57.8741
2.19883	57.9387
2.19789	58.4643
2.19696	59.4311
2.19603	60.4992
2.1951	61.793
2.19417	63.1403
2.19325	64.1958
2.19232	65.2101
2.19139	66.4389
2.19047	67.6772
2.18954	68.5973
2.18862	69.3683
2.18769	70.2038
2.18677	70.9032
2.18585	71.7301
2.18493	72.4413
2.18401	72.8288
2.18309	73.2929
2.18217	73.9035
2.18125	74.4275
2.18033	74.8826
2.17942	75.2232
2.1785	75.727
2.17759	76.1897
2.17667	76.4153
2.17576	76.7645
2.17485	77.1589
2.17393	77.5349
2.17302	77.7053
2.17211	77.8938
2.1712	78.2011
2.17029	78.549
2.16939	78.6561
2.16848	78.4946
2.16757	78.6473
2.16667	78.7612
2.16576	78.7804
2.16486	78.912
2.16395	79.19
2.16305	79.2129
2.16215	79.1756
2.16125	79.1652
2.16035	79.2933
2.15945	79.4598
2.15855	79.6294
2.15765	79.6916
2.15675	79.6413
2.15586	79.6871
2.15496	79.6904
2.15406	79.7813
2.15317	79.8605
2.15228	79.9826
2.15138	80.1299
2.15049	80.1066
2.1496	80.1741
2.14871	80.1195
2.14782	79.9975
2.14693	80.1587
2.14604	80.3262
2.14515	80.3076
2.14427	80.3052
2.14338	80.3124
2.14249	80.5519
2.14161	80.6676
2.14072	80.5418
2.13984	80.4361
2.13896	80.4389
2.13808	80.5619
2.13719	80.6292
2.13631	80.5698
2.13543	80.5187
2.13455	80.419
2.13368	80.5041
2.1328	80.6171
2.13192	80.6706
2.13105	80.8122
2.13017	80.8636
2.1293	80.7391
2.12842	80.6475
2.12755	80.5703
2.12668	80.5229
2.1258	80.5643
2.12493	80.636
2.12406	80.6224
2.12319	80.4889
2.12232	80.451
2.12145	80.5799
2.12059	80.5733
2.11972	80.5911
2.11885	80.5494
2.11799	80.6379
2.11712	80.6089
2.11626	80.6838
2.1154	80.9103
2.11453	80.7719
2.11367	80.7183
2.11281	80.8774
2.11195	80.8611
2.11109	80.9104
2.11023	80.9009
2.10937	80.8154
2.10851	80.6796
2.10766	80.4292
2.1068	80.3999
2.10594	80.4634
2.10509	80.5175
2.10423	80.5941
2.10338	80.6249
2.10253	80.437
2.10168	80.4906
2.10082	80.5826
2.09997	80.4918
2.09912	80.6336
2.09827	80.8914
2.09742	80.866
2.09658	80.6551
2.09573	80.7358
2.09488	80.7857
2.09404	80.5766
2.09319	80.4191
2.09235	80.3271
2.0915	80.1837
2.09066	80.0185
2.08982	80.1947
2.08897	80.517
2.08813	80.5857
2.08729	80.6563
2.08645	80.7662
2.08561	80.6062
2.08477	80.4691
2.08394	80.4571
2.0831	80.444
2.08226	80.5455
2.08143	80.4788
2.08059	80.3752
2.07976	80.3171
2.07892	80.0906
2.07809	80.1794
2.07726	80.4443
2.07643	80.5683
2.07559	80.4631
2.07476	80.2698
2.07393	80.0583
2.0731	79.9658
2.07228	80.441
2.07145	80.5827
2.07062	80.2277
2.06979	80.1004
2.06897	80.1967
2.06814	80.2259
2.06732	80.1379
2.06649	80.3034
2.06567	80.254
2.06485	80.1047
2.06403	80.0896
2.0632	80.228
2.06238	80.2816
2.06156	80.1066
2.06074	79.8548
2.05993	79.9636
2.05911	80.1258
2.05829	80.2022
2.05747	80.0599
2.05666	80.102
2.05584	80.1367
2.05503	80.0828
2.05421	80.1062
2.0534	80.2191
2.05259	80.2766
2.05177	80.141
2.05096	79.9636
2.05015	79.9427
2.04934	80.0312
2.04853	80.0766
2.04772	79.9997
2.04691	79.9595
2.04611	80.0429
2.0453	80.2999
2.04449	80.2528
2.04369	80.1742
2.04288	80.1498
2.04208	79.9627
2.04127	79.9434
2.04047	80.042
2.03967	80.0728
2.03886	79.9562
2.03806	79.7429
2.03726	79.7335
2.03646	79.9123
2.03566	79.9995
2.03486	80.1794
2.03407	80.2111
2.03327	80.0723
2.03247	80.043
2.03167	79.8514
2.03088	79.6482
2.03008	79.7511
2.02929	79.9564
2.0285	79.9683
2.0277	79.8762
2.02691	79.9011
2.02612	79.9901
2.02533	79.9817
2.02453	79.9028
2.02374	79.8438
2.02295	79.9246
2.02217	80.1894
2.02138	80.1798
2.02059	79.9412
2.0198	79.9539
2.01902	79.997
2.01823	79.8753
2.01744	79.9021
2.01666	79.9834
2.01588	80.1875
2.01509	80.3298
2.01431	80.3941
2.01353	80.2986
2.01275	80.1464
2.01196	80.002
2.01118	79.982
2.0104	80.0465
2.00963	79.9521
2.00885	79.7928
2.00807	79.7099
2.00729	79.7968
2.00651	79.8324
2.00574	79.6091
2.00496	79.5715
2.00419	79.7635
2.00341	79.7499
2.00264	79.8743
2.00187	80.0779
2.00109	80.0006
2.00032	79.8779
