Name: Vesuvianite Ca_10(Mg,Fe^2+)_2Al_4(Si_2O_7)_2(SiO_4)_5(OH,F)_4
Type: Mineral
Class: Silicates
Subclass: Sorosilicate
Particle Size: 0-45um
Sample No.: SS-3A
Owner: JPL
Wavelength range: IR
Origin: USA, California, Riverside County, Crestmore Quarry
Collected by Burminco
Description: 





Measurement: Hemispherical reflectance
First Column: X
Second Column: Y
X Units:  Wavelength (micrometers)
Y Units:  Reflectance (percent)
First X Value: 15.3853
Last X Value: 2.00032
Number of X Values: 2256
Additional information: ss03aa.txt
 
15.3853	2.64742
15.3397	2.58666
15.2945	2.59813
15.2495	2.43977
15.2048	2.4762
15.1603	2.63033
15.1161	2.52971
15.0722	2.57917
15.0285	2.62604
14.9851	2.58015
14.9419	2.82514
14.8989	3.06777
14.8563	2.78706
14.8138	2.62541
14.7716	2.85895
14.7296	3.24214
14.6879	3.47684
14.6464	3.43627
14.6052	3.01127
14.5641	2.92342
14.5233	3.21802
14.4828	3.32992
14.4424	3.30271
14.4023	3.32443
14.3624	3.54821
14.3227	3.85074
14.2833	3.87837
14.244	3.94306
14.205	4.04083
14.1662	4.10915
14.1276	4.04436
14.0892	3.64632
14.051	3.25047
14.0131	2.97258
13.9753	2.8897
13.9377	3.43547
13.9004	4.11814
13.8632	4.50372
13.8262	4.7454
13.7895	4.91479
13.7529	5.07328
13.7165	5.15755
13.6803	5.20861
13.6443	5.23519
13.6085	5.13401
13.5729	4.97529
13.5374	4.86154
13.5022	5.03323
13.4671	5.10816
13.4322	5.04271
13.3975	5.04488
13.363	5.22542
13.3286	5.25797
13.2944	5.33591
13.2604	5.49122
13.2266	5.52907
13.193	5.55789
13.1595	5.59626
13.1262	5.70434
13.093	5.84974
13.06	5.87353
13.0272	5.7023
12.9946	5.6195
12.9621	5.59257
12.9298	5.60595
12.8976	5.58384
12.8656	5.43914
12.8337	5.40729
12.8021	5.33586
12.7705	5.24367
12.7391	5.25679
12.7079	5.30617
12.6769	5.3154
12.6459	5.11646
12.6152	5.08448
12.5845	5.11826
12.5541	4.9734
12.5238	4.88925
12.4936	5.05939
12.4635	5.10255
12.4337	5.16874
12.4039	5.20396
12.3743	5.07484
12.3448	4.98268
12.3155	5.04501
12.2863	5.05944
12.2573	5.07427
12.2284	5.07939
12.1996	5.11657
12.171	5.29303
12.1425	5.35663
12.1141	5.33878
12.0859	5.51735
12.0578	5.74497
12.0298	5.89329
12.0019	5.71893
11.9742	5.68439
11.9466	5.8301
11.9192	5.83564
11.8918	5.81407
11.8646	5.80492
11.8375	5.8484
11.8106	5.62116
11.7837	5.49462
11.757	5.72221
11.7304	5.89935
11.7039	5.95622
11.6776	5.88232
11.6513	5.87832
11.6252	5.88336
11.5992	5.80424
11.5733	5.7384
11.5475	5.75259
11.5219	5.73932
11.4963	5.63881
11.4709	5.48107
11.4455	5.46696
11.4203	5.57349
11.3952	5.69045
11.3702	5.89693
11.3454	5.96392
11.3206	6.02075
11.2959	6.19375
11.2714	6.32769
11.2469	6.19614
11.2226	5.96894
11.1983	5.99261
11.1742	5.97901
11.1502	5.9118
11.1263	5.76942
11.1024	5.64905
11.0787	5.6874
11.0551	5.78159
11.0316	5.8684
11.0081	6.09286
10.9848	6.26758
10.9616	6.39743
10.9385	6.48405
10.9154	6.42877
10.8925	6.41716
10.8697	6.48823
10.8469	6.38776
10.8243	6.25184
10.8017	6.06475
10.7793	5.84856
10.7569	5.75478
10.7346	5.82779
10.7125	5.86554
10.6904	5.67072
10.6684	5.57698
10.6465	5.66946
10.6247	5.67629
10.6029	5.76616
10.5813	5.72911
10.5597	5.5606
10.5383	5.62932
10.5169	5.9417
10.4956	6.16968
10.4744	6.33159
10.4533	6.45862
10.4323	6.52302
10.4113	6.626
10.3904	6.64107
10.3697	6.58556
10.349	6.63399
10.3284	6.75276
10.3078	6.74299
10.2874	6.67396
10.267	6.59108
10.2467	6.4884
10.2265	6.48546
10.2064	6.49476
10.1863	6.46951
10.1663	6.38833
10.1464	6.19571
10.1266	6.11369
10.1069	6.09511
10.0872	5.9927
10.0676	5.89093
10.0481	5.87465
10.0287	5.91137
10.0093	6.24336
9.99005	6.60486
9.97084	6.8565
9.95169	7.26516
9.93263	7.71085
9.91364	8.03641
9.89472	8.37632
9.87587	8.83047
9.8571	9.42586
9.83839	9.85459
9.81976	10.1516
9.80119	10.3281
9.78271	10.5215
9.76428	10.8208
9.74592	11.1374
9.72764	11.1912
9.70943	11.2011
9.69128	11.3412
9.6732	11.6204
9.65518	11.8605
9.63724	11.7982
9.61935	11.7072
9.60155	11.7541
9.5838	11.7881
9.56611	11.7904
9.5485	11.6217
9.53094	11.4441
9.51345	11.2202
9.49604	10.9492
9.47867	10.8059
9.46137	10.4466
9.44414	10.0294
9.42697	9.70791
9.40986	9.15203
9.39281	8.61439
9.37583	8.18476
9.35891	7.86512
9.34204	7.61355
9.32524	7.46353
9.3085	7.4265
9.29182	7.3274
9.27519	7.07902
9.25863	6.7953
9.24213	6.61683
9.22568	6.49105
9.2093	6.40435
9.19297	6.41142
9.17669	6.39957
9.16048	6.31782
9.14433	6.26142
9.12823	6.29231
9.11218	6.3124
9.0962	6.29159
9.08027	6.40497
9.06439	6.46543
9.04858	6.52039
9.03281	6.46737
9.0171	6.39986
9.00145	6.5495
8.98585	6.68381
8.9703	6.70794
8.9548	6.72296
8.93937	6.83479
8.92398	6.83909
8.90865	6.91859
8.89337	7.03728
8.87814	7.08471
8.86296	7.1261
8.84784	7.35447
8.83277	7.46958
8.81774	7.57259
8.80277	7.85014
8.78786	7.94773
8.77298	7.93964
8.75816	7.97803
8.7434	8.00568
8.72868	8.0902
8.714	8.09551
8.69938	8.18599
8.68481	8.31502
8.67029	8.37063
8.65581	8.28781
8.64139	8.29911
8.62701	8.4939
8.61268	8.52395
8.5984	8.42249
8.58416	8.59504
8.56997	8.89905
8.55583	9.16983
8.54174	9.50969
8.52769	9.72102
8.51368	9.84897
8.49973	9.89492
8.48582	9.92173
8.47195	10.0098
8.45813	10.2809
8.44436	10.6385
8.43062	11.0162
8.41693	11.2999
8.4033	11.6416
8.3897	12.029
8.37614	12.4002
8.36264	12.7675
8.34917	13.0927
8.33574	13.3899
8.32236	13.657
8.30903	13.8675
8.29573	14.1227
8.28248	14.358
8.26927	14.4064
8.2561	14.5309
8.24298	14.7748
8.2299	15.0125
8.21685	15.1973
8.20385	15.3538
8.19089	15.6083
8.17797	15.6636
8.16509	15.6007
8.15225	15.6443
8.13946	15.6817
8.1267	15.7483
8.11398	15.713
8.10131	15.7424
8.08867	15.9248
8.07606	15.9821
8.0635	15.9497
8.05099	16.1683
8.0385	16.5567
8.02606	16.842
8.01366	16.9245
8.00129	16.9623
7.98896	17.0515
7.97667	17.2255
7.96442	17.3404
7.9522	17.3388
7.94002	17.3342
7.92788	17.2702
7.91578	17.1046
7.90371	16.9874
7.89168	16.9893
7.87969	17.0799
7.86773	17.2107
7.85581	17.4063
7.84392	17.4838
7.83207	17.4368
7.82026	17.4565
7.80849	17.4945
7.79674	17.5789
7.78503	17.7049
7.77337	17.8467
7.76173	18.0216
7.75012	18.1275
7.73856	18.1248
7.72703	17.9975
7.71553	17.7711
7.70406	17.6141
7.69263	17.5496
7.68123	17.4574
7.66987	17.3542
7.65855	17.0519
7.64725	16.7505
7.63598	16.5995
7.62475	16.4512
7.61356	16.2745
7.60239	16.1745
7.59126	16.1446
7.58017	16.1912
7.5691	16.2033
7.55806	16.1847
7.54707	16.1516
7.5361	16.1775
7.52516	16.2307
7.51425	16.24
7.50338	16.1936
7.49253	16.1802
7.48172	16.131
7.47094	15.9878
7.46019	15.7449
7.44947	15.5556
7.43879	15.3165
7.42813	15.0506
7.4175	14.8068
7.4069	14.5104
7.39634	14.2126
7.3858	13.9611
7.37529	13.7757
7.36482	13.5368
7.35437	13.1474
7.34396	12.7852
7.33357	12.5244
7.32321	12.2093
7.31288	11.8928
7.30258	11.6523
7.29231	11.4827
7.28207	11.3828
7.27185	11.3202
7.26167	11.21
7.25152	11.1294
7.24139	11.0489
7.23129	10.932
7.22122	10.8367
7.21117	10.7785
7.20116	10.6702
7.19117	10.6174
7.18121	10.6046
7.17128	10.6469
7.16137	10.5703
7.1515	10.4545
7.14164	10.4252
7.13182	10.5169
7.12203	10.82
7.11225	11.1433
7.10251	11.3721
7.0928	11.5295
7.08311	11.5363
7.07344	11.4853
7.06381	11.4639
7.0542	11.4279
7.04461	11.3808
7.03506	11.1622
7.02552	11.0755
7.01601	11.0523
7.00653	10.9178
6.99708	10.8323
6.98765	10.8269
6.97824	10.8294
6.96886	10.9497
6.95951	11.042
6.95018	10.7008
6.94087	10.522
6.9316	10.6302
6.92234	10.7212
6.91311	10.8124
6.90391	10.8846
6.89473	10.8001
6.88557	10.6224
6.87644	10.5106
6.86733	10.6017
6.85824	10.3393
6.84918	9.79778
6.84015	9.41552
6.83114	9.32
6.82215	9.29984
6.81319	9.20742
6.80424	9.34423
6.79532	9.82497
6.78643	10.0683
6.77756	10.0363
6.76871	10.1773
6.75989	10.482
6.75109	10.9119
6.74231	11.2589
6.73355	11.7197
6.72482	12.288
6.71611	12.87
6.70742	13.1937
6.69875	13.4059
6.69011	13.8885
6.68149	14.3113
6.67289	14.4876
6.66431	14.7568
6.65576	15.0316
6.64722	15.7306
6.63871	16.6517
6.63022	16.7051
6.62175	16.5439
6.61331	16.7936
6.60488	17.116
6.59648	17.6311
6.5881	18.0439
6.57974	18.519
6.5714	19.0127
6.56308	18.9953
6.55478	19.1032
6.54651	19.1676
6.53825	19.1897
6.53001	19.2683
6.5218	19.4716
6.51361	19.2843
6.50544	19.3472
6.49729	19.979
6.48915	19.9568
6.48104	19.4483
6.47295	19.1605
6.46488	18.8219
6.45683	18.5425
6.4488	18.1745
6.44079	17.6247
6.4328	17.0037
6.42482	16.4237
6.41687	16.3315
6.40894	15.6897
6.40103	14.8903
6.39314	14.8318
6.38526	15.2501
6.37741	16.076
6.36957	17.1249
6.36176	17.9189
6.35396	19.0373
6.34618	20.5458
6.33843	21.1715
6.33069	21.3678
6.32297	22.0291
6.31527	22.5731
6.30758	22.9671
6.29992	23.3089
6.29227	23.7717
6.28465	24.3758
6.27704	24.8604
6.26945	25.1793
6.26188	25.3665
6.25432	25.4733
6.24679	25.6607
6.23927	25.6915
6.23177	25.6291
6.22429	25.6596
6.21683	25.7608
6.20938	25.6877
6.20195	25.4937
6.19454	25.5545
6.18715	26.0532
6.17978	25.747
6.17242	25.2654
6.16508	25.3787
6.15776	25.3998
6.15045	25.2006
6.14317	25.1763
6.1359	25.0467
6.12864	24.9669
6.12141	25.3202
6.11419	25.7993
6.10699	25.4381
6.0998	24.9987
6.09263	24.8611
6.08549	24.974
6.07835	25.5241
6.07123	25.7731
6.06413	25.4195
6.05705	25.9123
6.04998	27.0979
6.04293	26.4952
6.0359	25.6913
6.02888	25.5468
6.02187	25.7592
6.01489	26.2042
6.00792	26.214
6.00096	26.2712
5.99403	26.7048
5.98711	26.9317
5.9802	26.8374
5.97331	27.059
5.96644	27.2288
5.95958	27.0076
5.95274	27.1164
5.94591	27.5216
5.9391	28.4277
5.9323	28.4043
5.92552	27.7641
5.91876	27.7024
5.91201	27.7377
5.90528	27.9893
5.89856	28.7527
5.89186	28.6961
5.88517	28.9179
5.8785	29.0714
5.87184	28.259
5.8652	28.2635
5.85857	28.1533
5.85196	27.903
5.84536	27.7719
5.83878	27.7873
5.83221	28.0244
5.82566	28.45
5.81912	28.2837
5.81259	27.5881
5.80608	27.3149
5.79959	27.1609
5.79311	26.9617
5.78665	26.8863
5.78019	26.8301
5.77376	27.0297
5.76734	27.4584
5.76093	26.9139
5.75453	26.5024
5.74815	26.6151
5.74179	26.4727
5.73543	26.3672
5.7291	26.3039
5.72277	26.3919
5.71646	26.4871
5.71017	26.5213
5.70389	26.1717
5.69762	26.0256
5.69136	26.0783
5.68513	25.9347
5.6789	26.0632
5.67268	26.1442
5.66648	25.9999
5.6603	26.1584
5.65413	26.2748
5.64797	26.3674
5.64182	26.4891
5.63569	26
5.62957	25.498
5.62347	25.2401
5.61737	24.9221
5.61129	24.3707
5.60522	23.6689
5.59917	22.5854
5.59313	20.9067
5.5871	18.8612
5.58109	17.1711
5.57509	16.3961
5.5691	16.1711
5.56312	16.2894
5.55716	17.1657
5.55121	19.0208
5.54528	21.2595
5.53935	23.0709
5.53344	24.2388
5.52754	25.1038
5.52166	25.7466
5.51578	26.1909
5.50992	26.5606
5.50407	26.9192
5.49823	27.2045
5.49241	27.5084
5.4866	27.7467
5.4808	28.1373
5.47501	28.3618
5.46923	28.5972
5.46347	28.8535
5.45772	28.8444
5.45198	28.9061
5.44625	29.1305
5.44054	29.3146
5.43484	29.4542
5.42914	29.7878
5.42347	30.2857
5.4178	30.2429
5.41214	30.0821
5.4065	30.1366
5.40087	30.251
5.39525	30.3886
5.38964	30.5088
5.38404	30.5978
5.37846	30.6914
5.37288	30.8067
5.36732	30.9294
5.36177	31.1037
5.35623	31.4107
5.35071	31.6343
5.34519	31.5586
5.33968	31.567
5.33419	31.6892
5.32871	31.8237
5.32324	31.9769
5.31778	32.1373
5.31233	32.3074
5.30689	32.5068
5.30147	32.6822
5.29605	32.8742
5.29065	33.0561
5.28525	33.1914
5.27987	33.4777
5.2745	33.6842
5.26914	33.8022
5.26379	33.977
5.25845	34.2558
5.25312	34.4977
5.24781	34.6934
5.2425	34.9592
5.23721	35.2268
5.23192	35.3955
5.22665	35.601
5.22138	35.8565
5.21613	36.2849
5.21089	36.5233
5.20566	36.6306
5.20044	36.8736
5.19522	37.0781
5.19002	37.2917
5.18483	37.5182
5.17965	37.7274
5.17448	37.944
5.16933	38.2107
5.16418	38.4558
5.15904	38.7339
5.15391	39.0043
5.14879	39.2401
5.14368	39.4073
5.13859	39.6007
5.1335	39.8317
5.12842	40.0412
5.12335	40.2112
5.1183	40.3763
5.11325	40.5778
5.10821	40.631
5.10318	40.6362
5.09817	40.7672
5.09316	41.2494
5.08816	41.8035
5.08317	42.1583
5.07819	42.2737
5.07322	42.4426
5.06826	42.694
5.06331	42.9272
5.05837	43.1867
5.05344	43.5162
5.04852	43.7293
5.04361	43.9251
5.03871	44.132
5.03382	44.3859
5.02894	44.6302
5.02406	44.9166
5.0192	45.1698
5.01435	45.2803
5.0095	45.4376
5.00467	45.7142
4.99984	45.9839
4.99502	46.2157
4.99021	46.3745
4.98542	46.5221
4.98063	46.7105
4.97585	46.94
4.97108	47.1033
4.96632	47.2941
4.96156	47.5083
4.95682	47.6877
4.95209	47.8598
4.94736	48.0865
4.94264	48.2969
4.93794	48.4423
4.93324	48.6248
4.92855	48.8202
4.92387	48.9773
4.9192	49.1571
4.91453	49.3575
4.90988	49.4995
4.90524	49.6988
4.9006	49.968
4.89597	50.1085
4.89135	50.2491
4.88674	50.3556
4.88214	50.5089
4.87755	50.7097
4.87296	50.8381
4.86839	50.9726
4.86382	51.1514
4.85926	51.3429
4.85471	51.4913
4.85017	51.5838
4.84564	51.7269
4.84111	51.8192
4.8366	51.8876
4.83209	52.0352
4.82759	52.2436
4.8231	52.3877
4.81862	52.5312
4.81415	52.6816
4.80968	52.776
4.80522	52.848
4.80077	52.9445
4.79633	53.0837
4.7919	53.2314
4.78747	53.3729
4.78306	53.4687
4.77865	53.5633
4.77425	53.6461
4.76986	53.6689
4.76547	53.7596
4.7611	53.816
4.75673	53.8357
4.75237	53.8606
4.74802	53.8869
4.74367	53.8777
4.73934	53.9272
4.73501	53.957
4.73069	53.9953
4.72638	53.9382
4.72207	53.7995
4.71777	53.5879
4.71348	53.3225
4.7092	53.0374
4.70493	52.7788
4.70066	52.5311
4.69641	52.2783
4.69216	52.0674
4.68791	51.9574
4.68368	51.8528
4.67945	51.811
4.67523	51.836
4.67102	51.9257
4.66682	51.9881
4.66262	52.0585
4.65843	52.1723
4.65425	52.3979
4.65007	52.6798
4.64591	53.009
4.64175	53.3377
4.6376	53.6027
4.63345	53.8455
4.62932	53.9777
4.62519	54.1627
4.62106	54.3723
4.61695	54.4816
4.61284	54.5784
4.60874	54.6595
4.60465	54.7362
4.60056	54.8001
4.59648	54.8591
4.59241	54.9154
4.58835	54.9329
4.58429	54.9297
4.58024	55.0198
4.5762	55.0646
4.57216	55.0618
4.56814	55.1756
4.56411	55.2547
4.5601	55.1699
4.55609	55.2067
4.55209	55.2681
4.5481	55.2565
4.54411	55.2172
4.54013	55.2237
4.53616	55.2434
4.5322	55.2845
4.52824	55.3384
4.52429	55.3339
4.52034	55.4026
4.51641	55.4641
4.51247	55.4707
4.50855	55.4734
4.50463	55.5081
4.50072	55.6057
4.49682	55.7296
4.49292	55.8363
4.48903	55.9198
4.48515	55.9695
4.48127	56.0037
4.4774	56.035
4.47354	56.1291
4.46968	56.2317
4.46584	56.2955
4.46199	56.3387
4.45815	56.3716
4.45432	56.4558
4.4505	56.5261
4.44668	56.5912
4.44287	56.6209
4.43907	56.7007
4.43527	56.7935
4.43148	56.7978
4.4277	56.8425
4.42392	56.9327
4.42015	56.9949
4.41638	57.0477
4.41262	57.0644
4.40887	57.1316
4.40513	57.1729
4.40139	57.1217
4.39765	57.099
4.39393	57.1807
4.39021	57.3
4.38649	57.3829
4.38278	57.365
4.37908	57.3267
4.37539	57.3034
4.3717	57.3214
4.36801	57.3292
4.36434	57.3819
4.36067	57.3944
4.357	57.3302
4.35335	57.2638
4.34969	57.2319
4.34605	57.3008
4.34241	57.2911
4.33877	57.2388
4.33514	57.2846
4.33152	57.3383
4.32791	57.3324
4.3243	57.3318
4.32069	57.2774
4.3171	57.2281
4.31351	57.259
4.30992	57.2244
4.30634	57.1837
4.30277	57.2258
4.2992	57.2693
4.29564	57.263
4.29208	57.1679
4.28853	57.1133
4.28499	57.127
4.28145	57.1366
4.27792	57.1434
4.27439	57.2
4.27087	57.2735
4.26735	57.2863
4.26384	57.3946
4.26034	57.4534
4.25684	57.4368
4.25335	57.4494
4.24986	57.3025
4.24638	57.1094
4.24291	57.0301
4.23944	56.9602
4.23598	56.9174
4.23252	56.9732
4.22906	57.0637
4.22562	57.0344
4.22218	57.09
4.21874	57.2242
4.21531	57.265
4.21189	57.3252
4.20847	57.3864
4.20506	57.3781
4.20165	57.3945
4.19825	57.3868
4.19485	57.4018
4.19146	57.4643
4.18807	57.4644
4.18469	57.397
4.18132	57.3427
4.17795	57.3052
4.17458	57.2999
4.17123	57.2549
4.16787	57.2289
4.16453	57.206
4.16118	57.1834
4.15785	57.1174
4.15451	57.0636
4.15119	57.0391
4.14787	57.0071
4.14455	56.9563
4.14124	56.9224
4.13794	56.856
4.13464	56.6942
4.13134	56.5856
4.12805	56.5767
4.12477	56.5478
4.12149	56.4865
4.11822	56.3827
4.11495	56.1963
4.11168	56.0377
4.10843	55.9403
4.10517	55.8982
4.10192	55.9061
4.09868	55.8554
4.09545	55.7158
4.09221	55.5286
4.08899	55.374
4.08576	55.2449
4.08255	55.103
4.07933	54.902
4.07613	54.7421
4.07292	54.6223
4.06973	54.4182
4.06654	54.1738
4.06335	53.9958
4.06017	53.6996
4.05699	53.3349
4.05382	53.0533
4.05065	52.5845
4.04749	51.9119
4.04433	51.216
4.04118	50.3892
4.03803	49.4047
4.03489	48.5299
4.03175	47.8169
4.02862	47.0639
4.02549	46.2468
4.02237	45.4462
4.01925	44.6212
4.01614	43.5156
4.01303	42.1093
4.00993	40.4384
4.00683	38.653
4.00373	36.9778
4.00064	35.5124
3.99756	34.191
3.99448	33.0806
3.9914	32.1485
3.98833	31.3081
3.98527	30.7921
3.98221	30.5832
3.97915	30.6148
3.9761	30.8116
3.97305	31.0338
3.97001	31.2486
3.96697	31.601
3.96394	32.0561
3.96091	32.6874
3.95789	33.5203
3.95487	34.6029
3.95186	35.7607
3.94885	36.9242
3.94584	38.0847
3.94284	39.3297
3.93984	40.5894
3.93685	41.3389
3.93386	41.4673
3.93088	41.4678
3.9279	41.6472
3.92493	41.8615
3.92196	41.9913
3.919	42.1537
3.91604	42.3303
3.91308	42.4512
3.91013	42.3856
3.90718	42.3848
3.90424	42.5671
3.9013	42.6788
3.89837	42.6208
3.89544	42.6941
3.89252	42.8186
3.8896	42.861
3.88668	42.8932
3.88377	43.0351
3.88086	43.1787
3.87796	43.2821
3.87506	43.2732
3.87217	43.2512
3.86928	43.3609
3.86639	43.3986
3.86351	43.476
3.86064	43.5365
3.85776	43.6363
3.8549	43.7318
3.85203	43.8131
3.84917	43.9331
3.84631	44.1404
3.84346	44.3107
3.84062	44.4455
3.83777	44.8518
3.83494	45.4324
3.8321	45.9532
3.82927	46.4509
3.82644	46.953
3.82362	47.5252
3.82081	47.979
3.81799	48.4207
3.81518	48.9264
3.81238	49.3371
3.80958	49.7268
3.80678	50.1859
3.80399	50.658
3.8012	51.1145
3.79841	51.5484
3.79563	52.0087
3.79286	52.4011
3.79008	52.6456
3.78731	52.7403
3.78455	52.8054
3.78179	52.8343
3.77903	52.8885
3.77628	52.9461
3.77353	52.9107
3.77079	52.8974
3.76805	52.8648
3.76531	52.7741
3.76258	52.6776
3.75985	52.6159
3.75713	52.6086
3.7544	52.619
3.75169	52.606
3.74898	52.5582
3.74627	52.5221
3.74356	52.5254
3.74086	52.5415
3.73816	52.5703
3.73547	52.6231
3.73278	52.5448
3.7301	52.4605
3.72741	52.4464
3.72474	52.4161
3.72206	52.3427
3.71939	52.2803
3.71673	52.2281
3.71406	52.216
3.71141	52.1739
3.70875	52.0446
3.7061	51.9796
3.70345	51.951
3.70081	51.8636
3.69817	51.7505
3.69553	51.6489
3.6929	51.5379
3.69027	51.5278
3.68765	51.4872
3.68503	51.3266
3.68241	51.1735
3.6798	51.0612
3.67719	50.98
3.67458	50.8973
3.67198	50.8494
3.66938	50.7678
3.66678	50.6521
3.66419	50.5107
3.66161	50.3919
3.65902	50.3106
3.65644	50.2521
3.65387	50.1361
3.65129	50.0094
3.64872	49.8773
3.64616	49.8138
3.64359	49.7061
3.64103	49.5719
3.63848	49.4312
3.63593	49.3241
3.63338	49.2116
3.63084	49.0405
3.6283	48.8828
3.62576	48.7971
3.62322	48.7106
3.62069	48.6314
3.61817	48.555
3.61564	48.4552
3.61312	48.2366
3.61061	48.0658
3.6081	47.9923
3.60559	47.8554
3.60308	47.6793
3.60058	47.5075
3.59808	47.3977
3.59558	47.3231
3.59309	47.1161
3.59061	46.8283
3.58812	46.6279
3.58564	46.4537
3.58316	46.1811
3.58069	45.9746
3.57822	45.7746
3.57575	45.5396
3.57328	45.3584
3.57082	45.1673
3.56836	45.0116
3.56591	44.9745
3.56346	44.897
3.56101	44.7415
3.55857	44.6637
3.55613	44.4882
3.55369	44.2375
3.55126	44.0381
3.54883	43.8549
3.5464	43.6246
3.54397	43.398
3.54155	43.0964
3.53914	42.7513
3.53672	42.3592
3.53431	41.911
3.5319	41.3412
3.5295	40.7342
3.5271	40.0608
3.5247	39.3097
3.52231	38.4667
3.51991	37.6219
3.51753	36.8747
3.51514	36.2301
3.51276	35.6733
3.51038	35.1893
3.50801	34.8799
3.50563	34.4928
3.50327	34.0326
3.5009	33.6632
3.49854	33.3055
3.49618	32.8913
3.49382	32.4939
3.49147	32.1549
3.48912	31.8248
3.48677	31.4631
3.48443	31.0591
3.48209	30.6774
3.47975	30.4974
3.47742	30.44
3.47509	30.4909
3.47276	30.9345
3.47044	31.6394
3.46812	32.3432
3.4658	32.9453
3.46348	33.4302
3.46117	33.7131
3.45886	33.8885
3.45656	33.8944
3.45425	33.8536
3.45195	33.8285
3.44966	33.8179
3.44736	33.7364
3.44507	33.6184
3.44279	33.5588
3.4405	33.476
3.43822	33.3538
3.43594	33.2436
3.43367	33.0736
3.43139	32.9848
3.42912	32.9548
3.42686	32.8608
3.42459	32.7358
3.42233	32.5783
3.42007	32.3032
3.41782	32.1399
3.41557	32.1381
3.41332	32.0212
3.41108	31.8958
3.40883	31.8184
3.40659	31.6747
3.40435	31.5325
3.40212	31.3784
3.39989	31.2429
3.39766	31.0937
3.39544	30.8713
3.39322	30.7269
3.391	30.6581
3.38878	30.5583
3.38657	30.3317
3.38436	30.0469
3.38215	29.916
3.37994	29.8719
3.37774	29.7534
3.37554	29.5671
3.37335	29.4137
3.37115	29.2605
3.36896	29.1193
3.36678	28.9227
3.36459	28.654
3.36241	28.378
3.36023	28.0578
3.35805	27.7393
3.35588	27.4042
3.35371	27.082
3.35154	26.9463
3.34938	26.9041
3.34721	27.0601
3.34505	27.5971
3.3429	28.2217
3.34074	28.7863
3.33859	29.1992
3.33644	29.4986
3.3343	29.6612
3.33215	29.6324
3.33001	29.6094
3.32788	29.4161
3.32574	29.2112
3.32361	29.1132
3.32148	29.0182
3.31936	28.8479
3.31723	28.6737
3.31511	28.5488
3.31299	28.3503
3.31088	28.1042
3.30876	27.8971
3.30665	27.6791
3.30455	27.4
3.30244	27.1866
3.30034	26.9352
3.29824	26.7284
3.29614	26.5029
3.29405	26.2699
3.29196	26.1208
3.28987	26.0157
3.28778	25.8438
3.2857	25.5927
3.28362	25.3227
3.28154	25.1469
3.27946	24.995
3.27739	24.7769
3.27532	24.4979
3.27325	24.2553
3.27119	24.1077
3.26913	23.975
3.26707	23.7789
3.26501	23.5924
3.26295	23.4161
3.2609	23.2653
3.25885	23.1143
3.2568	22.9148
3.25476	22.648
3.25272	22.2657
3.25068	22.0719
3.24864	22.0193
3.24661	21.8099
3.24458	21.6099
3.24255	21.4193
3.24052	21.2124
3.2385	20.9942
3.23648	20.7631
3.23446	20.5783
3.23244	20.3488
3.23043	20.1302
3.22841	19.9376
3.2264	19.756
3.2244	19.6104
3.22239	19.5068
3.22039	19.3632
3.21839	19.156
3.2164	18.9061
3.2144	18.7358
3.21241	18.624
3.21042	18.3657
3.20844	18.1657
3.20645	18.0232
3.20447	17.8034
3.20249	17.7122
3.20051	17.5067
3.19854	17.1893
3.19657	16.9372
3.1946	16.884
3.19263	16.8487
3.19067	16.7366
3.1887	16.6745
3.18674	16.5774
3.18479	16.3887
3.18283	16.3374
3.18088	16.2018
3.17893	16.0271
3.17698	15.843
3.17504	15.8137
3.17309	15.7734
3.17115	15.5863
3.16921	15.4892
3.16728	15.455
3.16534	15.4319
3.16341	15.4173
3.16148	15.3454
3.15956	15.1868
3.15763	15.0817
3.15571	15.0107
3.15379	15.0164
3.15187	15.0929
3.14996	15.0924
3.14805	15.0983
3.14614	15.1489
3.14423	15.1391
3.14232	15.1098
3.14042	15.0521
3.13852	15.0444
3.13662	15.0711
3.13472	14.9788
3.13283	14.9308
3.13094	14.9752
3.12905	15.0621
3.12716	15.1536
3.12528	15.1882
3.12339	15.2499
3.12151	15.2801
3.11964	15.2427
3.11776	15.2937
3.11589	15.4114
3.11401	15.375
3.11214	15.42
3.11028	15.5187
3.10841	15.5064
3.10655	15.5334
3.10469	15.647
3.10283	15.8545
3.10098	15.91
3.09912	15.9
3.09727	16.0145
3.09542	16.077
3.09358	16.1978
3.09173	16.3294
3.08989	16.33
3.08805	16.3662
3.08621	16.4588
3.08437	16.5298
3.08254	16.694
3.08071	16.8932
3.07888	16.9465
3.07705	17.03
3.07523	16.9682
3.0734	16.9862
3.07158	17.1161
3.06977	17.2533
3.06795	17.3328
3.06613	17.4349
3.06432	17.528
3.06251	17.6376
3.0607	17.7555
3.0589	17.8755
3.0571	17.902
3.05529	17.9147
3.05349	18.0307
3.0517	18.0395
3.0499	18.0206
3.04811	18.1172
3.04632	18.2706
3.04453	18.3112
3.04274	18.3364
3.04096	18.3345
3.03918	18.3407
3.0374	18.4629
3.03562	18.5877
3.03384	18.6313
3.03207	18.805
3.03029	18.8683
3.02852	18.8564
3.02676	18.9747
3.02499	19.0158
3.02323	18.9803
3.02146	19.0888
3.0197	19.2494
3.01795	19.2656
3.01619	19.2796
3.01444	19.3155
3.01269	19.3353
3.01094	19.3911
3.00919	19.5704
3.00744	19.569
3.0057	19.4179
3.00396	19.3797
3.00222	19.4415
3.00048	19.5722
2.99875	19.6314
2.99701	19.5666
2.99528	19.5545
2.99355	19.6255
2.99183	19.6275
2.9901	19.6712
2.98838	19.7559
2.98666	19.6537
2.98494	19.6096
2.98322	19.5517
2.9815	19.5966
2.97979	19.5619
2.97808	19.4979
2.97637	19.4798
2.97466	19.5577
2.97295	19.5889
2.97125	19.4128
2.96955	19.1646
2.96785	19.156
2.96615	19.2385
2.96446	19.1973
2.96276	19.1315
2.96107	19.046
2.95938	18.9948
2.95769	18.8681
2.95601	18.7411
2.95432	18.789
2.95264	18.817
2.95096	18.6261
2.94928	18.5108
2.9476	18.5446
2.94593	18.3328
2.94425	18.1975
2.94258	18.2487
2.94092	18.2347
2.93925	18.0935
2.93758	18.061
2.93592	18.0214
2.93426	17.7176
2.9326	17.6055
2.93094	17.7678
2.92928	17.7856
2.92763	17.592
2.92598	17.4685
2.92433	17.5067
2.92268	17.5398
2.92103	17.4364
2.91939	17.3859
2.91775	17.2778
2.9161	17.27
2.91447	17.3083
2.91283	17.3139
2.91119	17.3148
2.90956	17.3178
2.90793	17.2787
2.9063	17.2827
2.90467	17.3729
2.90304	17.4534
2.90142	17.4798
2.89979	17.4573
2.89817	17.3778
2.89656	17.3663
2.89494	17.4279
2.89332	17.4321
2.89171	17.5172
2.8901	17.5346
2.88849	17.5045
2.88688	17.4582
2.88527	17.443
2.88367	17.4093
2.88206	17.2714
2.88046	17.2223
2.87886	17.2051
2.87727	17.1285
2.87567	17.0038
2.87408	17.0461
2.87248	17.0744
2.87089	16.9007
2.8693	16.799
2.86772	16.811
2.86613	16.761
2.86455	16.6503
2.86297	16.5106
2.86139	16.4397
2.85981	16.4212
2.85823	16.4269
2.85666	16.3372
2.85508	16.1248
2.85351	16.0144
2.85194	16.0845
2.85038	16.028
2.84881	15.8097
2.84724	15.545
2.84568	15.4451
2.84412	15.3911
2.84256	15.2925
2.841	15.1895
2.83945	14.9865
2.83789	14.7826
2.83634	14.7242
2.83479	14.6849
2.83324	14.5408
2.83169	14.3459
2.83015	14.3611
2.82861	14.4768
2.82706	14.472
2.82552	14.3623
2.82398	14.2367
2.82245	14.0919
2.82091	13.9442
2.81938	13.8826
2.81784	13.797
2.81631	13.7216
2.81479	13.6681
2.81326	13.5395
2.81173	13.4173
2.81021	13.3391
2.80869	13.2413
2.80716	13.1027
2.80565	12.9261
2.80413	12.9696
2.80261	12.9379
2.8011	12.7408
2.79959	12.7252
2.79808	12.775
2.79657	12.8702
2.79506	13.027
2.79355	13.1611
2.79205	13.3677
2.79055	13.917
2.78904	14.6675
2.78754	15.237
2.78605	15.661
2.78455	16.1729
2.78306	16.8267
2.78156	17.4914
2.78007	18.0068
2.77858	18.3664
2.77709	18.656
2.77561	18.8382
2.77412	19.1018
2.77264	19.6245
2.77116	19.9018
2.76968	19.5969
2.7682	19.1443
2.76672	18.831
2.76524	18.4959
2.76377	18.1835
2.7623	17.6568
2.76083	16.7206
2.75936	15.992
2.75789	15.4009
2.75642	15.0547
2.75496	14.6543
2.7535	13.9408
2.75203	13.5843
2.75057	13.4655
2.74912	13.5413
2.74766	13.4971
2.7462	13.5862
2.74475	13.9517
2.7433	14.4832
2.74185	15.2791
2.7404	16.0752
2.73895	16.463
2.7375	16.6057
2.73606	17.0582
2.73462	17.6171
2.73318	17.7996
2.73174	17.834
2.7303	17.8778
2.72886	17.8377
2.72742	17.929
2.72599	18.3623
2.72456	18.5494
2.72313	18.4743
2.7217	19.0181
2.72027	19.9237
2.71884	20.4549
2.71742	21.7262
2.71599	23.5194
2.71457	25.6283
2.71315	28.1692
2.71173	31.4314
2.71032	34.4329
2.7089	36.6593
2.70748	38.6487
2.70607	40.5678
2.70466	42.4116
2.70325	44.0683
2.70184	45.6323
2.70043	46.6498
2.69903	47.3367
2.69762	48.3397
2.69622	49.5026
2.69482	50.5983
2.69342	51.156
2.69202	51.0846
2.69062	51.3187
2.68923	51.7814
2.68783	52.284
2.68644	52.8159
2.68505	53.3051
2.68366	53.7795
2.68227	53.966
2.68089	54.4629
2.6795	55.347
2.67812	55.782
2.67673	56.3936
2.67535	56.2261
2.67397	55.9408
2.6726	56.2919
2.67122	57.9242
2.66984	58.5377
2.66847	57.882
2.6671	58.7232
2.66572	59.2882
2.66435	58.9289
2.66299	58.0831
2.66162	58.1303
2.66025	58.4547
2.65889	58.5739
2.65753	58.3969
2.65616	58.7685
2.65481	58.9286
2.65345	59.2204
2.65209	59.4519
2.65073	59.1866
2.64938	59.0837
2.64803	59.2676
2.64667	59.679
2.64532	59.9722
2.64397	59.9438
2.64263	60.1843
2.64128	60.3132
2.63994	60.3445
2.63859	60.3883
2.63725	60.5704
2.63591	60.8326
2.63457	61.4344
2.63323	61.6845
2.6319	62.1038
2.63056	63.1019
2.62923	62.6975
2.62789	62.5101
2.62656	63.1339
2.62523	62.6195
2.6239	62.4503
2.62258	62.8308
2.62125	63.8961
2.61993	64.2826
2.6186	63.818
2.61728	64.5384
2.61596	64.5154
2.61464	63.7971
2.61332	63.7995
2.61201	63.8731
2.61069	64.191
2.60938	64.4883
2.60807	64.6036
2.60675	65.1415
2.60544	65.7554
2.60414	65.3078
2.60283	64.9271
2.60152	64.8116
2.60022	64.6569
2.59891	64.5523
2.59761	65.0023
2.59631	66.414
2.59501	68.2149
2.59371	66.9745
2.59242	65.2968
2.59112	65.1179
2.58983	65.5183
2.58853	65.8854
2.58724	66.0242
2.58595	65.7103
2.58466	66.2439
2.58338	66.443
2.58209	65.8594
2.5808	65.8192
2.57952	65.5361
2.57824	65.8964
2.57695	66.3497
2.57567	65.9953
2.5744	66.1643
2.57312	66.5529
2.57184	66.096
2.57057	66.3224
2.56929	66.5466
2.56802	66.1086
2.56675	66.0228
2.56548	66.4976
2.56421	67.0552
2.56294	67.1903
2.56168	67.2571
2.56041	67.0368
2.55915	66.5217
2.55789	66.3583
2.55662	66.4934
2.55536	66.5184
2.5541	66.6576
2.55285	66.9209
2.55159	66.8878
2.55034	66.7305
2.54908	66.7611
2.54783	66.8949
2.54658	66.7726
2.54533	66.6526
2.54408	66.6942
2.54283	66.7532
2.54159	66.6465
2.54034	66.5942
2.5391	66.6981
2.53785	66.7842
2.53661	66.8832
2.53537	66.8608
2.53413	66.829
2.53289	67.0299
2.53166	67.2067
2.53042	67.1943
2.52919	67.0982
2.52795	67.204
2.52672	67.386
2.52549	67.4814
2.52426	67.6006
2.52303	67.6571
2.52181	67.5774
2.52058	67.6739
2.51936	67.7984
2.51813	67.7615
2.51691	67.7563
2.51569	67.8245
2.51447	67.8685
2.51325	67.8955
2.51203	67.9379
2.51082	67.9479
2.5096	67.9384
2.50839	67.9126
2.50717	67.866
2.50596	67.9551
2.50475	67.9789
2.50354	67.9294
2.50233	67.9503
2.50113	67.9279
2.49992	67.889
2.49872	67.8685
2.49751	67.9211
2.49631	67.9289
2.49511	67.9357
2.49391	67.9921
2.49271	67.9384
2.49151	67.8221
2.49031	67.803
2.48912	67.8461
2.48792	67.9113
2.48673	67.9504
2.48554	68.0568
2.48435	68.1638
2.48316	68.1727
2.48197	68.2622
2.48078	68.3806
2.4796	68.3174
2.47841	68.1279
2.47723	68.0132
2.47604	68.0905
2.47486	68.18
2.47368	68.2891
2.4725	68.377
2.47132	68.3076
2.47014	68.3516
2.46897	68.3439
2.46779	68.3309
2.46662	68.2816
2.46545	68.2485
2.46427	68.3708
2.4631	68.6223
2.46193	68.6514
2.46077	68.5499
2.4596	68.4546
2.45843	68.4721
2.45727	68.5302
2.4561	68.4781
2.45494	68.3611
2.45378	68.4237
2.45262	68.4237
2.45146	68.3306
2.4503	68.3235
2.44914	68.3412
2.44799	68.3563
2.44683	68.3054
2.44568	68.2493
2.44452	68.1322
2.44337	68.1255
2.44222	68.2485
2.44107	68.2708
2.43992	68.0967
2.43877	68.0875
2.43763	68.1798
2.43648	68.2305
2.43534	68.1565
2.43419	68.0852
2.43305	68.1575
2.43191	68.1198
2.43077	67.9935
2.42963	68.0702
2.42849	68.1235
2.42736	68.2127
2.42622	68.2273
2.42509	68.134
2.42395	68.2167
2.42282	68.3077
2.42169	68.4298
2.42056	68.436
2.41943	68.3176
2.4183	68.3299
2.41717	68.34
2.41605	68.3458
2.41492	68.331
2.4138	68.2768
2.41267	68.3221
2.41155	68.38
2.41043	68.3999
2.40931	68.4527
2.40819	68.3857
2.40707	68.366
2.40595	68.3745
2.40484	68.3666
2.40372	68.4749
2.40261	68.4108
2.4015	68.3505
2.40039	68.4229
2.39928	68.6158
2.39817	68.7576
2.39706	68.6315
2.39595	68.6362
2.39484	68.8128
2.39374	69.0093
2.39263	68.9956
2.39153	68.8803
2.39043	68.8572
2.38932	68.9181
2.38822	68.9649
2.38712	68.9169
2.38603	68.923
2.38493	68.9346
2.38383	68.8422
2.38274	68.8999
2.38164	68.9214
2.38055	68.844
2.37946	68.9033
2.37836	68.9404
2.37727	69.007
2.37618	69.0226
2.3751	68.9499
2.37401	68.8976
2.37292	68.8074
2.37184	68.7255
2.37075	68.6621
2.36967	68.5603
2.36859	68.455
2.3675	68.3894
2.36642	68.3218
2.36534	68.1408
2.36427	68.0927
2.36319	68.105
2.36211	67.977
2.36104	67.8316
2.35996	67.674
2.35889	67.5016
2.35781	67.4905
2.35674	67.4999
2.35567	67.4408
2.3546	67.4317
2.35353	67.3531
2.35247	67.2796
2.3514	67.26
2.35033	67.2676
2.34927	67.3512
2.3482	67.4198
2.34714	67.4212
2.34608	67.5491
2.34502	67.6865
2.34396	67.7289
2.3429	67.7997
2.34184	67.8799
2.34078	67.993
2.33973	68.124
2.33867	68.2395
2.33762	68.4227
2.33656	68.7285
2.33551	68.9266
2.33446	68.9697
2.33341	69.1448
2.33236	69.3296
2.33131	69.4737
2.33026	69.619
2.32922	69.7076
2.32817	69.9351
2.32712	70.0407
2.32608	70.0776
2.32504	70.1556
2.324	70.2416
2.32295	70.3211
2.32191	70.3528
2.32087	70.4194
2.31984	70.4524
2.3188	70.5213
2.31776	70.5044
2.31673	70.5221
2.31569	70.5953
2.31466	70.5383
2.31362	70.4265
2.31259	70.4772
2.31156	70.4298
2.31053	70.4715
2.3095	70.551
2.30847	70.5477
2.30745	70.6212
2.30642	70.6753
2.3054	70.6641
2.30437	70.7279
2.30335	70.9494
2.30232	71.128
2.3013	71.2071
2.30028	71.3549
2.29926	71.4834
2.29824	71.6098
2.29722	71.8667
2.29621	71.9999
2.29519	72.0184
2.29417	72.1456
2.29316	72.3686
2.29215	72.5833
2.29113	72.4766
2.29012	72.6341
2.28911	72.8612
2.2881	72.8495
2.28709	72.843
2.28608	72.9769
2.28507	73.1612
2.28407	73.3667
2.28306	73.4585
2.28206	73.3294
2.28105	73.2571
2.28005	73.3259
2.27905	73.4852
2.27805	73.6111
2.27705	73.5753
2.27605	73.6684
2.27505	73.8322
2.27405	73.9233
2.27305	73.9558
2.27206	74.0667
2.27106	74.2641
2.27007	74.284
2.26907	74.2378
2.26808	74.2934
2.26709	74.3224
2.2661	74.4269
2.26511	74.4066
2.26412	74.4407
2.26313	74.6598
2.26214	74.8256
2.26116	74.9017
2.26017	74.8898
2.25919	74.8763
2.2582	75.0057
2.25722	75.2443
2.25624	75.4042
2.25526	75.5258
2.25428	75.5158
2.2533	75.5835
2.25232	75.674
2.25134	75.7662
2.25036	75.9861
2.24939	76.1262
2.24841	76.1502
2.24744	76.2272
2.24646	76.3454
2.24549	76.3166
2.24452	76.2562
2.24355	76.2667
2.24257	76.4895
2.24161	76.6929
2.24064	76.5821
2.23967	76.5514
2.2387	76.6838
2.23774	76.6539
2.23677	76.6793
2.23581	76.8354
2.23484	76.984
2.23388	77.1158
2.23292	77.152
2.23196	76.9584
2.231	76.9135
2.23004	77.0277
2.22908	77.089
2.22812	77.0505
2.22716	77.1134
2.22621	77.295
2.22525	77.2506
2.2243	77.2083
2.22334	77.2933
2.22239	77.3986
2.22144	77.402
2.22049	77.2912
2.21953	77.2658
2.21859	77.2224
2.21764	77.2869
2.21669	77.4319
2.21574	77.4917
2.21479	77.4864
2.21385	77.5143
2.2129	77.4749
2.21196	77.467
2.21102	77.6093
2.21007	77.6864
2.20913	77.6462
2.20819	77.7858
2.20725	77.9708
2.20631	78.0327
2.20537	78.0982
2.20444	78.2635
2.2035	78.5038
2.20256	78.7302
2.20163	78.7961
2.20069	78.8443
2.19976	78.8452
2.19883	78.9519
2.19789	79.0224
2.19696	79.1798
2.19603	79.3119
2.1951	79.4077
2.19417	79.43
2.19325	79.3876
2.19232	79.4111
2.19139	79.4413
2.19047	79.6119
2.18954	79.7283
2.18862	79.5678
2.18769	79.4778
2.18677	79.599
2.18585	79.767
2.18493	79.8616
2.18401	79.9484
2.18309	80.0156
2.18217	79.9063
2.18125	80.0085
2.18033	80.1482
2.17942	80.0515
2.1785	79.9801
2.17759	80.0855
2.17667	80.1931
2.17576	80.126
2.17485	80.1612
2.17393	80.1771
2.17302	80.1364
2.17211	80.0828
2.1712	80.1059
2.17029	80.1418
2.16939	80.2103
2.16848	80.2943
2.16757	80.1988
2.16667	80.1627
2.16576	80.2545
2.16486	80.294
2.16395	80.2687
2.16305	80.3583
2.16215	80.3518
2.16125	80.3577
2.16035	80.4501
2.15945	80.3038
2.15855	80.2059
2.15765	80.2219
2.15675	80.2083
2.15586	80.0718
2.15496	80.1536
2.15406	80.2553
2.15317	80.2294
2.15228	80.3394
2.15138	80.3472
2.15049	80.167
2.1496	80.0795
2.14871	80.068
2.14782	80.0991
2.14693	80.342
2.14604	80.5308
2.14515	80.3439
2.14427	80.3168
2.14338	80.4761
2.14249	80.5549
2.14161	80.4725
2.14072	80.4424
2.13984	80.5116
2.13896	80.7006
2.13808	80.9528
2.13719	81.0561
2.13631	81.0775
2.13543	81.1289
2.13455	80.9968
2.13368	81.0295
2.1328	81.2907
2.13192	81.3482
2.13105	81.2808
2.13017	81.2973
2.1293	81.3689
2.12842	81.5715
2.12755	81.7024
2.12668	81.6184
2.1258	81.5909
2.12493	81.7147
2.12406	81.8193
2.12319	81.9224
2.12232	81.8819
2.12145	81.9909
2.12059	82.223
2.11972	82.3843
2.11885	82.3082
2.11799	82.2509
2.11712	82.4161
2.11626	82.5081
2.1154	82.5084
2.11453	82.3847
2.11367	82.4121
2.11281	82.6036
2.11195	82.6484
2.11109	82.6887
2.11023	82.7225
2.10937	82.7698
2.10851	82.8293
2.10766	82.8044
2.1068	82.9157
2.10594	83.0901
2.10509	83.1163
2.10423	83.2551
2.10338	83.3785
2.10253	83.4035
2.10168	83.363
2.10082	83.1776
2.09997	83.1667
2.09912	83.2553
2.09827	83.2703
2.09742	83.277
2.09658	83.2973
2.09573	83.356
2.09488	83.5199
2.09404	83.583
2.09319	83.5991
2.09235	83.7647
2.0915	83.8195
2.09066	83.7467
2.08982	83.7764
2.08897	83.7931
2.08813	83.6855
2.08729	83.7429
2.08645	83.7746
2.08561	83.8879
2.08477	84.0457
2.08394	83.9022
2.0831	83.8752
2.08226	83.9571
2.08143	83.9074
2.08059	83.8601
2.07976	83.9473
2.07892	84.2616
2.07809	84.3222
2.07726	84.2176
2.07643	84.0482
2.07559	84.0196
2.07476	84.0174
2.07393	84.0121
2.0731	84.1404
2.07228	84.1115
2.07145	83.9466
2.07062	83.9764
2.06979	84.0434
2.06897	83.9697
2.06814	83.9592
2.06732	84.1766
2.06649	84.4047
2.06567	84.3161
2.06485	84.3388
2.06403	84.2571
2.0632	84.1235
2.06238	84.2317
2.06156	84.3096
2.06074	84.4396
2.05993	84.6943
2.05911	84.5696
2.05829	84.1615
2.05747	84.2799
2.05666	84.3015
2.05584	84.0813
2.05503	84.4275
2.05421	84.5428
2.0534	84.1703
2.05259	84.1339
2.05177	84.2338
2.05096	84.4521
2.05015	84.6618
2.04934	84.5801
2.04853	84.6923
2.04772	84.6184
2.04691	84.5426
2.04611	84.2387
2.0453	84.1207
2.04449	84.2326
2.04369	84.2684
2.04288	84.3506
2.04208	84.4534
2.04127	84.2505
2.04047	84.2437
2.03967	84.5643
2.03886	84.4907
2.03806	84.3255
2.03726	84.4148
2.03646	84.6394
2.03566	84.5329
2.03486	84.3988
2.03407	84.4074
2.03327	84.3465
2.03247	84.3844
2.03167	84.5395
2.03088	84.4276
2.03008	84.3029
2.02929	84.3312
2.0285	84.3133
2.0277	84.4358
2.02691	84.564
2.02612	84.2956
2.02533	84.2934
2.02453	84.3357
2.02374	84.3285
2.02295	84.3886
2.02217	84.1844
2.02138	84.0151
2.02059	84.1393
2.0198	84.2602
2.01902	84.3764
2.01823	84.3802
2.01744	84.2694
2.01666	84.2601
2.01588	84.3682
2.01509	84.236
2.01431	84.0782
2.01353	84.2601
2.01275	84.3785
2.01196	84.2564
2.01118	84.2658
2.0104	84.2317
2.00963	84.2189
2.00885	84.2464
2.00807	84.2216
2.00729	84.0832
2.00651	84.1856
2.00574	84.2274
2.00496	84.1825
2.00419	84.1844
2.00341	84.0628
2.00264	84.0226
2.00187	84.0264
2.00109	83.9484
2.00032	83.8852
