Name: Smithsonite PbCO_3
Type: Mineral
Class: Carbonates
Subclass: 
Particle Size: 0-45um
Sample No.: C-11A
Owner: JPL
Wavelength range: IR
Origin: 
Collected by JPL
Description: 





Measurement: Hemispherical reflectance
First Column: X
Second Column: Y
X Units:  Wavelength (micrometers)
Y Units:  Reflectance (percent)
First X Value: 15.3853
Last X Value: 2.00032
Number of X Values: 2256
Additional information: c11aa.txt
 
15.3853	33.3369
15.3397	33.3079
15.2945	33.3783
15.2495	33.5655
15.2048	33.768
15.1603	33.8856
15.1161	33.7845
15.0722	33.7821
15.0285	33.764
14.9851	33.8271
14.9419	33.9599
14.8989	33.8279
14.8563	33.8474
14.8138	34.0952
14.7716	33.9927
14.7296	33.8238
14.6879	33.9592
14.6464	33.8111
14.6052	33.4845
14.5641	33.4045
14.5233	33.1606
14.4828	32.7208
14.4424	32.6037
14.4023	32.5124
14.3624	32.1533
14.3227	31.6212
14.2833	31.2461
14.244	30.7645
14.205	30.0267
14.1662	29.5218
14.1276	28.8903
14.0892	27.9091
14.051	26.9635
14.0131	25.9687
13.9753	24.8647
13.9377	23.9332
13.9004	23.1285
13.8632	22.2681
13.8262	21.0803
13.7895	19.4919
13.7529	17.8209
13.7165	16.3097
13.6803	14.7009
13.6443	12.7534
13.6085	10.868
13.5729	9.15314
13.5374	7.52178
13.5022	6.14836
13.4671	5.06914
13.4322	4.12055
13.3975	2.9372
13.363	2.47187
13.3286	3.45652
13.2944	5.6991
13.2604	8.5332
13.2266	11.5397
13.193	14.3106
13.1595	16.8045
13.1262	18.8853
13.093	20.4756
13.06	21.852
13.0272	23.0544
12.9946	24.1579
12.9621	24.964
12.9298	25.6185
12.8976	26.1563
12.8656	26.5572
12.8337	26.7729
12.8021	26.956
12.7705	27.0761
12.7391	27.1926
12.7079	27.563
12.6769	27.9192
12.6459	28.042
12.6152	28.2133
12.5845	28.3234
12.5541	28.534
12.5238	28.7467
12.4936	28.8203
12.4635	28.6888
12.4337	28.6479
12.4039	28.6328
12.3743	28.4739
12.3448	28.3618
12.3155	28.1716
12.2863	27.9228
12.2573	27.6672
12.2284	27.2215
12.1996	26.8246
12.171	26.5372
12.1425	26.3226
12.1141	26.161
12.0859	25.9795
12.0578	25.6296
12.0298	25.0971
12.0019	24.5575
11.9742	23.9438
11.9466	22.434
11.9192	18.4196
11.8918	13.6257
11.8646	15.0463
11.8375	19.516
11.8106	20.884
11.7837	20.3014
11.757	19.0299
11.7304	17.3765
11.7039	15.5607
11.6776	13.7626
11.6513	12.0972
11.6252	10.6608
11.5992	9.85173
11.5733	9.45155
11.5475	9.31097
11.5219	9.50362
11.4963	10.0638
11.4709	10.9028
11.4455	11.651
11.4203	12.7534
11.3952	14.7102
11.3702	17.6457
11.3454	21.425
11.3206	25.2076
11.2959	27.083
11.2714	26.7783
11.2469	25.9748
11.2226	25.6164
11.1983	25.4803
11.1742	25.512
11.1502	25.5781
11.1263	25.6253
11.1024	25.7351
11.0787	25.9598
11.0551	26.1495
11.0316	26.2374
11.0081	26.4361
10.9848	26.762
10.9616	26.8846
10.9385	26.972
10.9154	27.1268
10.8925	27.3162
10.8697	27.4992
10.8469	27.5865
10.8243	27.6795
10.8017	27.7099
10.7793	27.8287
10.7569	27.8065
10.7346	27.8073
10.7125	27.8789
10.6904	27.8088
10.6684	27.6825
10.6465	27.4502
10.6247	27.2507
10.6029	27.2197
10.5813	27.21
10.5597	27.144
10.5383	27.146
10.5169	27.1402
10.4956	27.0259
10.4744	26.9593
10.4533	26.9733
10.4323	27.1462
10.4113	27.5077
10.3904	27.8104
10.3697	27.941
10.349	28.129
10.3284	28.3054
10.3078	28.342
10.2874	28.4214
10.267	28.6532
10.2467	28.8294
10.2265	28.9433
10.2064	29.1905
10.1863	29.5427
10.1663	29.8693
10.1464	30.1292
10.1266	30.2957
10.1069	30.453
10.0872	30.6562
10.0676	30.7432
10.0481	30.6782
10.0287	30.6057
10.0093	30.5959
9.99005	30.563
9.97084	30.6154
9.95169	30.6194
9.93263	30.5585
9.91364	30.4339
9.89472	30.1615
9.87587	29.9914
9.8571	29.8483
9.83839	29.766
9.81976	29.5729
9.80119	29.2508
9.78271	28.94
9.76428	28.5247
9.74592	28.0129
9.72764	27.4584
9.70943	26.9419
9.69128	26.3314
9.6732	25.6869
9.65518	25.094
9.63724	24.731
9.61935	24.5777
9.60155	24.594
9.5838	24.6693
9.56611	24.6214
9.5485	24.5802
9.53094	24.5851
9.51345	24.4928
9.49604	24.2726
9.47867	24.0149
9.46137	23.7269
9.44414	23.5761
9.42697	23.5971
9.40986	23.6632
9.39281	23.6294
9.37583	23.5011
9.35891	23.2847
9.34204	23.0645
9.32524	22.8321
9.3085	22.5481
9.29182	22.208
9.27519	22.0099
9.25863	21.9668
9.24213	21.7387
9.22568	21.3293
9.2093	20.9251
9.19297	20.6278
9.17669	20.423
9.16048	20.1937
9.14433	20.3045
9.12823	20.725
9.11218	21.238
9.0962	21.594
9.08027	21.7393
9.06439	21.9372
9.04858	22.1403
9.03281	22.3591
9.0171	22.5709
9.00145	22.7632
8.98585	23.0944
8.9703	23.4682
8.9548	23.6396
8.93937	23.7458
8.92398	23.8614
8.90865	24.0344
8.89337	24.3532
8.87814	24.6722
8.86296	24.8316
8.84784	24.886
8.83277	24.6763
8.81774	24.3394
8.80277	23.9804
8.78786	23.7755
8.77298	23.6292
8.75816	23.4352
8.7434	23.2655
8.72868	23.1067
8.714	22.8491
8.69938	22.3899
8.68481	21.9067
8.67029	21.2852
8.65581	20.5127
8.64139	19.8484
8.62701	19.0831
8.61268	18.1726
8.5984	17.3281
8.58416	16.764
8.56997	16.2882
8.55583	15.7687
8.54174	15.4393
8.52769	15.0965
8.51368	14.7718
8.49973	14.6887
8.48582	14.6642
8.47195	14.6162
8.45813	14.64
8.44436	14.6612
8.43062	14.7214
8.41693	14.8067
8.4033	14.9554
8.3897	14.959
8.37614	14.9612
8.36264	15.0979
8.34917	15.1605
8.33574	15.2053
8.32236	15.2585
8.30903	15.2445
8.29573	15.2264
8.28248	15.1687
8.26927	14.9432
8.2561	14.5458
8.24298	14.0133
8.2299	13.3908
8.21685	13.0962
8.20385	13.1207
8.19089	13.1326
8.17797	13.1835
8.16509	13.2718
8.15225	13.42
8.13946	13.6725
8.1267	13.7344
8.11398	13.8298
8.10131	13.9598
8.08867	14.0995
8.07606	14.1811
8.0635	14.3227
8.05099	14.4752
8.0385	14.589
8.02606	14.6717
8.01366	14.7505
8.00129	14.9143
7.98896	15.0031
7.97667	14.9957
7.96442	15.0743
7.9522	15.1863
7.94002	15.2177
7.92788	15.3365
7.91578	15.3708
7.90371	15.3282
7.89168	15.2926
7.87969	15.232
7.86773	15.1286
7.85581	15.0456
7.84392	14.8945
7.83207	14.676
7.82026	14.5654
7.80849	14.48
7.79674	14.3957
7.78503	14.3035
7.77337	14.1485
7.76173	14.07
7.75012	13.8786
7.73856	13.7094
7.72703	13.6198
7.71553	13.4595
7.70406	13.3431
7.69263	13.1704
7.68123	12.9982
7.66987	12.9015
7.65855	12.8228
7.64725	12.7195
7.63598	12.6559
7.62475	12.6022
7.61356	12.5137
7.60239	12.3575
7.59126	12.2109
7.58017	12.0383
7.5691	11.8982
7.55806	11.7402
7.54707	11.579
7.5361	11.405
7.52516	11.3046
7.51425	11.1817
7.50338	11.1003
7.49253	11.0741
7.48172	11.0336
7.47094	10.9967
7.46019	10.8967
7.44947	10.8302
7.43879	10.7551
7.42813	10.7276
7.4175	10.6468
7.4069	10.4931
7.39634	10.3024
7.3858	10.0892
7.37529	9.9232
7.36482	9.80957
7.35437	9.69426
7.34396	9.62617
7.33357	9.56734
7.32321	9.4202
7.31288	9.4064
7.30258	9.49294
7.29231	9.51052
7.28207	9.49889
7.27185	9.4642
7.26167	9.50002
7.25152	9.46585
7.24139	9.46926
7.23129	9.55639
7.22122	9.58925
7.21117	9.73427
7.20116	9.99547
7.19117	10.3587
7.18121	10.8432
7.17128	11.4909
7.16137	12.2182
7.1515	12.8531
7.14164	13.2476
7.13182	13.4274
7.12203	13.5234
7.11225	13.4981
7.10251	13.4903
7.0928	13.4708
7.08311	13.3815
7.07344	13.3663
7.06381	13.3797
7.0542	13.4439
7.04461	13.4721
7.03506	13.3198
7.02552	13.2401
7.01601	13.1391
7.00653	13.0253
6.99708	13.025
6.98765	13.0525
6.97824	13.0135
6.96886	13.0307
6.95951	13.0889
6.95018	12.8958
6.94087	12.7828
6.9316	12.7911
6.92234	12.8407
6.91311	12.9466
6.90391	13.0392
6.89473	13.0241
6.88557	13.1072
6.87644	13.3631
6.86733	13.6473
6.85824	13.6494
6.84918	13.4874
6.84015	13.515
6.83114	13.6981
6.82215	13.78
6.81319	13.7451
6.80424	13.8941
6.79532	14.1821
6.78643	14.2701
6.77756	14.3815
6.76871	14.509
6.75989	14.5915
6.75109	14.7343
6.74231	14.8984
6.73355	15.1604
6.72482	15.4308
6.71611	15.688
6.70742	15.9187
6.69875	16.0921
6.69011	16.4181
6.68149	16.6537
6.67289	16.6941
6.66431	16.7685
6.65576	16.9643
6.64722	17.4414
6.63871	18.0153
6.63022	17.9899
6.62175	17.8644
6.61331	17.9288
6.60488	18.06
6.59648	18.2884
6.5881	18.5133
6.57974	18.8753
6.5714	19.2073
6.56308	19.2926
6.55478	19.5321
6.54651	19.661
6.53825	19.7696
6.53001	19.934
6.5218	20.1569
6.51361	20.2009
6.50544	20.3362
6.49729	20.7372
6.48915	20.871
6.48104	20.637
6.47295	20.298
6.46488	19.8407
6.45683	19.5313
6.4488	19.1825
6.44079	18.7396
6.4328	18.2896
6.42482	17.8248
6.41687	17.395
6.40894	16.4219
6.40103	15.3852
6.39314	14.666
6.38526	13.9515
6.37741	13.3903
6.36957	12.6201
6.36176	11.659
6.35396	10.8119
6.34618	10.0597
6.33843	9.04929
6.33069	7.98275
6.32297	6.97109
6.31527	6.08498
6.30758	5.38986
6.29992	4.91069
6.29227	4.51346
6.28465	4.13268
6.27704	3.72647
6.26945	3.39632
6.26188	3.1144
6.25432	2.87467
6.24679	2.7059
6.23927	2.56611
6.23177	2.38476
6.22429	2.25774
6.21683	2.22969
6.20938	2.22208
6.20195	2.25154
6.19454	2.29597
6.18715	2.27753
6.17978	2.22304
6.17242	2.18408
6.16508	2.21031
6.15776	2.3461
6.15045	2.44828
6.14317	2.42811
6.1359	2.44615
6.12864	2.52536
6.12141	2.60844
6.11419	2.70338
6.10699	2.77786
6.0998	2.84876
6.09263	2.90915
6.08549	3.05246
6.07835	3.2807
6.07123	3.46027
6.06413	3.53334
6.05705	3.67099
6.04998	3.77219
6.04293	3.80947
6.0359	3.89595
6.02888	3.97994
6.02187	4.05722
6.01489	4.12443
6.00792	4.23322
6.00096	4.33501
5.99403	4.49876
5.98711	4.66217
5.9802	4.70221
5.97331	4.8591
5.96644	5.10475
5.95958	5.34989
5.95274	5.59421
5.94591	5.84674
5.9391	6.18999
5.9323	6.56294
5.92552	6.82478
5.91876	7.14013
5.91201	7.44352
5.90528	7.87218
5.89856	8.41465
5.89186	8.7983
5.88517	9.19309
5.8785	9.67361
5.87184	9.9199
5.8652	10.3635
5.85857	10.8164
5.85196	11.1103
5.84536	11.3734
5.83878	11.7288
5.83221	12.117
5.82566	12.5241
5.81912	12.749
5.81259	12.8095
5.80608	12.9823
5.79959	13.1561
5.79311	13.3627
5.78665	13.6256
5.78019	13.7892
5.77376	14.0712
5.76734	14.4701
5.76093	14.5101
5.75453	14.5619
5.74815	14.8694
5.74179	14.9904
5.73543	15.116
5.7291	15.3679
5.72277	15.5336
5.71646	15.5534
5.71017	15.7276
5.70389	15.8553
5.69762	15.9132
5.69136	15.9155
5.68513	15.8589
5.6789	15.8803
5.67268	15.933
5.66648	15.9878
5.6603	16.0594
5.65413	16.1362
5.64797	16.1916
5.64182	16.1823
5.63569	15.9614
5.62957	15.8506
5.62347	15.7367
5.61737	15.5921
5.61129	15.4024
5.60522	15.1641
5.59917	14.8581
5.59313	14.4127
5.5871	13.8841
5.58109	13.1975
5.57509	12.3287
5.5691	11.2879
5.56312	10.1617
5.55716	9.04461
5.55121	7.92769
5.54528	6.85499
5.53935	6.12295
5.53344	5.72028
5.52754	5.49313
5.52166	5.45968
5.51578	5.49645
5.50992	5.48787
5.50407	5.51071
5.49823	5.60017
5.49241	5.74573
5.4866	6.01502
5.4808	6.4689
5.47501	7.1248
5.46923	7.9399
5.46347	8.9742
5.45772	10.2326
5.45198	11.8859
5.44625	13.9047
5.44054	16.152
5.43484	18.6913
5.42914	21.4107
5.42347	24.1085
5.4178	26.4336
5.41214	28.4444
5.4065	30.333
5.40087	32.025
5.39525	33.4914
5.38964	34.9169
5.38404	36.2365
5.37846	37.3022
5.37288	38.2662
5.36732	39.1851
5.36177	40.0606
5.35623	40.8901
5.35071	41.7433
5.34519	42.3557
5.33968	42.884
5.33419	43.4876
5.32871	44.06
5.32324	44.6443
5.31778	45.1379
5.31233	45.6392
5.30689	46.1441
5.30147	46.6269
5.29605	47.0491
5.29065	47.4108
5.28525	47.6837
5.27987	48.0564
5.2745	48.3656
5.26914	48.5707
5.26379	48.8601
5.25845	49.1358
5.25312	49.3746
5.24781	49.5979
5.2425	49.8323
5.23721	50.0541
5.23192	50.2279
5.22665	50.382
5.22138	50.5239
5.21613	50.7656
5.21089	50.949
5.20566	51.0457
5.20044	51.1881
5.19522	51.2496
5.19002	51.2809
5.18483	51.3871
5.17965	51.4438
5.17448	51.5312
5.16933	51.6371
5.16418	51.7012
5.15904	51.714
5.15391	51.7214
5.14879	51.6189
5.14368	51.3163
5.13859	50.7558
5.1335	49.905
5.12842	48.6899
5.12335	47.444
5.1183	46.5139
5.11325	46.3374
5.10821	46.9744
5.10318	48.1135
5.09817	49.3874
5.09316	50.53
5.08816	51.4378
5.08317	52.1212
5.07819	52.6144
5.07322	53.0612
5.06826	53.3785
5.06331	53.5821
5.05837	53.7537
5.05344	53.8334
5.04852	53.94
5.04361	54.0895
5.03871	54.1414
5.03382	54.1854
5.02894	54.2242
5.02406	54.2631
5.0192	54.3167
5.01435	54.4271
5.0095	54.5248
5.00467	54.5731
4.99984	54.565
4.99502	54.5524
4.99021	54.5936
4.98542	54.715
4.98063	54.8371
4.97585	54.9505
4.97108	54.9462
4.96632	54.967
4.96156	55.0736
4.95682	55.1218
4.95209	55.1065
4.94736	55.17
4.94264	55.2685
4.93794	55.3779
4.93324	55.3873
4.92855	55.4081
4.92387	55.5131
4.9192	55.6109
4.91453	55.7031
4.90988	55.6977
4.90524	55.7064
4.9006	55.7878
4.89597	55.8706
4.89135	55.856
4.88674	55.8289
4.88214	55.8841
4.87755	55.9376
4.87296	56.0109
4.86839	56.0106
4.86382	55.9493
4.85926	55.9884
4.85471	56.1201
4.85017	56.1414
4.84564	56.1534
4.84111	56.1919
4.8366	56.1214
4.83209	56.0215
4.82759	56.0471
4.8231	56.108
4.81862	56.1383
4.81415	56.091
4.80968	56.0456
4.80522	55.9251
4.80077	55.9155
4.79633	55.976
4.7919	55.8891
4.78747	55.7881
4.78306	55.6692
4.77865	55.5027
4.77425	55.4022
4.76986	55.2811
4.76547	55.1134
4.7611	54.9534
4.75673	54.7111
4.75237	54.4366
4.74802	54.125
4.74367	53.718
4.73934	53.2161
4.73501	52.6996
4.73069	52.1768
4.72638	51.4457
4.72207	50.4549
4.71777	49.2424
4.71348	47.8728
4.7092	46.1921
4.70493	44.5537
4.70066	43.1905
4.69641	42.1232
4.69216	41.383
4.68791	40.8654
4.68368	40.5022
4.67945	40.2266
4.67523	40.0456
4.67102	40.0211
4.66682	40.0671
4.66262	40.2755
4.65843	40.6282
4.65425	41.0752
4.65007	41.6487
4.64591	42.3149
4.64175	42.8926
4.6376	43.5601
4.63345	44.3476
4.62932	45.1675
4.62519	45.9236
4.62106	46.6092
4.61695	47.1944
4.61284	47.6578
4.60874	48.0371
4.60465	48.3113
4.60056	48.5281
4.59648	48.8159
4.59241	49.118
4.58835	49.3999
4.58429	49.7481
4.58024	50.1128
4.5762	50.3708
4.57216	50.5594
4.56814	50.7156
4.56411	50.9094
4.5601	51.126
4.55609	51.2685
4.55209	51.3106
4.5481	51.4039
4.54411	51.478
4.54013	51.5583
4.53616	51.6117
4.5322	51.641
4.52824	51.6902
4.52429	51.7227
4.52034	51.6721
4.51641	51.6974
4.51247	51.7093
4.50855	51.636
4.50463	51.5629
4.50072	51.5637
4.49682	51.6184
4.49292	51.6468
4.48903	51.676
4.48515	51.7013
4.48127	51.7546
4.4774	51.855
4.47354	51.9004
4.46968	52.0248
4.46584	52.1889
4.46199	52.3746
4.45815	52.5442
4.45432	52.6567
4.4505	52.8075
4.44668	53.0009
4.44287	53.1708
4.43907	53.322
4.43527	53.4809
4.43148	53.7377
4.4277	53.9313
4.42392	54.0154
4.42015	54.0935
4.41638	54.1259
4.41262	53.9518
4.40887	53.7694
4.40513	53.5626
4.40139	53.4518
4.39765	53.5163
4.39393	53.7099
4.39021	53.8691
4.38649	53.9444
4.38278	54.0411
4.37908	54.2549
4.37539	54.4699
4.3717	54.6238
4.36801	54.7283
4.36434	54.7937
4.36067	54.8554
4.357	54.8997
4.35335	54.9534
4.34969	54.956
4.34605	54.9649
4.34241	55.0424
4.33877	55.0764
4.33514	55.1726
4.33152	55.2539
4.32791	55.366
4.3243	55.4353
4.32069	55.4719
4.3171	55.5472
4.31351	55.7031
4.30992	55.8467
4.30634	55.8559
4.30277	55.8815
4.2992	56.0057
4.29564	56.0946
4.29208	56.1546
4.28853	56.2494
4.28499	56.2767
4.28145	56.2044
4.27792	56.2225
4.27439	56.2599
4.27087	56.1834
4.26735	56.0239
4.26384	55.9684
4.26034	55.9098
4.25684	55.8146
4.25335	55.7781
4.24986	55.7674
4.24638	55.7351
4.24291	55.6565
4.23944	55.5503
4.23598	55.4711
4.23252	55.3575
4.22906	55.1907
4.22562	55.0426
4.22218	54.8337
4.21874	54.6641
4.21531	54.4969
4.21189	54.2782
4.20847	54.0985
4.20506	53.939
4.20165	53.8162
4.19825	53.7184
4.19485	53.6263
4.19146	53.5038
4.18807	53.3548
4.18469	53.2098
4.18132	53.0763
4.17795	52.9624
4.17458	52.8629
4.17123	52.66
4.16787	52.3834
4.16453	52.0826
4.16118	51.8559
4.15785	51.5956
4.15451	51.3575
4.15119	51.1067
4.14787	50.7832
4.14455	50.4118
4.14124	50.0596
4.13794	49.6827
4.13464	49.3299
4.13134	49.0022
4.12805	48.7241
4.12477	48.3686
4.12149	47.9377
4.11822	47.5009
4.11495	46.9988
4.11168	46.4957
4.10843	46.011
4.10517	45.4952
4.10192	44.8797
4.09868	44.1625
4.09545	43.3344
4.09221	42.5379
4.08899	41.7329
4.08576	40.8386
4.08255	39.889
4.07933	38.7878
4.07613	37.6197
4.07292	36.4822
4.06973	35.2006
4.06654	33.6947
4.06335	32.1526
4.06017	30.4973
4.05699	28.827
4.05382	27.1326
4.05065	25.6001
4.04749	24.1291
4.04433	22.5064
4.04118	20.8395
4.03803	19.1365
4.03489	17.3789
4.03175	15.6099
4.02862	13.8143
4.02549	12.0623
4.02237	10.6415
4.01925	9.61616
4.01614	8.89855
4.01303	8.52003
4.00993	8.38448
4.00683	8.37856
4.00373	8.57021
4.00064	8.77441
3.99756	9.00166
3.99448	9.17959
3.9914	9.49185
3.98833	9.842
3.98527	10.0928
3.98221	10.3024
3.97915	10.6108
3.9761	10.9626
3.97305	11.4209
3.97001	11.9754
3.96697	12.5576
3.96394	13.1601
3.96091	13.9099
3.95789	14.7726
3.95487	15.5495
3.95186	16.3121
3.94885	16.9966
3.94584	17.6357
3.94284	18.2677
3.93984	18.727
3.93685	19.0801
3.93386	19.3215
3.93088	19.4135
3.9279	19.3976
3.92493	19.3919
3.92196	19.4626
3.919	19.6038
3.91604	19.8689
3.91308	20.0016
3.91013	20.0686
3.90718	20.2098
3.90424	20.3749
3.9013	20.5816
3.89837	20.7956
3.89544	20.9412
3.89252	21.0437
3.8896	21.1613
3.88668	21.3126
3.88377	21.4622
3.88086	21.569
3.87796	21.6452
3.87506	21.6828
3.87217	21.7801
3.86928	21.8822
3.86639	21.8873
3.86351	21.8714
3.86064	21.8708
3.85776	21.9781
3.8549	22.1205
3.85203	22.3536
3.84917	22.6134
3.84631	22.7705
3.84346	23.0021
3.84062	23.4188
3.83777	23.901
3.83494	24.3858
3.8321	24.9818
3.82927	25.6733
3.82644	26.3627
3.82362	26.9373
3.82081	27.6033
3.81799	28.3656
3.81518	29.0978
3.81238	29.7966
3.80958	30.5309
3.80678	31.275
3.80399	32.0635
3.8012	32.916
3.79841	33.6685
3.79563	34.4962
3.79286	35.3853
3.79008	36.3115
3.78731	37.2324
3.78455	38.1049
3.78179	39.0931
3.77903	40.1691
3.77628	41.2389
3.77353	42.2877
3.77079	43.244
3.76805	44.1637
3.76531	45.1718
3.76258	46.082
3.75985	46.7769
3.75713	47.4015
3.7544	47.9118
3.75169	48.2729
3.74898	48.576
3.74627	48.863
3.74356	49.0958
3.74086	49.2771
3.73816	49.3899
3.73547	49.473
3.73278	49.6277
3.7301	49.78
3.72741	49.8752
3.72474	49.9748
3.72206	50.1179
3.71939	50.2384
3.71673	50.3613
3.71406	50.5105
3.71141	50.5661
3.70875	50.7407
3.7061	50.9303
3.70345	51.0655
3.70081	51.203
3.69817	51.412
3.69553	51.5921
3.6929	51.6931
3.69027	51.7399
3.68765	51.7636
3.68503	51.8256
3.68241	51.8823
3.6798	51.9104
3.67719	51.9899
3.67458	51.9655
3.67198	52.026
3.66938	52.1239
3.66678	52.0004
3.66419	51.9264
3.66161	51.9945
3.65902	51.9275
3.65644	51.8242
3.65387	51.8001
3.65129	51.6903
3.64872	51.575
3.64616	51.4365
3.64359	51.2456
3.64103	51.1563
3.63848	51.0848
3.63593	50.9107
3.63338	50.6358
3.63084	50.233
3.6283	49.9175
3.62576	49.6108
3.62322	49.1445
3.62069	48.5339
3.61817	47.7516
3.61564	46.852
3.61312	45.9057
3.61061	45.1324
3.6081	44.9092
3.60559	45.224
3.60308	45.5591
3.60058	45.7339
3.59808	45.5271
3.59558	45.0058
3.59309	44.3736
3.59061	43.6074
3.58812	42.5746
3.58564	41.3639
3.58316	39.9349
3.58069	38.335
3.57822	36.5666
3.57575	34.5606
3.57328	32.5073
3.57082	30.5539
3.56836	28.7891
3.56591	27.2581
3.56346	25.9638
3.56101	24.9555
3.55857	24.1903
3.55613	23.5253
3.55369	22.9697
3.55126	22.6259
3.54883	22.2894
3.5464	21.729
3.54397	21.2364
3.54155	20.7957
3.53914	20.3442
3.53672	19.9251
3.53431	19.4946
3.5319	19.0337
3.5295	18.5609
3.5271	18.1441
3.5247	17.7671
3.52231	17.3835
3.51991	17.0636
3.51753	16.7214
3.51514	16.382
3.51276	16.2359
3.51038	16.1018
3.50801	16.0521
3.50563	16.2357
3.50327	16.6381
3.5009	17.2236
3.49854	17.9003
3.49618	18.6369
3.49382	19.4561
3.49147	20.2386
3.48912	20.8615
3.48677	21.3551
3.48443	21.827
3.48209	22.1278
3.47975	22.4087
3.47742	22.6932
3.47509	22.9546
3.47276	23.2123
3.47044	23.3799
3.46812	23.3877
3.4658	23.4854
3.46348	23.5992
3.46117	23.5801
3.45886	23.5115
3.45656	23.5776
3.45425	23.6427
3.45195	23.715
3.44966	23.7441
3.44736	23.7285
3.44507	23.7563
3.44279	23.8122
3.4405	23.8662
3.43822	23.9119
3.43594	23.8999
3.43367	24.0014
3.43139	24.1041
3.42912	24.0296
3.42686	23.9704
3.42459	23.9324
3.42233	23.9308
3.42007	23.9078
3.41782	23.7935
3.41557	23.677
3.41332	23.5505
3.41108	23.3445
3.40883	23.1001
3.40659	22.9531
3.40435	22.9628
3.40212	22.9063
3.39989	22.7809
3.39766	22.7369
3.39544	22.7225
3.39322	22.662
3.391	22.578
3.38878	22.5619
3.38657	22.642
3.38436	22.7199
3.38215	22.7357
3.37994	22.7694
3.37774	22.871
3.37554	22.9078
3.37335	22.8612
3.37115	22.6902
3.36896	22.609
3.36678	22.6556
3.36459	22.617
3.36241	22.3684
3.36023	22.1709
3.35805	22.146
3.35588	22.0775
3.35371	22.026
3.35154	22.0857
3.34938	22.1492
3.34721	22.1784
3.34505	22.3096
3.3429	22.395
3.34074	22.5406
3.33859	22.8399
3.33644	23.1835
3.3343	23.6902
3.33215	24.5584
3.33001	25.7947
3.32788	27.2141
3.32574	28.7705
3.32361	30.335
3.32148	31.6047
3.31936	32.4658
3.31723	33.2367
3.31511	33.9711
3.31299	34.5112
3.31088	34.9097
3.30876	35.4298
3.30665	35.9024
3.30455	36.2397
3.30244	36.5593
3.30034	36.8255
3.29824	37.0116
3.29614	37.2357
3.29405	37.4778
3.29196	37.5964
3.28987	37.6909
3.28778	37.8321
3.2857	38.0023
3.28362	38.1959
3.28154	38.2815
3.27946	38.2431
3.27739	38.2278
3.27532	38.3032
3.27325	38.4778
3.27119	38.598
3.26913	38.6045
3.26707	38.6105
3.26501	38.7059
3.26295	38.7113
3.2609	38.6649
3.25885	38.761
3.2568	38.8631
3.25476	38.8814
3.25272	38.876
3.25068	38.8726
3.24864	38.8575
3.24661	38.835
3.24458	38.8733
3.24255	38.9631
3.24052	39.0128
3.2385	38.9993
3.23648	38.9402
3.23446	38.8387
3.23244	38.8041
3.23043	38.8462
3.22841	38.8001
3.2264	38.7883
3.2244	38.7789
3.22239	38.7613
3.22039	38.7929
3.21839	38.7583
3.2164	38.661
3.2144	38.6318
3.21241	38.6991
3.21042	38.6948
3.20844	38.6432
3.20645	38.5648
3.20447	38.4898
3.20249	38.3801
3.20051	38.2803
3.19854	38.2432
3.19657	38.1798
3.1946	38.0393
3.19263	37.9708
3.19067	37.9139
3.1887	37.8736
3.18674	37.8942
3.18479	37.8658
3.18283	37.7815
3.18088	37.8135
3.17893	37.8652
3.17698	37.7585
3.17504	37.7262
3.17309	37.7344
3.17115	37.7141
3.16921	37.7407
3.16728	37.6144
3.16534	37.638
3.16341	37.6752
3.16148	37.6209
3.15956	37.5816
3.15763	37.5735
3.15571	37.5539
3.15379	37.5014
3.15187	37.4946
3.14996	37.5775
3.14805	37.5379
3.14614	37.3656
3.14423	37.3552
3.14232	37.3675
3.14042	37.2938
3.13852	37.326
3.13662	37.304
3.13472	37.2174
3.13283	37.1451
3.13094	37.0673
3.12905	36.9323
3.12716	36.8257
3.12528	36.8119
3.12339	36.8136
3.12151	36.7442
3.11964	36.6807
3.11776	36.6716
3.11589	36.6032
3.11401	36.4297
3.11214	36.3322
3.11028	36.3367
3.10841	36.3052
3.10655	36.2176
3.10469	36.1467
3.10283	36.1182
3.10098	36.1508
3.09912	36.1181
3.09727	36.0352
3.09542	36.035
3.09358	36.044
3.09173	35.9695
3.08989	35.9459
3.08805	35.9061
3.08621	35.8566
3.08437	35.9906
3.08254	36.058
3.08071	36.03
3.07888	35.997
3.07705	35.9215
3.07523	35.9765
3.0734	36.0284
3.07158	35.9536
3.06977	35.8844
3.06795	35.8943
3.06613	35.9019
3.06432	35.8647
3.06251	35.8348
3.0607	35.7997
3.0589	35.8055
3.0571	35.8806
3.05529	35.8349
3.05349	35.6829
3.0517	35.6813
3.0499	35.7464
3.04811	35.6575
3.04632	35.5716
3.04453	35.6745
3.04274	35.7312
3.04096	35.6435
3.03918	35.5364
3.0374	35.4337
3.03562	35.3558
3.03384	35.3916
3.03207	35.4563
3.03029	35.5324
3.02852	35.5568
3.02676	35.5941
3.02499	35.5586
3.02323	35.4974
3.02146	35.4674
3.0197	35.4677
3.01795	35.3735
3.01619	35.3175
3.01444	35.3474
3.01269	35.4486
3.01094	35.4704
3.00919	35.4092
3.00744	35.4266
3.0057	35.3092
3.00396	35.2396
3.00222	35.2106
3.00048	35.2607
2.99875	35.2361
2.99701	35.2253
2.99528	35.362
2.99355	35.4509
2.99183	35.3357
2.9901	35.2623
2.98838	35.2324
2.98666	35.2754
2.98494	35.3582
2.98322	35.323
2.9815	35.1788
2.97979	35.203
2.97808	35.3131
2.97637	35.308
2.97466	35.3193
2.97295	35.3979
2.97125	35.4877
2.96955	35.5328
2.96785	35.5229
2.96615	35.4845
2.96446	35.52
2.96276	35.6097
2.96107	35.6309
2.95938	35.5675
2.95769	35.6035
2.95601	35.7418
2.95432	35.8817
2.95264	36.0109
2.95096	36.0338
2.94928	36.0232
2.9476	36.0096
2.94593	36.1249
2.94425	36.1974
2.94258	36.3164
2.94092	36.4596
2.93925	36.6077
2.93758	36.6881
2.93592	36.794
2.93426	36.8636
2.9326	36.8697
2.93094	37.0424
2.92928	37.1895
2.92763	37.2084
2.92598	37.304
2.92433	37.5223
2.92268	37.6628
2.92103	37.7734
2.91939	37.9281
2.91775	38.0088
2.9161	38.0908
2.91447	38.2897
2.91283	38.4195
2.91119	38.4546
2.90956	38.6203
2.90793	38.6682
2.9063	38.7482
2.90467	38.9481
2.90304	39.1435
2.90142	39.2463
2.89979	39.3259
2.89817	39.4642
2.89656	39.6841
2.89494	39.8834
2.89332	40.0347
2.89171	40.0785
2.8901	40.1727
2.88849	40.4143
2.88688	40.5302
2.88527	40.5795
2.88367	40.7033
2.88206	40.8893
2.88046	41.1176
2.87886	41.2418
2.87727	41.3866
2.87567	41.6394
2.87408	41.9342
2.87248	42.1142
2.87089	42.2583
2.8693	42.3684
2.86772	42.3971
2.86613	42.592
2.86455	42.7371
2.86297	42.7926
2.86139	42.924
2.85981	43.2162
2.85823	43.4063
2.85666	43.6056
2.85508	43.7303
2.85351	43.727
2.85194	43.9208
2.85038	44.084
2.84881	44.1955
2.84724	44.2852
2.84568	44.3671
2.84412	44.4915
2.84256	44.7628
2.841	44.9327
2.83945	45.0162
2.83789	45.21
2.83634	45.4499
2.83479	45.6346
2.83324	45.7248
2.83169	45.7753
2.83015	45.929
2.82861	46.1584
2.82706	46.3806
2.82552	46.5398
2.82398	46.885
2.82245	47.2219
2.82091	47.5659
2.81938	47.8492
2.81784	48.1499
2.81631	48.4377
2.81479	48.7331
2.81326	48.8013
2.81173	48.9026
2.81021	49.0524
2.80869	49.1468
2.80716	49.3911
2.80565	49.6802
2.80413	49.8855
2.80261	49.8251
2.8011	49.7282
2.79959	49.8033
2.79808	50.131
2.79657	50.515
2.79506	50.8752
2.79355	51.3829
2.79205	51.8387
2.79055	52.13
2.78904	52.6835
2.78754	53.3516
2.78605	53.6651
2.78455	53.9535
2.78306	54.4712
2.78156	54.9701
2.78007	55.3496
2.77858	55.823
2.77709	56.3301
2.77561	56.7474
2.77412	57.1763
2.77264	57.7932
2.77116	58.4693
2.76968	58.8763
2.7682	59.1732
2.76672	59.4561
2.76524	59.7614
2.76377	60.338
2.7623	60.8864
2.76083	61.2861
2.75936	61.7628
2.75789	62.5167
2.75642	63.6837
2.75496	64.462
2.7535	64.5308
2.75203	64.8874
2.75057	65.3465
2.74912	65.8165
2.74766	66.3587
2.7462	66.855
2.74475	67.0267
2.7433	67.6297
2.74185	68.6388
2.7404	69.4751
2.73895	69.9525
2.7375	69.9486
2.73606	70.2483
2.73462	70.7937
2.73318	71.0195
2.73174	71.2859
2.7303	71.5439
2.72886	71.9192
2.72742	72.3951
2.72599	73.1096
2.72456	73.7796
2.72313	73.8544
2.7217	74.3465
2.72027	74.9196
2.71884	74.739
2.71742	74.8221
2.71599	74.9349
2.71457	75.2314
2.71315	75.6156
2.71173	76.5121
2.71032	77.0367
2.7089	76.9522
2.70748	76.8105
2.70607	76.9421
2.70466	77.23
2.70325	77.5753
2.70184	78.0401
2.70043	78.3026
2.69903	78.3616
2.69762	78.576
2.69622	79.0825
2.69482	79.6131
2.69342	79.7385
2.69202	79.5772
2.69062	79.6659
2.68923	80.0305
2.68783	80.282
2.68644	80.4963
2.68505	80.6922
2.68366	80.889
2.68227	80.8419
2.68089	81.0033
2.6795	81.5563
2.67812	81.8651
2.67673	82.2091
2.67535	81.9742
2.67397	81.6056
2.6726	81.7892
2.67122	82.7417
2.66984	82.9558
2.66847	82.4457
2.6671	82.8869
2.66572	83.1304
2.66435	82.8672
2.66299	82.3865
2.66162	82.4393
2.66025	82.6093
2.65889	82.6254
2.65753	82.5577
2.65616	82.7075
2.65481	82.6811
2.65345	82.8011
2.65209	82.8452
2.65073	82.5852
2.64938	82.6033
2.64803	82.8177
2.64667	82.995
2.64532	83.1057
2.64397	83.0295
2.64263	83.1699
2.64128	83.1672
2.63994	83.0567
2.63859	83.0871
2.63725	83.2046
2.63591	83.223
2.63457	83.4112
2.63323	83.4026
2.6319	83.5491
2.63056	83.9857
2.62923	83.6842
2.62789	83.5334
2.62656	83.8107
2.62523	83.5264
2.6239	83.3543
2.62258	83.3792
2.62125	83.8426
2.61993	84.037
2.6186	83.8168
2.61728	84.0887
2.61596	83.8736
2.61464	83.4691
2.61332	83.5199
2.61201	83.4083
2.61069	83.3751
2.60938	83.4909
2.60807	83.5121
2.60675	83.6419
2.60544	83.7003
2.60414	83.3064
2.60283	82.9764
2.60152	82.7435
2.60022	82.5528
2.59891	82.3584
2.59761	82.508
2.59631	83.1393
2.59501	83.8437
2.59371	83.099
2.59242	82.1801
2.59112	81.8046
2.58983	81.6197
2.58853	81.5415
2.58724	81.445
2.58595	81.0387
2.58466	80.9826
2.58338	80.4525
2.58209	79.5649
2.5808	78.8789
2.57952	78.1042
2.57824	77.7444
2.57695	77.3366
2.57567	76.4369
2.5744	75.8532
2.57312	75.181
2.57184	74.1304
2.57057	73.5848
2.56929	73.0503
2.56802	72.3558
2.56675	71.8864
2.56548	71.7021
2.56421	71.5421
2.56294	71.2717
2.56168	71.0217
2.56041	70.6714
2.55915	70.2769
2.55789	70.0488
2.55662	70.0922
2.55536	70.1923
2.5541	70.179
2.55285	70.2419
2.55159	70.3037
2.55034	70.3767
2.54908	70.5584
2.54783	70.7609
2.54658	70.8781
2.54533	71.0553
2.54408	71.3887
2.54283	71.6226
2.54159	71.6634
2.54034	71.8167
2.5391	72.0129
2.53785	72.2146
2.53661	72.4052
2.53537	72.5245
2.53413	72.674
2.53289	72.9763
2.53166	73.1049
2.53042	73.156
2.52919	73.2657
2.52795	73.3311
2.52672	73.3291
2.52549	73.5059
2.52426	73.75
2.52303	73.8174
2.52181	73.9183
2.52058	73.9173
2.51936	73.8719
2.51813	73.9629
2.51691	74.1602
2.51569	74.2698
2.51447	74.3624
2.51325	74.4161
2.51203	74.3882
2.51082	74.5589
2.5096	74.6309
2.50839	74.6164
2.50717	74.6954
2.50596	74.7013
2.50475	74.6592
2.50354	74.7922
2.50233	74.9641
2.50113	75.0765
2.49992	75.0799
2.49872	75.216
2.49751	75.4575
2.49631	75.5921
2.49511	75.6631
2.49391	75.6683
2.49271	75.7452
2.49151	75.9176
2.49031	76.0553
2.48912	76.2845
2.48792	76.4994
2.48673	76.5382
2.48554	76.6605
2.48435	76.8675
2.48316	77.0384
2.48197	77.2215
2.48078	77.3974
2.4796	77.4902
2.47841	77.7328
2.47723	78.002
2.47604	78.2643
2.47486	78.4626
2.47368	78.6324
2.4725	78.7887
2.47132	78.9688
2.47014	79.2143
2.46897	79.4722
2.46779	79.7311
2.46662	79.9247
2.46545	80.1195
2.46427	80.2541
2.4631	80.3391
2.46193	80.4797
2.46077	80.6186
2.4596	80.7488
2.45843	80.8512
2.45727	81.0167
2.4561	81.1743
2.45494	81.3577
2.45378	81.5225
2.45262	81.6938
2.45146	81.7811
2.4503	81.899
2.44914	81.9782
2.44799	82.0651
2.44683	82.082
2.44568	82.1958
2.44452	82.3886
2.44337	82.5372
2.44222	82.6719
2.44107	82.8094
2.43992	82.8963
2.43877	82.8712
2.43763	82.8766
2.43648	82.9699
2.43534	83.1238
2.43419	83.2295
2.43305	83.2694
2.43191	83.3404
2.43077	83.4286
2.42963	83.5161
2.42849	83.5251
2.42736	83.4941
2.42622	83.5765
2.42509	83.7314
2.42395	83.8941
2.42282	83.8728
2.42169	83.9157
2.42056	84.0932
2.41943	84.1319
2.4183	84.1466
2.41717	84.2838
2.41605	84.386
2.41492	84.4408
2.4138	84.5524
2.41267	84.6136
2.41155	84.6441
2.41043	84.6617
2.40931	84.5917
2.40819	84.5653
2.40707	84.6304
2.40595	84.6074
2.40484	84.7198
2.40372	84.7401
2.40261	84.7923
2.4015	84.8762
2.40039	84.7813
2.39928	84.6668
2.39817	84.5984
2.39706	84.454
2.39595	84.3726
2.39484	84.1954
2.39374	83.9837
2.39263	83.9323
2.39153	83.7877
2.39043	83.5489
2.38932	83.2268
2.38822	82.8984
2.38712	82.5558
2.38603	82.1257
2.38493	81.7061
2.38383	81.3266
2.38274	80.9783
2.38164	80.6698
2.38055	80.4492
2.37946	80.242
2.37836	80.0705
2.37727	79.7809
2.37618	79.5388
2.3751	79.4076
2.37401	79.2817
2.37292	79.2542
2.37184	79.1596
2.37075	78.9654
2.36967	78.8871
2.36859	78.9016
2.3675	78.8219
2.36642	78.8318
2.36534	78.9047
2.36427	78.8246
2.36319	78.8192
2.36211	78.9675
2.36104	78.9424
2.35996	78.9384
2.35889	79.048
2.35781	79.1181
2.35674	79.1422
2.35567	79.2362
2.3546	79.3588
2.35353	79.3595
2.35247	79.5165
2.3514	79.6236
2.35033	79.7593
2.34927	79.8465
2.3482	79.8922
2.34714	79.9321
2.34608	80.0568
2.34502	80.1601
2.34396	80.1541
2.3429	80.2263
2.34184	80.3739
2.34078	80.3663
2.33973	80.3317
2.33867	80.4044
2.33762	80.4852
2.33656	80.5366
2.33551	80.4171
2.33446	80.3982
2.33341	80.579
2.33236	80.6191
2.33131	80.6177
2.33026	80.6898
2.32922	80.7028
2.32817	80.7299
2.32712	80.8889
2.32608	81.0416
2.32504	81.0694
2.324	81.0154
2.32295	81.0643
2.32191	81.1408
2.32087	81.2468
2.31984	81.3399
2.3188	81.3976
2.31776	81.4096
2.31673	81.4038
2.31569	81.5457
2.31466	81.5816
2.31362	81.5907
2.31259	81.8012
2.31156	81.8964
2.31053	82.0288
2.3095	82.036
2.30847	82.055
2.30745	82.2762
2.30642	82.431
2.3054	82.5342
2.30437	82.6872
2.30335	82.6865
2.30232	82.7599
2.3013	82.8271
2.30028	82.8519
2.29926	82.9791
2.29824	83.1171
2.29722	83.219
2.29621	83.2336
2.29519	83.407
2.29417	83.6181
2.29316	83.7597
2.29215	83.8439
2.29113	83.9294
2.29012	84.1104
2.28911	84.1845
2.2881	84.3197
2.28709	84.438
2.28608	84.4906
2.28507	84.5203
2.28407	84.6008
2.28306	84.6978
2.28206	84.9606
2.28105	85.0144
2.28005	84.943
2.27905	84.968
2.27805	85.2612
2.27705	85.482
2.27605	85.5261
2.27505	85.5223
2.27405	85.6645
2.27305	85.7167
2.27206	85.676
2.27106	85.7637
2.27007	85.8783
2.26907	85.9562
2.26808	85.9717
2.26709	85.9752
2.2661	86.0843
2.26511	86.2422
2.26412	86.3515
2.26313	86.3889
2.26214	86.3863
2.26116	86.425
2.26017	86.5353
2.25919	86.6047
2.2582	86.6772
2.25722	86.841
2.25624	86.8718
2.25526	86.8671
2.25428	86.9431
2.2533	87.0646
2.25232	87.2016
2.25134	87.1575
2.25036	87.2251
2.24939	87.2639
2.24841	87.2452
2.24744	87.3592
2.24646	87.6256
2.24549	87.783
2.24452	87.7692
2.24355	87.7393
2.24257	87.7229
2.24161	87.6978
2.24064	87.7092
2.23967	87.7928
2.2387	87.8876
2.23774	87.9364
2.23677	87.9884
2.23581	88.1008
2.23484	88.1702
2.23388	88.1975
2.23292	88.1669
2.23196	88.2264
2.231	88.349
2.23004	88.327
2.22908	88.4286
2.22812	88.4925
2.22716	88.4463
2.22621	88.519
2.22525	88.6757
2.2243	88.7131
2.22334	88.6763
2.22239	88.6895
2.22144	88.7879
2.22049	88.7822
2.21953	88.7898
2.21859	88.8666
2.21764	88.9254
2.21669	89.0981
2.21574	89.0289
2.21479	88.9662
2.21385	89.0594
2.2129	89.1388
2.21196	89.132
2.21102	89.137
2.21007	89.1451
2.20913	89.2171
2.20819	89.3016
2.20725	89.2586
2.20631	89.1314
2.20537	89.1348
2.20444	89.2274
2.2035	89.358
2.20256	89.3957
2.20163	89.2905
2.20069	89.3262
2.19976	89.2922
2.19883	89.3093
2.19789	89.3995
2.19696	89.4565
2.19603	89.4792
2.1951	89.4512
2.19417	89.3823
2.19325	89.4073
2.19232	89.3969
2.19139	89.3705
2.19047	89.5117
2.18954	89.6204
2.18862	89.4159
2.18769	89.307
2.18677	89.3823
2.18585	89.4851
2.18493	89.4427
2.18401	89.4518
2.18309	89.4846
2.18217	89.4655
2.18125	89.5501
2.18033	89.515
2.17942	89.3656
2.1785	89.2767
2.17759	89.3988
2.17667	89.4755
2.17576	89.3253
2.17485	89.1511
2.17393	89.2308
2.17302	89.3728
2.17211	89.4437
2.1712	89.3951
2.17029	89.3153
2.16939	89.3089
2.16848	89.1936
2.16757	89.2007
2.16667	89.1626
2.16576	89.1967
2.16486	89.1678
2.16395	89.1033
2.16305	89.2043
2.16215	89.1675
2.16125	89.1418
2.16035	89.2403
2.15945	89.2361
2.15855	89.1076
2.15765	89.0233
2.15675	89.0903
2.15586	89.095
2.15496	89.2136
2.15406	89.3274
2.15317	89.5058
2.15228	89.5567
2.15138	89.4567
2.15049	89.3742
2.1496	89.3696
2.14871	89.3867
2.14782	89.2973
2.14693	89.3854
2.14604	89.4837
2.14515	89.431
2.14427	89.3709
2.14338	89.5174
2.14249	89.5882
2.14161	89.5199
2.14072	89.336
2.13984	89.2478
2.13896	89.5839
2.13808	89.7586
2.13719	89.6895
2.13631	89.6889
2.13543	89.7373
2.13455	89.6912
2.13368	89.7218
2.1328	89.6576
2.13192	89.6513
2.13105	89.6592
2.13017	89.6728
2.1293	89.677
2.12842	89.6562
2.12755	89.7825
2.12668	89.7738
2.1258	89.6076
2.12493	89.4578
2.12406	89.4643
2.12319	89.6472
2.12232	89.6452
2.12145	89.661
2.12059	89.6802
2.11972	89.634
2.11885	89.7348
2.11799	89.7852
2.11712	89.6572
2.11626	89.5588
2.1154	89.6234
2.11453	89.6953
2.11367	89.6087
2.11281	89.4959
2.11195	89.4123
2.11109	89.4772
2.11023	89.5919
2.10937	89.6327
2.10851	89.8009
2.10766	89.7022
2.1068	89.6249
2.10594	89.7025
2.10509	89.745
2.10423	89.7423
2.10338	89.7859
2.10253	89.7367
2.10168	89.6748
2.10082	89.7536
2.09997	89.7826
2.09912	89.7393
2.09827	89.69
2.09742	89.6637
2.09658	89.5995
2.09573	89.6899
2.09488	89.8936
2.09404	89.8683
2.09319	89.8436
2.09235	89.8649
2.0915	89.6672
2.09066	89.6067
2.08982	89.8339
2.08897	89.6658
2.08813	89.581
2.08729	89.6404
2.08645	89.5954
2.08561	89.6954
2.08477	89.6468
2.08394	89.5956
2.0831	89.7446
2.08226	89.8981
2.08143	89.7607
2.08059	89.7043
2.07976	89.8626
2.07892	89.7126
2.07809	89.7319
2.07726	89.8827
2.07643	89.8029
2.07559	89.7417
2.07476	89.7644
2.07393	89.5849
2.0731	89.5267
2.07228	89.604
2.07145	89.7046
2.07062	89.7682
2.06979	89.8144
2.06897	89.862
2.06814	89.6885
2.06732	89.6025
2.06649	89.5249
2.06567	89.5919
2.06485	89.6764
2.06403	89.5737
2.0632	89.5547
2.06238	89.6155
2.06156	89.681
2.06074	89.6138
2.05993	89.4827
2.05911	89.5437
2.05829	89.6621
2.05747	89.5593
2.05666	89.6383
2.05584	89.704
2.05503	89.6181
2.05421	89.7079
2.0534	89.6591
2.05259	89.5183
2.05177	89.6299
2.05096	89.7894
2.05015	89.7563
2.04934	89.5351
2.04853	89.4346
2.04772	89.5689
2.04691	89.5456
2.04611	89.4668
2.0453	89.3745
2.04449	89.3375
2.04369	89.5314
2.04288	89.6453
2.04208	89.4649
2.04127	89.5087
2.04047	89.7666
2.03967	89.7487
2.03886	89.6163
2.03806	89.6606
2.03726	89.6338
2.03646	89.5794
2.03566	89.4358
2.03486	89.3868
2.03407	89.4446
2.03327	89.5084
2.03247	89.5986
2.03167	89.5678
2.03088	89.4146
2.03008	89.3671
2.02929	89.3701
2.0285	89.3244
2.0277	89.218
2.02691	89.3089
2.02612	89.4995
2.02533	89.4578
2.02453	89.266
2.02374	89.1374
2.02295	89.1157
2.02217	89.215
2.02138	89.3629
2.02059	89.4459
2.0198	89.233
2.01902	89.1914
2.01823	89.174
2.01744	89.0061
2.01666	88.9825
2.01588	89.0758
2.01509	89.0337
2.01431	89.0143
2.01353	88.9969
2.01275	88.9167
2.01196	88.8552
2.01118	88.7936
2.0104	88.7321
2.00963	88.8008
2.00885	88.8544
2.00807	89.0566
2.00729	89.2095
2.00651	89.0167
2.00574	88.6781
2.00496	88.7611
2.00419	88.9042
2.00341	88.9029
2.00264	88.906
2.00187	88.8278
2.00109	88.8785
2.00032	88.9464
