Name: Halite NaCl
Type: Mineral
Class: Halides
Subclass: 
Particle Size: 45-125um
Sample No.: H-3A
Owner: JPL
Wavelength range: IR
Origin: USA, Michigan, Wayne County, Detroit
Collected by Ward's
Description: 





Measurement: Hemispherical reflectance
First Column: X
Second Column: Y
X Units:  Wavelength (micrometers)
Y Units:  Reflectance (percent)
First X Value: 15.3853
Last X Value: 2.00032
Number of X Values: 2256
Additional information: h03aa.txt
 
15.3853	64.2322
15.3397	64.3345
15.2945	64.6772
15.2495	64.8695
15.2048	64.8621
15.1603	64.9361
15.1161	65.1958
15.0722	65.2065
15.0285	65.1391
14.9851	65.627
14.9419	65.7663
14.8989	65.6115
14.8563	65.7597
14.8138	65.8461
14.7716	65.7651
14.7296	65.9743
14.6879	66.1758
14.6464	66.3911
14.6052	66.6769
14.5641	66.7659
14.5233	66.7955
14.4828	66.7245
14.4424	66.8629
14.4023	67.174
14.3624	67.2427
14.3227	67.3335
14.2833	67.5227
14.244	67.6681
14.205	67.6853
14.1662	67.745
14.1276	68.0332
14.0892	68.174
14.051	68.1978
14.0131	68.3862
13.9753	68.5358
13.9377	68.5837
13.9004	68.6234
13.8632	68.7691
13.8262	68.9186
13.7895	69.0297
13.7529	69.1506
13.7165	69.3685
13.6803	69.4842
13.6443	69.6358
13.6085	69.8548
13.5729	69.9393
13.5374	70.0898
13.5022	70.3119
13.4671	70.394
13.4322	70.432
13.3975	70.6311
13.363	70.7876
13.3286	70.8818
13.2944	71.0197
13.2604	71.2033
13.2266	71.421
13.193	71.6307
13.1595	71.7091
13.1262	71.7647
13.093	71.8897
13.06	72.0328
13.0272	72.1411
12.9946	72.3151
12.9621	72.4741
12.9298	72.5863
12.8976	72.6876
12.8656	72.6884
12.8337	72.801
12.8021	73.1286
12.7705	73.3977
12.7391	73.5648
12.7079	73.7903
12.6769	73.9229
12.6459	74.0919
12.6152	74.2787
12.5845	74.4095
12.5541	74.4777
12.5238	74.6232
12.4936	74.8661
12.4635	75.02
12.4337	75.1837
12.4039	75.3773
12.3743	75.574
12.3448	75.7509
12.3155	75.8752
12.2863	75.8594
12.2573	75.9764
12.2284	76.1643
12.1996	76.3713
12.171	76.597
12.1425	76.8697
12.1141	77.0368
12.0859	77.2894
12.0578	77.5222
12.0298	77.6842
12.0019	77.8008
11.9742	77.9382
11.9466	78.0454
11.9192	78.229
11.8918	78.3515
11.8646	78.4532
11.8375	78.5948
11.8106	78.7248
11.7837	78.81
11.757	78.8928
11.7304	79.0067
11.7039	79.0563
11.6776	79.1286
11.6513	79.2254
11.6252	79.2753
11.5992	79.3928
11.5733	79.4461
11.5475	79.5002
11.5219	79.6449
11.4963	79.7974
11.4709	79.7907
11.4455	79.7588
11.4203	79.899
11.3952	80.1595
11.3702	80.4168
11.3454	80.5866
11.3206	80.73
11.2959	80.8016
11.2714	80.9519
11.2469	81.1001
11.2226	81.1071
11.1983	81.1457
11.1742	81.2515
11.1502	81.3133
11.1263	81.3761
11.1024	81.4508
11.0787	81.5091
11.0551	81.5652
11.0316	81.5823
11.0081	81.5606
10.9848	81.6331
10.9616	81.831
10.9385	81.965
10.9154	82.0208
10.8925	82.0407
10.8697	82.1132
10.8469	82.1078
10.8243	82.2149
10.8017	82.3326
10.7793	82.3239
10.7569	82.3247
10.7346	82.3473
10.7125	82.3116
10.6904	82.3248
10.6684	82.2654
10.6465	82.2439
10.6247	82.1093
10.6029	81.9555
10.5813	81.8051
10.5597	81.6905
10.5383	81.658
10.5169	81.6712
10.4956	81.7356
10.4744	81.8815
10.4533	82.0982
10.4323	82.3081
10.4113	82.4898
10.3904	82.6321
10.3697	82.7419
10.349	82.7498
10.3284	82.7688
10.3078	82.7236
10.2874	82.6779
10.267	82.7271
10.2467	82.7048
10.2265	82.6142
10.2064	82.5239
10.1863	82.4428
10.1663	82.3708
10.1464	82.3266
10.1266	82.2937
10.1069	82.3442
10.0872	82.278
10.0676	82.1206
10.0481	81.9777
10.0287	81.934
10.0093	81.8976
9.99005	81.7908
9.97084	81.567
9.95169	81.3912
9.93263	81.313
9.91364	81.3124
9.89472	81.1869
9.87587	81.1503
9.8571	81.1652
9.83839	81.1531
9.81976	81.163
9.80119	81.1357
9.78271	81.0849
9.76428	80.9531
9.74592	80.857
9.72764	80.8476
9.70943	80.8317
9.69128	80.7109
9.6732	80.6053
9.65518	80.6535
9.63724	80.7374
9.61935	80.8246
9.60155	80.8213
9.5838	80.8051
9.56611	80.7262
9.5485	80.7148
9.53094	80.7338
9.51345	80.8166
9.49604	80.8491
9.47867	80.8471
9.46137	80.8873
9.44414	81.0115
9.42697	81.1154
9.40986	81.2186
9.39281	81.1795
9.37583	81.0692
9.35891	80.9556
9.34204	80.9367
9.32524	80.9436
9.3085	80.9069
9.29182	80.8665
9.27519	80.76
9.25863	80.5935
9.24213	80.6027
9.22568	80.753
9.2093	80.7535
9.19297	80.7436
9.17669	80.7058
9.16048	80.6873
9.14433	80.7394
9.12823	80.716
9.11218	80.6008
9.0962	80.517
9.08027	80.5808
9.06439	80.5921
9.04858	80.5455
9.03281	80.5077
9.0171	80.5406
9.00145	80.6093
8.98585	80.6505
8.9703	80.6621
8.9548	80.6755
8.93937	80.7348
8.92398	80.7968
8.90865	80.7128
8.89337	80.7153
8.87814	80.8187
8.86296	80.8447
8.84784	80.8909
8.83277	81.1098
8.81774	81.3212
8.80277	81.5053
8.78786	81.5877
8.77298	81.5728
8.75816	81.6047
8.7434	81.7829
8.72868	81.7633
8.714	81.7956
8.69938	81.8887
8.68481	81.871
8.67029	81.7819
8.65581	81.7759
8.64139	81.7209
8.62701	81.7428
8.61268	81.773
8.5984	81.8496
8.58416	81.9573
8.56997	82.0981
8.55583	82.2227
8.54174	82.4444
8.52769	82.5477
8.51368	82.7272
8.49973	82.9304
8.48582	83.0213
8.47195	83.0638
8.45813	83.2423
8.44436	83.3488
8.43062	83.4304
8.41693	83.5108
8.4033	83.5353
8.3897	83.5863
8.37614	83.6802
8.36264	83.6522
8.34917	83.6492
8.33574	83.7143
8.32236	83.7607
8.30903	83.7681
8.29573	83.8511
8.28248	83.8819
8.26927	83.9411
8.2561	84.0601
8.24298	84.0434
8.2299	84.0039
8.21685	84.1435
8.20385	84.1451
8.19089	84.0499
8.17797	84.0169
8.16509	84.1343
8.15225	84.1904
8.13946	84.1656
8.1267	84.2046
8.11398	84.1601
8.10131	84.0676
8.08867	84.1347
8.07606	84.1881
8.0635	84.1865
8.05099	84.2193
8.0385	84.2478
8.02606	84.2095
8.01366	84.1933
8.00129	84.2445
7.98896	84.1988
7.97667	84.1458
7.96442	84.1892
7.9522	84.2165
7.94002	84.205
7.92788	84.1368
7.91578	84.1216
7.90371	84.1561
7.89168	84.1197
7.87969	84.0578
7.86773	84.0771
7.85581	84.0411
7.84392	83.9356
7.83207	83.8075
7.82026	83.7253
7.80849	83.6899
7.79674	83.686
7.78503	83.625
7.77337	83.6064
7.76173	83.6508
7.75012	83.6668
7.73856	83.5575
7.72703	83.48
7.71553	83.5074
7.70406	83.5051
7.69263	83.4349
7.68123	83.425
7.66987	83.3637
7.65855	83.3127
7.64725	83.2515
7.63598	83.1299
7.62475	83.0315
7.61356	83.0168
7.60239	82.9815
7.59126	83.1197
7.58017	83.2123
7.5691	83.2836
7.55806	83.4029
7.54707	83.5638
7.5361	83.6903
7.52516	83.7005
7.51425	83.6181
7.50338	83.5679
7.49253	83.5463
7.48172	83.6135
7.47094	83.7045
7.46019	83.5977
7.44947	83.2408
7.43879	83.1888
7.42813	83.1819
7.4175	83.1949
7.4069	83.0785
7.39634	82.9567
7.3858	82.9274
7.37529	82.8567
7.36482	82.7638
7.35437	82.9205
7.34396	83.2038
7.33357	83.0915
7.32321	82.5621
7.31288	82.463
7.30258	82.4481
7.29231	82.4825
7.28207	82.8759
7.27185	82.959
7.26167	82.5075
7.25152	82.262
7.24139	82.0786
7.23129	82.1351
7.22122	82.3207
7.21117	82.9725
7.20116	82.8469
7.19117	82.341
7.18121	82.6055
7.17128	83.372
7.16137	83.1109
7.1515	82.9598
7.14164	82.6446
7.13182	82.0831
7.12203	82.1901
7.11225	82.053
7.10251	81.5913
7.0928	81.4007
7.08311	81.2944
7.07344	81.1526
7.06381	81.294
7.0542	82.3822
7.04461	83.0891
7.03506	81.7507
7.02552	81.1906
7.01601	81.0606
7.00653	80.9008
6.99708	81.2833
6.98765	81.2549
6.97824	81.0331
6.96886	81.9399
6.95951	82.971
6.95018	81.5998
6.94087	80.7951
6.9316	80.7415
6.92234	80.836
6.91311	81.1764
6.90391	81.3788
6.89473	80.9255
6.88557	80.9518
6.87644	81.6907
6.86733	84.2475
6.85824	84.1729
6.84918	81.7038
6.84015	80.7316
6.83114	81.496
6.82215	81.6095
6.81319	80.7745
6.80424	81.11
6.79532	82.9359
6.78643	83.5972
6.77756	82.715
6.76871	82.137
6.75989	81.6475
6.75109	81.8082
6.74231	81.8188
6.73355	82.1272
6.72482	82.946
6.71611	83.7759
6.70742	83.6395
6.69875	82.6902
6.69011	83.2882
6.68149	84.4667
6.67289	84.0211
6.66431	83.1714
6.65576	82.8526
6.64722	84.7975
6.63871	87.8897
6.63022	86.6268
6.62175	84.2428
6.61331	83.7417
6.60488	83.7364
6.59648	84.5876
6.5881	84.9562
6.57974	85.7437
6.5714	86.733
6.56308	85.2682
6.55478	84.75
6.54651	84.2351
6.53825	83.484
6.53001	83.5997
6.5218	84.6079
6.51361	83.7337
6.50544	84.0759
6.49729	87.0714
6.48915	87.3469
6.48104	85.098
6.47295	83.5435
6.46488	82.1855
6.45683	81.7857
6.4488	81.7216
6.44079	81.7908
6.4328	82.4012
6.42482	83.3427
6.41687	86.3954
6.40894	85.0703
6.40103	81.0263
6.39314	79.9492
6.38526	79.6626
6.37741	80.007
6.36957	80.5076
6.36176	79.1552
6.35396	79.0141
6.34618	80.6284
6.33843	79.5445
6.33069	77.6195
6.32297	77.1634
6.31527	76.8529
6.30758	76.592
6.29992	76.2689
6.29227	76.0622
6.28465	75.7994
6.27704	75.5653
6.26945	75.2313
6.26188	74.7818
6.25432	74.3576
6.24679	74.1122
6.23927	73.758
6.23177	73.3512
6.22429	72.9928
6.21683	72.7113
6.20938	72.2371
6.20195	71.7375
6.19454	72.064
6.18715	73.5109
6.17978	72.4989
6.17242	70.8816
6.16508	71.1961
6.15776	71.3878
6.15045	70.6994
6.14317	70.5316
6.1359	70.0464
6.12864	69.692
6.12141	70.8694
6.11419	72.5828
6.10699	71.3078
6.0998	69.8523
6.09263	69.6164
6.08549	69.9719
6.07835	71.6378
6.07123	72.5573
6.06413	71.4415
6.05705	72.7669
6.04998	76.6875
6.04293	74.5563
6.0359	71.6544
6.02888	71.3831
6.02187	72.0238
6.01489	73.0599
6.00792	72.959
6.00096	73.1188
5.99403	74.8049
5.98711	75.6386
5.9802	75.2316
5.97331	76.3038
5.96644	77.0027
5.95958	76.1379
5.95274	76.6178
5.94591	78.0979
5.9391	81.1842
5.9323	80.7715
5.92552	78.909
5.91876	78.9861
5.91201	79.2441
5.90528	80.2964
5.89856	83.0065
5.89186	83.3189
5.88517	84.6867
5.8785	85.4959
5.87184	83.0164
5.8652	83.2844
5.85857	83.3472
5.85196	83.0912
5.84536	83.2017
5.83878	84.0012
5.83221	85.3675
5.82566	87.1801
5.81912	87.329
5.81259	85.4936
5.80608	84.9674
5.79959	85.2814
5.79311	85.4144
5.78665	85.8752
5.78019	86.5577
5.77376	88.0057
5.76734	90.2558
5.76093	88.8204
5.75453	87.4777
5.74815	88.3501
5.74179	88.0875
5.73543	87.8984
5.7291	87.9647
5.72277	88.5068
5.71646	89.1998
5.71017	89.5984
5.70389	88.5375
5.69762	88.2374
5.69136	88.6742
5.68513	88.4701
5.6789	89.0401
5.67268	89.0926
5.66648	88.3602
5.6603	88.8435
5.65413	89.4178
5.64797	90.0763
5.64182	91.0678
5.63569	89.9411
5.62957	88.992
5.62347	88.8969
5.61737	89.107
5.61129	89.0029
5.60522	89.1253
5.59917	89.1474
5.59313	88.8653
5.5871	89.4295
5.58109	90.5064
5.57509	90.2082
5.5691	89.23
5.56312	89.243
5.55716	89.6163
5.55121	89.7715
5.54528	89.3331
5.53935	89.0953
5.53344	89.113
5.52754	89.3846
5.52166	89.4912
5.51578	89.2792
5.50992	89.1057
5.50407	89.2367
5.49823	89.1996
5.49241	89.1906
5.4866	89.34
5.4808	89.869
5.47501	89.7574
5.46923	89.9766
5.46347	90.3011
5.45772	89.6595
5.45198	89.3562
5.44625	89.4268
5.44054	89.422
5.43484	89.3912
5.42914	89.8204
5.42347	90.8803
5.4178	90.407
5.41214	89.5536
5.4065	89.3307
5.40087	89.2604
5.39525	89.3747
5.38964	89.3924
5.38404	89.3953
5.37846	89.3731
5.37288	89.3664
5.36732	89.3592
5.36177	89.493
5.35623	90.0229
5.35071	90.4428
5.34519	89.8551
5.33968	89.3507
5.33419	89.3653
5.32871	89.3465
5.32324	89.3049
5.31778	89.3025
5.31233	89.3156
5.30689	89.3713
5.30147	89.3312
5.29605	89.5344
5.29065	89.7066
5.28525	89.3659
5.27987	89.3507
5.2745	89.3796
5.26914	89.2843
5.26379	89.1955
5.25845	89.2027
5.25312	89.2489
5.24781	89.2812
5.2425	89.3423
5.23721	89.4357
5.23192	89.3499
5.22665	89.2015
5.22138	89.2571
5.21613	89.7676
5.21089	89.6985
5.20566	89.3217
5.20044	89.4105
5.19522	89.2217
5.19002	89.0883
5.18483	89.0688
5.17965	89.047
5.17448	89.0702
5.16933	89.0803
5.16418	89.0229
5.15904	89.0016
5.15391	89.137
5.14879	89.3977
5.14368	89.2283
5.13859	88.9986
5.1335	88.9688
5.12842	88.9046
5.12335	88.8954
5.1183	88.8774
5.11325	88.8108
5.10821	88.7432
5.10318	88.796
5.09817	88.8277
5.09316	88.796
5.08816	88.8066
5.08317	88.8108
5.07819	88.7178
5.07322	88.6533
5.06826	88.6205
5.06331	88.6199
5.05837	88.5902
5.05344	88.5911
5.04852	88.5702
5.04361	88.5176
5.03871	88.442
5.03382	88.4076
5.02894	88.4134
5.02406	88.476
5.0192	88.5292
5.01435	88.3808
5.0095	88.319
5.00467	88.3256
4.99984	88.2947
4.99502	88.2295
4.99021	88.1699
4.98542	88.1944
4.98063	88.1907
4.97585	88.1693
4.97108	88.0625
4.96632	87.9825
4.96156	88.0472
4.95682	88.1294
4.95209	88.1182
4.94736	88.0355
4.94264	87.9432
4.93794	87.8962
4.93324	87.8742
4.92855	87.8785
4.92387	87.8562
4.9192	87.8745
4.91453	87.831
4.90988	87.8069
4.90524	87.7829
4.9006	87.7927
4.89597	87.7544
4.89135	87.7096
4.88674	87.6828
4.88214	87.6503
4.87755	87.616
4.87296	87.6066
4.86839	87.5928
4.86382	87.5555
4.85926	87.5631
4.85471	87.5755
4.85017	87.527
4.84564	87.5339
4.84111	87.606
4.8366	87.5846
4.83209	87.5754
4.82759	87.6057
4.8231	87.5728
4.81862	87.509
4.81415	87.4946
4.80968	87.5057
4.80522	87.5007
4.80077	87.4946
4.79633	87.4482
4.7919	87.4459
4.78747	87.4288
4.78306	87.4449
4.77865	87.5166
4.77425	87.5279
4.76986	87.4551
4.76547	87.4269
4.7611	87.4191
4.75673	87.4063
4.75237	87.4043
4.74802	87.4332
4.74367	87.4147
4.73934	87.4465
4.73501	87.5083
4.73069	87.5204
4.72638	87.431
4.72207	87.4523
4.71777	87.4579
4.71348	87.3711
4.7092	87.423
4.70493	87.4784
4.70066	87.4308
4.69641	87.4258
4.69216	87.4361
4.68791	87.4473
4.68368	87.4531
4.67945	87.4269
4.67523	87.4187
4.67102	87.4478
4.66682	87.5104
4.66262	87.5776
4.65843	87.5841
4.65425	87.5401
4.65007	87.4952
4.64591	87.4788
4.64175	87.4871
4.6376	87.5261
4.63345	87.6043
4.62932	87.6601
4.62519	87.6925
4.62106	87.6663
4.61695	87.6478
4.61284	87.6692
4.60874	87.6162
4.60465	87.6276
4.60056	87.644
4.59648	87.6318
4.59241	87.6613
4.58835	87.7269
4.58429	87.7468
4.58024	87.7334
4.5762	87.7506
4.57216	87.7976
4.56814	87.8461
4.56411	87.8266
4.5601	87.8127
4.55609	87.8428
4.55209	87.8172
4.5481	87.7472
4.54411	87.743
4.54013	87.7958
4.53616	87.8394
4.5322	87.8886
4.52824	87.8803
4.52429	87.8827
4.52034	87.8837
4.51641	87.8759
4.51247	87.8836
4.50855	87.9475
4.50463	87.9141
4.50072	87.8971
4.49682	87.9248
4.49292	87.9307
4.48903	87.9189
4.48515	87.9957
4.48127	87.9974
4.4774	87.93
4.47354	87.9188
4.46968	87.9692
4.46584	87.9879
4.46199	88.0297
4.45815	88.0402
4.45432	88.0661
4.4505	88.0411
4.44668	88.0337
4.44287	88.0057
4.43907	88.0701
4.43527	88.1194
4.43148	88.1006
4.4277	88.0901
4.42392	88.1404
4.42015	88.1229
4.41638	88.1175
4.41262	88.0949
4.40887	88.1003
4.40513	88.1607
4.40139	88.1837
4.39765	88.1269
4.39393	88.0988
4.39021	88.1565
4.38649	88.15
4.38278	88.1578
4.37908	88.1688
4.37539	88.1945
4.3717	88.2326
4.36801	88.2249
4.36434	88.2278
4.36067	88.2389
4.357	88.234
4.35335	88.2452
4.34969	88.288
4.34605	88.3238
4.34241	88.3318
4.33877	88.3757
4.33514	88.4827
4.33152	88.484
4.32791	88.4308
4.3243	88.4668
4.32069	88.5188
4.3171	88.5882
4.31351	88.6157
4.30992	88.5974
4.30634	88.6054
4.30277	88.698
4.2992	88.7481
4.29564	88.7396
4.29208	88.7546
4.28853	88.7612
4.28499	88.7263
4.28145	88.7974
4.27792	88.8836
4.27439	88.8991
4.27087	88.8999
4.26735	88.8803
4.26384	88.7807
4.26034	88.7079
4.25684	88.7448
4.25335	88.8015
4.24986	88.859
4.24638	88.9344
4.24291	88.9736
4.23944	89.0359
4.23598	89.0953
4.23252	89.1148
4.22906	89.1096
4.22562	89.1059
4.22218	89.1252
4.21874	89.0362
4.21531	88.9627
4.21189	88.9349
4.20847	88.9245
4.20506	88.9168
4.20165	88.9321
4.19825	88.8978
4.19485	88.8642
4.19146	88.8522
4.18807	88.9026
4.18469	88.9256
4.18132	88.8985
4.17795	88.9151
4.17458	88.9675
4.17123	88.9474
4.16787	88.9104
4.16453	88.8846
4.16118	88.9019
4.15785	88.9066
4.15451	88.9046
4.15119	88.966
4.14787	89.0837
4.14455	89.1129
4.14124	89.083
4.13794	89.0572
4.13464	89.0726
4.13134	89.0926
4.12805	89.0603
4.12477	89.0968
4.12149	89.1611
4.11822	89.1928
4.11495	89.1302
4.11168	89.0817
4.10843	89.1397
4.10517	89.1753
4.10192	89.1694
4.09868	89.1714
4.09545	89.1753
4.09221	89.1728
4.08899	89.1946
4.08576	89.2469
4.08255	89.2297
4.07933	89.1898
4.07613	89.1853
4.07292	89.2708
4.06973	89.2608
4.06654	89.2581
4.06335	89.2972
4.06017	89.2796
4.05699	89.2341
4.05382	89.2055
4.05065	89.2518
4.04749	89.2794
4.04433	89.2892
4.04118	89.3227
4.03803	89.3279
4.03489	89.3376
4.03175	89.3428
4.02862	89.3071
4.02549	89.3057
4.02237	89.3547
4.01925	89.3683
4.01614	89.3569
4.01303	89.3835
4.00993	89.4197
4.00683	89.4325
4.00373	89.3571
4.00064	89.3847
3.99756	89.465
3.99448	89.4961
3.9914	89.4668
3.98833	89.4153
3.98527	89.3445
3.98221	89.3711
3.97915	89.4127
3.9761	89.4138
3.97305	89.3837
3.97001	89.4216
3.96697	89.4777
3.96394	89.4152
3.96091	89.3805
3.95789	89.4236
3.95487	89.4365
3.95186	89.4468
3.94885	89.4418
3.94584	89.4513
3.94284	89.4834
3.93984	89.566
3.93685	89.6497
3.93386	89.6154
3.93088	89.5277
3.9279	89.4738
3.92493	89.4823
3.92196	89.4564
3.919	89.3973
3.91604	89.483
3.91308	89.5578
3.91013	89.5534
3.90718	89.5536
3.90424	89.5076
3.9013	89.5512
3.89837	89.6234
3.89544	89.5727
3.89252	89.53
3.8896	89.591
3.88668	89.6455
3.88377	89.6351
3.88086	89.5725
3.87796	89.5238
3.87506	89.5216
3.87217	89.5023
3.86928	89.5717
3.86639	89.5887
3.86351	89.5613
3.86064	89.5807
3.85776	89.5709
3.8549	89.527
3.85203	89.4761
3.84917	89.5369
3.84631	89.6171
3.84346	89.6249
3.84062	89.595
3.83777	89.5179
3.83494	89.4623
3.8321	89.4698
3.82927	89.4628
3.82644	89.4025
3.82362	89.405
3.82081	89.4759
3.81799	89.5457
3.81518	89.5492
3.81238	89.479
3.80958	89.3876
3.80678	89.3751
3.80399	89.4217
3.8012	89.4705
3.79841	89.4758
3.79563	89.4312
3.79286	89.3892
3.79008	89.4135
3.78731	89.4717
3.78455	89.4343
3.78179	89.3825
3.77903	89.4073
3.77628	89.423
3.77353	89.4128
3.77079	89.3959
3.76805	89.3501
3.76531	89.2869
3.76258	89.2312
3.75985	89.2531
3.75713	89.3056
3.7544	89.3754
3.75169	89.3525
3.74898	89.2216
3.74627	89.179
3.74356	89.2327
3.74086	89.3165
3.73816	89.3667
3.73547	89.3142
3.73278	89.2488
3.7301	89.1741
3.72741	89.1153
3.72474	89.143
3.72206	89.1264
3.71939	89.1117
3.71673	89.1135
3.71406	89.138
3.71141	89.1451
3.70875	89.1001
3.7061	89.0671
3.70345	89.0328
3.70081	89.0119
3.69817	89.005
3.69553	88.9399
3.6929	88.8946
3.69027	88.9632
3.68765	88.9941
3.68503	88.9501
3.68241	88.8986
3.6798	88.8529
3.67719	88.8313
3.67458	88.8205
3.67198	88.8013
3.66938	88.8037
3.66678	88.7633
3.66419	88.7879
3.66161	88.8064
3.65902	88.7264
3.65644	88.6721
3.65387	88.73
3.65129	88.7322
3.64872	88.6579
3.64616	88.6393
3.64359	88.6213
3.64103	88.5555
3.63848	88.4703
3.63593	88.4823
3.63338	88.5859
3.63084	88.5657
3.6283	88.4728
3.62576	88.4396
3.62322	88.4282
3.62069	88.4352
3.61817	88.4153
3.61564	88.3813
3.61312	88.3747
3.61061	88.3478
3.6081	88.2779
3.60559	88.2237
3.60308	88.1796
3.60058	88.1975
3.59808	88.1364
3.59558	88.0912
3.59309	88.1003
3.59061	88.0992
3.58812	88.0485
3.58564	87.9431
3.58316	87.8917
3.58069	87.8959
3.57822	87.8744
3.57575	87.7996
3.57328	87.7562
3.57082	87.7844
3.56836	87.7792
3.56591	87.7046
3.56346	87.6019
3.56101	87.5004
3.55857	87.4332
3.55613	87.4351
3.55369	87.4336
3.55126	87.3434
3.54883	87.2788
3.5464	87.2474
3.54397	87.2204
3.54155	87.1112
3.53914	87.0545
3.53672	87.0713
3.53431	87.0619
3.5319	86.9927
3.5295	86.8918
3.5271	86.7608
3.5247	86.6572
3.52231	86.621
3.51991	86.5343
3.51753	86.3641
3.51514	86.2286
3.51276	86.1279
3.51038	85.9222
3.50801	85.691
3.50563	85.4312
3.50327	85.2918
3.5009	85.2433
3.49854	85.2375
3.49618	85.2234
3.49382	85.1718
3.49147	85.154
3.48912	85.1443
3.48677	85.1065
3.48443	85.1216
3.48209	85.0973
3.47975	84.9355
3.47742	84.7995
3.47509	84.7039
3.47276	84.7177
3.47044	84.7327
3.46812	84.7015
3.4658	84.722
3.46348	84.7156
3.46117	84.6247
3.45886	84.5372
3.45656	84.5035
3.45425	84.445
3.45195	84.3882
3.44966	84.3274
3.44736	84.1872
3.44507	84.0902
3.44279	84.0354
3.4405	83.9169
3.43822	83.7116
3.43594	83.4967
3.43367	83.4133
3.43139	83.2369
3.42912	83.0496
3.42686	82.9024
3.42459	82.7265
3.42233	82.5462
3.42007	82.3684
3.41782	82.2962
3.41557	82.27
3.41332	82.1923
3.41108	82.1413
3.40883	82.1072
3.40659	82.1352
3.40435	82.2431
3.40212	82.3209
3.39989	82.2734
3.39766	82.3632
3.39544	82.4482
3.39322	82.462
3.391	82.4328
3.38878	82.3504
3.38657	82.1951
3.38436	81.9771
3.38215	81.836
3.37994	81.6699
3.37774	81.3852
3.37554	81.1451
3.37335	80.9413
3.37115	80.8321
3.36896	80.7212
3.36678	80.5648
3.36459	80.5101
3.36241	80.6049
3.36023	80.7455
3.35805	80.8556
3.35588	81.0028
3.35371	81.041
3.35154	81.0613
3.34938	81.1812
3.34721	81.2013
3.34505	81.2151
3.3429	81.2511
3.34074	81.2291
3.33859	81.1899
3.33644	81.0329
3.3343	80.967
3.33215	80.984
3.33001	80.8828
3.32788	80.8121
3.32574	80.7377
3.32361	80.6474
3.32148	80.5163
3.31936	80.3731
3.31723	80.2535
3.31511	80.1314
3.31299	80.0174
3.31088	79.949
3.30876	79.856
3.30665	79.7828
3.30455	79.6784
3.30244	79.4324
3.30034	79.2811
3.29824	79.1878
3.29614	79.048
3.29405	78.8824
3.29196	78.7598
3.28987	78.6799
3.28778	78.534
3.2857	78.3895
3.28362	78.212
3.28154	78.0824
3.27946	78.0067
3.27739	77.8933
3.27532	77.747
3.27325	77.6143
3.27119	77.4657
3.26913	77.2868
3.26707	77.1529
3.26501	77.0153
3.26295	76.8582
3.2609	76.729
3.25885	76.6074
3.2568	76.3866
3.25476	76.1846
3.25272	76.0875
3.25068	75.9651
3.24864	75.8172
3.24661	75.6394
3.24458	75.4314
3.24255	75.2496
3.24052	75.1399
3.2385	75.0042
3.23648	74.8077
3.23446	74.6473
3.23244	74.5711
3.23043	74.4477
3.22841	74.2085
3.2264	74.0154
3.2244	73.8867
3.22239	73.6928
3.22039	73.5447
3.21839	73.3434
3.2164	73.1615
3.2144	73.021
3.21241	72.9148
3.21042	72.7719
3.20844	72.5843
3.20645	72.3879
3.20447	72.2338
3.20249	72.0387
3.20051	71.8903
3.19854	71.7207
3.19657	71.5115
3.1946	71.3305
3.19263	71.1592
3.19067	71.0633
3.1887	70.8365
3.18674	70.5574
3.18479	70.3707
3.18283	70.1868
3.18088	70.0205
3.17893	69.9079
3.17698	69.7477
3.17504	69.5505
3.17309	69.3837
3.17115	69.2078
3.16921	69.004
3.16728	68.9039
3.16534	68.7284
3.16341	68.5064
3.16148	68.3162
3.15956	68.1566
3.15763	68.0493
3.15571	67.8044
3.15379	67.5735
3.15187	67.3715
3.14996	67.224
3.14805	67.1373
3.14614	67.005
3.14423	66.8149
3.14232	66.6604
3.14042	66.4251
3.13852	66.2081
3.13662	66.0433
3.13472	65.9308
3.13283	65.8331
3.13094	65.6681
3.12905	65.457
3.12716	65.296
3.12528	65.1109
3.12339	64.9797
3.12151	64.9145
3.11964	64.7716
3.11776	64.6048
3.11589	64.408
3.11401	64.195
3.11214	64.0433
3.11028	63.9141
3.10841	63.7436
3.10655	63.6344
3.10469	63.5213
3.10283	63.4706
3.10098	63.4188
3.09912	63.2316
3.09727	63.0413
3.09542	62.8763
3.09358	62.8292
3.09173	62.7945
3.08989	62.6662
3.08805	62.535
3.08621	62.4393
3.08437	62.3871
3.08254	62.3106
3.08071	62.1266
3.07888	61.9374
3.07705	61.8665
3.07523	61.8378
3.0734	61.821
3.07158	61.6959
3.06977	61.6175
3.06795	61.5481
3.06613	61.4905
3.06432	61.4892
3.06251	61.3485
3.0607	61.1619
3.0589	61.1953
3.0571	61.2208
3.05529	61.1237
3.05349	60.9935
3.0517	60.8449
3.0499	60.7505
3.04811	60.6936
3.04632	60.6367
3.04453	60.5384
3.04274	60.4441
3.04096	60.3332
3.03918	60.3124
3.0374	60.2293
3.03562	60.1573
3.03384	60.0517
3.03207	59.9293
3.03029	59.8518
3.02852	59.8223
3.02676	59.7001
3.02499	59.5582
3.02323	59.573
3.02146	59.5517
3.0197	59.3567
3.01795	59.1007
3.01619	58.941
3.01444	58.9396
3.01269	58.9069
3.01094	58.8264
3.00919	58.8223
3.00744	58.7522
3.0057	58.6613
3.00396	58.6574
3.00222	58.476
3.00048	58.3057
2.99875	58.2158
2.99701	58.1189
2.99528	58.0357
2.99355	57.9297
2.99183	57.8772
2.9901	57.8572
2.98838	57.7625
2.98666	57.679
2.98494	57.5923
2.98322	57.4444
2.9815	57.4175
2.97979	57.3974
2.97808	57.3646
2.97637	57.3292
2.97466	57.2044
2.97295	57.0502
2.97125	57.1388
2.96955	57.1476
2.96785	57.102
2.96615	57.0239
2.96446	56.8966
2.96276	56.7369
2.96107	56.8318
2.95938	56.8866
2.95769	56.7445
2.95601	56.7939
2.95432	56.9064
2.95264	56.9027
2.95096	56.8643
2.94928	56.8316
2.9476	56.7508
2.94593	56.7084
2.94425	56.7803
2.94258	56.8538
2.94092	56.8368
2.93925	56.833
2.93758	56.8171
2.93592	56.7526
2.93426	56.725
2.9326	56.8175
2.93094	56.9403
2.92928	57.016
2.92763	57.0295
2.92598	56.9401
2.92433	56.999
2.92268	57.1513
2.92103	57.1053
2.91939	57.139
2.91775	57.2408
2.9161	57.2136
2.91447	57.255
2.91283	57.3539
2.91119	57.4633
2.90956	57.5494
2.90793	57.6559
2.9063	57.7421
2.90467	57.8408
2.90304	57.9156
2.90142	57.9682
2.89979	58.0059
2.89817	58.0828
2.89656	58.1854
2.89494	58.2215
2.89332	58.3136
2.89171	58.4239
2.8901	58.4737
2.88849	58.6043
2.88688	58.7727
2.88527	58.9246
2.88367	58.998
2.88206	59.0146
2.88046	59.1328
2.87886	59.2873
2.87727	59.3768
2.87567	59.4287
2.87408	59.6199
2.87248	59.8164
2.87089	59.7798
2.8693	59.7933
2.86772	60.013
2.86613	60.2833
2.86455	60.4312
2.86297	60.49
2.86139	60.5074
2.85981	60.5955
2.85823	60.7279
2.85666	60.9835
2.85508	61.2385
2.85351	61.256
2.85194	61.3325
2.85038	61.5493
2.84881	61.6407
2.84724	61.7643
2.84568	61.9551
2.84412	62.0845
2.84256	62.2627
2.841	62.3504
2.83945	62.6143
2.83789	62.8968
2.83634	63.0441
2.83479	63.195
2.83324	63.3164
2.83169	63.4053
2.83015	63.5313
2.82861	63.689
2.82706	63.7931
2.82552	63.8721
2.82398	64.1411
2.82245	64.4748
2.82091	64.9661
2.81938	65.258
2.81784	65.15
2.81631	65.2247
2.81479	65.6191
2.81326	65.7514
2.81173	65.7495
2.81021	66.035
2.80869	66.3792
2.80716	66.6509
2.80565	67.0716
2.80413	67.7798
2.80261	68.1039
2.8011	67.6436
2.79959	67.4383
2.79808	67.6439
2.79657	67.9831
2.79506	68.2528
2.79355	68.496
2.79205	68.613
2.79055	68.773
2.78904	69.5207
2.78754	70.5836
2.78605	70.5087
2.78455	69.9339
2.78306	70.2353
2.78156	70.6614
2.78007	70.7316
2.77858	70.87
2.77709	71.1821
2.77561	71.3583
2.77412	71.6731
2.77264	72.4405
2.77116	73.3825
2.76968	73.5115
2.7682	73.6556
2.76672	73.7309
2.76524	73.8646
2.76377	74.6872
2.7623	75.0476
2.76083	74.5231
2.75936	74.524
2.75789	75.2183
2.75642	77.2433
2.75496	78.1891
2.7535	76.8149
2.75203	76.6741
2.75057	76.7749
2.74912	76.9307
2.74766	77.2912
2.7462	77.6609
2.74475	78.1308
2.7433	79.0023
2.74185	80.789
2.7404	82.3795
2.73895	81.9933
2.7375	80.5453
2.73606	80.919
2.73462	81.8415
2.73318	81.3457
2.73174	81.2688
2.7303	81.5728
2.72886	81.8522
2.72742	82.4412
2.72599	84.0458
2.72456	85.6072
2.72313	84.9154
2.7217	85.8274
2.72027	87.1764
2.71884	85.5188
2.71742	84.8866
2.71599	84.6654
2.71457	84.8201
2.71315	85.3684
2.71173	87.2833
2.71032	87.9478
2.7089	87.0445
2.70748	86.2175
2.70607	86.0149
2.70466	86.0832
2.70325	86.2835
2.70184	87.0366
2.70043	87.1257
2.69903	86.836
2.69762	87.1364
2.69622	88.1232
2.69482	89.3902
2.69342	89.5763
2.69202	88.1895
2.69062	87.6946
2.68923	87.9687
2.68783	88.3102
2.68644	88.6444
2.68505	88.7525
2.68366	88.9311
2.68227	88.5571
2.68089	88.7266
2.6795	90.1025
2.67812	90.6751
2.67673	91.1435
2.67535	90.091
2.67397	89.047
2.6726	89.4539
2.67122	92.2836
2.66984	92.5509
2.66847	90.7042
2.6671	92.135
2.66572	92.5392
2.66435	91.1561
2.66299	89.3745
2.66162	89.4242
2.66025	89.6994
2.65889	89.33
2.65753	88.7258
2.65616	89.3367
2.65481	89.3795
2.65345	89.636
2.65209	89.8621
2.65073	89.0645
2.64938	88.5904
2.64803	88.695
2.64667	89.2001
2.64532	89.4397
2.64397	88.8975
2.64263	88.9722
2.64128	88.9752
2.63994	88.8572
2.63859	88.7268
2.63725	88.7834
2.63591	88.9066
2.63457	89.5426
2.63323	89.7387
2.6319	90.3749
2.63056	91.8001
2.62923	90.5163
2.62789	90.0409
2.62656	90.9205
2.62523	89.656
2.6239	88.968
2.62258	89.0948
2.62125	90.6616
2.61993	91.2009
2.6186	90.4279
2.61728	91.6037
2.61596	90.8913
2.61464	89.4243
2.61332	89.5257
2.61201	89.3731
2.61069	89.7316
2.60938	90.1565
2.60807	90.2595
2.60675	91.0926
2.60544	91.9362
2.60414	91.0872
2.60283	90.2171
2.60152	89.8386
2.60022	89.3147
2.59891	88.9759
2.59761	89.5943
2.59631	91.9521
2.59501	94.8606
2.59371	92.691
2.59242	89.8387
2.59112	89.2548
2.58983	89.7598
2.58853	90.311
2.58724	90.6308
2.58595	90.0624
2.58466	90.9153
2.58338	91.0448
2.58209	90.028
2.5808	89.9738
2.57952	89.1491
2.57824	89.4643
2.57695	90.2429
2.57567	89.8831
2.5744	90.3148
2.57312	90.6845
2.57184	89.5571
2.57057	89.9748
2.56929	90.2304
2.56802	89.3138
2.56675	88.9274
2.56548	89.5977
2.56421	90.4673
2.56294	90.7806
2.56168	90.9076
2.56041	90.2074
2.55915	89.194
2.55789	88.8799
2.55662	88.8659
2.55536	88.8727
2.5541	89.1945
2.55285	89.6353
2.55159	89.4937
2.55034	89.2282
2.54908	89.1198
2.54783	89.3038
2.54658	89.11
2.54533	89.1359
2.54408	89.4412
2.54283	89.4989
2.54159	89.117
2.54034	88.9086
2.5391	88.9268
2.53785	89.0923
2.53661	89.4209
2.53537	89.3318
2.53413	89.0377
2.53289	89.2222
2.53166	89.205
2.53042	89.0055
2.52919	88.8731
2.52795	88.931
2.52672	88.8816
2.52549	89.0337
2.52426	89.1041
2.52303	89.0068
2.52181	88.8924
2.52058	88.929
2.51936	88.95
2.51813	88.9947
2.51691	89.0363
2.51569	88.9797
2.51447	88.9364
2.51325	88.8752
2.51203	88.8652
2.51082	88.9057
2.5096	88.8636
2.50839	88.9031
2.50717	88.9811
2.50596	89.018
2.50475	88.957
2.50354	88.895
2.50233	88.8657
2.50113	88.9173
2.49992	89.0522
2.49872	89.0547
2.49751	89.0108
2.49631	88.9908
2.49511	89.0322
2.49391	89.0055
2.49271	88.9196
2.49151	88.9823
2.49031	89.0334
2.48912	89.0618
2.48792	89.0698
2.48673	89.0227
2.48554	89.0655
2.48435	89.0803
2.48316	89.1146
2.48197	89.1062
2.48078	89.0306
2.4796	88.9712
2.47841	88.9558
2.47723	88.9847
2.47604	89.1058
2.47486	89.1162
2.47368	89.0684
2.4725	89.1517
2.47132	89.1875
2.47014	89.1966
2.46897	89.1736
2.46779	89.093
2.46662	88.9539
2.46545	89.0105
2.46427	89.1478
2.4631	89.1322
2.46193	89.0976
2.46077	89.042
2.4596	88.9868
2.45843	89.0629
2.45727	89.1059
2.4561	89.2072
2.45494	89.3175
2.45378	89.2572
2.45262	89.1743
2.45146	89.1843
2.4503	89.1358
2.44914	89.0812
2.44799	89.1576
2.44683	89.1764
2.44568	89.2452
2.44452	89.2969
2.44337	89.3073
2.44222	89.2102
2.44107	89.1587
2.43992	89.0748
2.43877	89.0244
2.43763	89.1249
2.43648	89.2429
2.43534	89.2324
2.43419	89.1411
2.43305	89.1965
2.43191	89.2513
2.43077	89.2377
2.42963	89.2925
2.42849	89.228
2.42736	89.2133
2.42622	89.2421
2.42509	89.3165
2.42395	89.3834
2.42282	89.3141
2.42169	89.2057
2.42056	89.2698
2.41943	89.4009
2.4183	89.4067
2.41717	89.3568
2.41605	89.3576
2.41492	89.2955
2.4138	89.317
2.41267	89.3411
2.41155	89.268
2.41043	89.2495
2.40931	89.3131
2.40819	89.3739
2.40707	89.3981
2.40595	89.316
2.40484	89.2486
2.40372	89.2884
2.40261	89.3949
2.4015	89.4606
2.40039	89.4482
2.39928	89.3548
2.39817	89.2883
2.39706	89.2753
2.39595	89.3581
2.39484	89.3835
2.39374	89.3819
2.39263	89.3709
2.39153	89.3418
2.39043	89.356
2.38932	89.3533
2.38822	89.3285
2.38712	89.4158
2.38603	89.4331
2.38493	89.4121
2.38383	89.3468
2.38274	89.3151
2.38164	89.4574
2.38055	89.5079
2.37946	89.4929
2.37836	89.5843
2.37727	89.4742
2.37618	89.2693
2.3751	89.2827
2.37401	89.3098
2.37292	89.3078
2.37184	89.3609
2.37075	89.366
2.36967	89.3388
2.36859	89.4206
2.3675	89.4833
2.36642	89.4628
2.36534	89.4493
2.36427	89.5238
2.36319	89.5695
2.36211	89.4988
2.36104	89.4181
2.35996	89.4224
2.35889	89.4608
2.35781	89.4583
2.35674	89.426
2.35567	89.419
2.3546	89.4215
2.35353	89.5421
2.35247	89.6032
2.3514	89.5309
2.35033	89.4496
2.34927	89.4931
2.3482	89.505
2.34714	89.2693
2.34608	89.3288
2.34502	89.4629
2.34396	89.495
2.3429	89.4784
2.34184	89.5076
2.34078	89.6026
2.33973	89.6206
2.33867	89.5804
2.33762	89.493
2.33656	89.4397
2.33551	89.5239
2.33446	89.546
2.33341	89.5102
2.33236	89.4857
2.33131	89.4198
2.33026	89.3873
2.32922	89.4258
2.32817	89.4646
2.32712	89.4793
2.32608	89.4154
2.32504	89.3491
2.324	89.3539
2.32295	89.5414
2.32191	89.6796
2.32087	89.5545
2.31984	89.4045
2.3188	89.419
2.31776	89.4548
2.31673	89.5405
2.31569	89.6976
2.31466	89.6205
2.31362	89.5195
2.31259	89.5425
2.31156	89.4531
2.31053	89.3689
2.3095	89.4375
2.30847	89.4916
2.30745	89.4795
2.30642	89.5215
2.3054	89.5044
2.30437	89.5743
2.30335	89.5148
2.30232	89.4256
2.3013	89.5069
2.30028	89.5579
2.29926	89.5
2.29824	89.4847
2.29722	89.5081
2.29621	89.4698
2.29519	89.5149
2.29417	89.6915
2.29316	89.7013
2.29215	89.5808
2.29113	89.5611
2.29012	89.4848
2.28911	89.4633
2.2881	89.5323
2.28709	89.5534
2.28608	89.498
2.28507	89.5776
2.28407	89.6527
2.28306	89.5022
2.28206	89.4195
2.28105	89.4682
2.28005	89.4952
2.27905	89.4596
2.27805	89.3916
2.27705	89.4067
2.27605	89.517
2.27505	89.5099
2.27405	89.558
2.27305	89.6308
2.27206	89.5405
2.27106	89.4388
2.27007	89.4563
2.26907	89.4659
2.26808	89.4535
2.26709	89.5048
2.2661	89.5557
2.26511	89.5244
2.26412	89.4788
2.26313	89.4991
2.26214	89.5742
2.26116	89.564
2.26017	89.5778
2.25919	89.557
2.2582	89.3818
2.25722	89.3074
2.25624	89.4537
2.25526	89.4817
2.25428	89.5462
2.2533	89.5798
2.25232	89.51
2.25134	89.538
2.25036	89.5426
2.24939	89.5114
2.24841	89.5662
2.24744	89.4972
2.24646	89.5647
2.24549	89.6689
2.24452	89.6195
2.24355	89.6687
2.24257	89.7561
2.24161	89.7198
2.24064	89.6304
2.23967	89.4772
2.2387	89.4339
2.23774	89.4575
2.23677	89.503
2.23581	89.5478
2.23484	89.6634
2.23388	89.6617
2.23292	89.5863
2.23196	89.5821
2.231	89.5406
2.23004	89.5839
2.22908	89.5579
2.22812	89.6154
2.22716	89.5675
2.22621	89.5754
2.22525	89.4989
2.2243	89.4364
2.22334	89.4404
2.22239	89.4914
2.22144	89.5491
2.22049	89.5865
2.21953	89.5609
2.21859	89.4557
2.21764	89.4119
2.21669	89.5418
2.21574	89.5809
2.21479	89.5237
2.21385	89.5532
2.2129	89.4364
2.21196	89.4117
2.21102	89.4702
2.21007	89.424
2.20913	89.4929
2.20819	89.6541
2.20725	89.7043
2.20631	89.6125
2.20537	89.4742
2.20444	89.5167
2.2035	89.6275
2.20256	89.5944
2.20163	89.5286
2.20069	89.5009
2.19976	89.4464
2.19883	89.438
2.19789	89.4744
2.19696	89.3766
2.19603	89.4203
2.1951	89.4556
2.19417	89.3703
2.19325	89.5429
2.19232	89.6461
2.19139	89.5016
2.19047	89.2776
2.18954	89.3139
2.18862	89.5042
2.18769	89.6808
2.18677	89.661
2.18585	89.4148
2.18493	89.3874
2.18401	89.4328
2.18309	89.4448
2.18217	89.5287
2.18125	89.5005
2.18033	89.5362
2.17942	89.4857
2.1785	89.368
2.17759	89.4368
2.17667	89.5086
2.17576	89.5006
2.17485	89.4674
2.17393	89.4747
2.17302	89.5104
2.17211	89.4543
2.1712	89.3863
2.17029	89.3467
2.16939	89.3339
2.16848	89.4586
2.16757	89.6329
2.16667	89.6786
2.16576	89.5614
2.16486	89.4164
2.16395	89.3841
2.16305	89.4283
2.16215	89.5037
2.16125	89.5431
2.16035	89.5391
2.15945	89.5103
2.15855	89.5562
2.15765	89.5625
2.15675	89.3401
2.15586	89.2756
2.15496	89.3086
2.15406	89.4446
2.15317	89.4721
2.15228	89.4408
2.15138	89.5012
2.15049	89.6005
2.1496	89.5681
2.14871	89.4367
2.14782	89.3079
2.14693	89.3127
2.14604	89.4902
2.14515	89.4002
2.14427	89.3097
2.14338	89.3066
2.14249	89.4332
2.14161	89.4639
2.14072	89.4239
2.13984	89.438
2.13896	89.4315
2.13808	89.3114
2.13719	89.4177
2.13631	89.5886
2.13543	89.6396
2.13455	89.4876
2.13368	89.4494
2.1328	89.44
2.13192	89.3572
2.13105	89.2505
2.13017	89.4011
2.1293	89.5114
2.12842	89.4201
2.12755	89.5117
2.12668	89.4918
2.1258	89.3616
2.12493	89.4988
2.12406	89.6076
2.12319	89.5185
2.12232	89.4944
2.12145	89.4101
2.12059	89.1752
2.11972	89.0833
2.11885	89.2144
2.11799	89.4766
2.11712	89.5266
2.11626	89.4446
2.1154	89.4608
2.11453	89.4117
2.11367	89.4477
2.11281	89.5031
2.11195	89.3341
2.11109	89.2181
2.11023	89.2485
2.10937	89.4188
2.10851	89.4646
2.10766	89.4778
2.1068	89.4433
2.10594	89.3447
2.10509	89.3355
2.10423	89.4349
2.10338	89.3982
2.10253	89.4172
2.10168	89.3722
2.10082	89.2178
2.09997	89.2613
2.09912	89.4273
2.09827	89.443
2.09742	89.3957
2.09658	89.2653
2.09573	89.2986
2.09488	89.4572
2.09404	89.4299
2.09319	89.4154
2.09235	89.3622
2.0915	89.3255
2.09066	89.4642
2.08982	89.4152
2.08897	89.2406
2.08813	89.2034
2.08729	89.2431
2.08645	89.3486
2.08561	89.3386
2.08477	89.2747
2.08394	89.2316
2.0831	89.2027
2.08226	89.2577
2.08143	89.2892
2.08059	89.4269
2.07976	89.4792
2.07892	89.3175
2.07809	89.1948
2.07726	89.1937
2.07643	89.2403
2.07559	89.0369
2.07476	89.0435
2.07393	89.3614
2.0731	89.1901
2.07228	88.9422
2.07145	89.2544
2.07062	89.3864
2.06979	89.1053
2.06897	89.1104
2.06814	89.329
2.06732	89.2848
2.06649	89.1951
2.06567	89.2472
2.06485	89.1571
2.06403	89.2254
2.0632	89.2151
2.06238	89.0981
2.06156	89.1117
2.06074	89.1375
2.05993	88.9373
2.05911	88.9304
2.05829	89.1696
2.05747	89.2059
2.05666	88.9232
2.05584	88.9503
2.05503	89.0737
2.05421	89.2325
2.0534	89.3454
2.05259	89.3724
2.05177	89.3174
2.05096	89.2361
2.05015	89.2962
2.04934	89.3219
2.04853	89.119
2.04772	88.969
2.04691	88.9101
2.04611	88.9904
2.0453	89.1437
2.04449	89.3199
2.04369	89.3041
2.04288	89.2375
2.04208	89.3255
2.04127	89.1522
2.04047	89.0899
2.03967	89.233
2.03886	89.1526
2.03806	89.0882
2.03726	89.1214
2.03646	89.1063
2.03566	89.1103
2.03486	89.1962
2.03407	89.1977
2.03327	89.1017
2.03247	89.0097
2.03167	89.011
2.03088	89.0404
2.03008	89.0718
2.02929	89.1363
2.0285	89.258
2.0277	89.2588
2.02691	89.2135
2.02612	89.0654
2.02533	88.9519
2.02453	88.8663
2.02374	88.8087
2.02295	88.8849
2.02217	89.016
2.02138	89.0163
2.02059	88.8675
2.0198	88.9646
2.01902	89.0871
2.01823	88.953
2.01744	88.9144
2.01666	88.8909
2.01588	88.8181
2.01509	88.9622
2.01431	89.0822
2.01353	89.0379
2.01275	88.8896
2.01196	88.8155
2.01118	88.8094
2.0104	88.8115
2.00963	88.8589
2.00885	89.0071
2.00807	88.9661
2.00729	88.8184
2.00651	88.6573
2.00574	88.6107
2.00496	88.7673
2.00419	89.0907
2.00341	89.0994
2.00264	88.8467
2.00187	88.7516
2.00109	88.7805
2.00032	88.7563
