Name: Chlorite
Type: Mineral
Class: Silicates
Subclass: Phyllosilicates
Particle Size: 0-45um
Sample No.: PS-12F
Owner: JPL
Wavelength range: IR
Origin: USA, New Mexico
Collected by Ward's
Description: 





Measurement: Hemispherical reflectance
First Column: X
Second Column: Y
X Units:  Wavelength (micrometers)
Y Units:  Reflectance (percent)
First X Value: 15.3853
Last X Value: 2.00032
Number of X Values: 2256
Additional information: ps12fa.txt
 
15.3853	3.10859
15.3397	3.22162
15.2945	2.95788
15.2495	2.80792
15.2048	2.77154
15.1603	2.86062
15.1161	3.1084
15.0722	3.15252
15.0285	2.91648
14.9851	2.76177
14.9419	2.44239
14.8989	2.33938
14.8563	2.35246
14.8138	2.42113
14.7716	2.58349
14.7296	2.56072
14.6879	2.30112
14.6464	2.14087
14.6052	2.08121
14.5641	2.14996
14.5233	2.24532
14.4828	2.31861
14.4424	2.3242
14.4023	2.11757
14.3624	2.06111
14.3227	1.99867
14.2833	1.94378
14.244	2.25075
14.205	2.25668
14.1662	2.1392
14.1276	2.25429
14.0892	2.26642
14.051	2.25181
14.0131	2.31179
13.9753	2.29545
13.9377	2.2557
13.9004	2.30024
13.8632	2.32447
13.8262	2.3148
13.7895	2.34135
13.7529	2.52075
13.7165	2.80984
13.6803	2.89546
13.6443	2.92481
13.6085	2.87405
13.5729	2.65089
13.5374	2.53606
13.5022	2.77961
13.4671	2.79813
13.4322	2.66486
13.3975	2.73907
13.363	2.8541
13.3286	2.70803
13.2944	2.59611
13.2604	2.61288
13.2266	2.55242
13.193	2.56687
13.1595	2.67425
13.1262	2.80527
13.093	2.70458
13.06	2.39643
13.0272	2.33833
12.9946	2.23562
12.9621	2.17216
12.9298	2.3147
12.8976	2.27444
12.8656	2.23899
12.8337	2.30416
12.8021	2.3274
12.7705	2.32354
12.7391	2.33062
12.7079	2.25338
12.6769	2.0097
12.6459	2.07115
12.6152	2.27219
12.5845	2.30061
12.5541	2.29518
12.5238	2.34253
12.4936	2.37566
12.4635	2.19294
12.4337	2.15404
12.4039	2.29303
12.3743	2.2216
12.3448	2.29812
12.3155	2.18977
12.2863	2.01641
12.2573	2.12821
12.2284	2.15251
12.1996	2.13175
12.171	2.12538
12.1425	2.1662
12.1141	2.14643
12.0859	2.06138
12.0578	2.06432
12.0298	1.9825
12.0019	1.94796
11.9742	2.02997
11.9466	2.1942
11.9192	2.3984
11.8918	2.38895
11.8646	2.4137
11.8375	2.63605
11.8106	2.77218
11.7837	2.75403
11.757	2.8087
11.7304	2.87407
11.7039	2.957
11.6776	3.12694
11.6513	3.13163
11.6252	3.12521
11.5992	3.2398
11.5733	3.26292
11.5475	3.37287
11.5219	3.56693
11.4963	3.63957
11.4709	3.62168
11.4455	3.65136
11.4203	3.65899
11.3952	3.75515
11.3702	3.80548
11.3454	3.75022
11.3206	3.72151
11.2959	3.75828
11.2714	3.78407
11.2469	3.78247
11.2226	3.82995
11.1983	3.86708
11.1742	3.871
11.1502	4.02064
11.1263	4.04241
11.1024	4.06561
11.0787	4.10003
11.0551	4.12784
11.0316	4.24773
11.0081	4.33255
10.9848	4.25036
10.9616	4.21701
10.9385	4.36735
10.9154	4.42749
10.8925	4.4056
10.8697	4.4192
10.8469	4.50376
10.8243	4.53505
10.8017	4.55666
10.7793	4.68516
10.7569	4.62939
10.7346	4.62738
10.7125	4.68352
10.6904	4.65129
10.6684	4.81243
10.6465	4.86148
10.6247	4.88918
10.6029	5.00467
10.5813	5.04379
10.5597	5.044
10.5383	5.0276
10.5169	5.17976
10.4956	5.4833
10.4744	5.57403
10.4533	5.59014
10.4323	5.73358
10.4113	5.81486
10.3904	5.81744
10.3697	5.81532
10.349	5.98482
10.3284	6.22898
10.3078	6.21331
10.2874	6.33549
10.267	6.51869
10.2467	6.54945
10.2265	6.5948
10.2064	6.7784
10.1863	6.94764
10.1663	7.04455
10.1464	7.13083
10.1266	7.36723
10.1069	7.63786
10.0872	7.77522
10.0676	7.93255
10.0481	8.19544
10.0287	8.29494
10.0093	8.42237
9.99005	8.54876
9.97084	8.70786
9.95169	8.71907
9.93263	8.64279
9.91364	8.65875
9.89472	8.8054
9.87587	8.96517
9.8571	8.95497
9.83839	8.89197
9.81976	8.96335
9.80119	8.99099
9.78271	8.99244
9.76428	8.96632
9.74592	8.96746
9.72764	8.98432
9.70943	8.88232
9.69128	8.68658
9.6732	8.60045
9.65518	8.52269
9.63724	8.47625
9.61935	8.35538
9.60155	8.20607
9.5838	8.14635
9.56611	8.25265
9.5485	8.1199
9.53094	7.90611
9.51345	7.90713
9.49604	8.01168
9.47867	7.96083
9.46137	7.7453
9.44414	7.69045
9.42697	7.66956
9.40986	7.45858
9.39281	7.173
9.37583	7.07252
9.35891	6.83779
9.34204	6.46205
9.32524	6.16125
9.3085	5.91329
9.29182	5.61405
9.27519	5.19666
9.25863	4.82844
9.24213	4.68019
9.22568	4.44236
9.2093	4.2118
9.19297	4.06521
9.17669	3.95112
9.16048	3.88807
9.14433	3.74238
9.12823	3.49468
9.11218	3.36439
9.0962	3.24656
9.08027	3.10622
9.06439	3.08018
9.04858	2.98734
9.03281	2.78675
9.0171	2.55301
9.00145	2.48068
8.98585	2.44021
8.9703	2.45525
8.9548	2.32106
8.93937	2.25031
8.92398	2.32718
8.90865	2.33716
8.89337	2.26911
8.87814	2.2939
8.86296	2.28282
8.84784	2.23466
8.83277	2.174
8.81774	2.23243
8.80277	2.34398
8.78786	2.40465
8.77298	2.48349
8.75816	2.41899
8.7434	2.41796
8.72868	2.66378
8.714	2.71029
8.69938	2.6122
8.68481	2.51797
8.67029	2.33915
8.65581	2.41518
8.64139	2.57192
8.62701	2.64698
8.61268	2.83236
8.5984	3.11939
8.58416	3.33488
8.56997	3.40704
8.55583	3.42015
8.54174	3.6172
8.52769	3.86528
8.51368	4.04312
8.49973	4.01501
8.48582	4.15351
8.47195	4.29521
8.45813	4.34642
8.44436	4.48573
8.43062	4.83668
8.41693	5.02159
8.4033	5.17838
8.3897	5.36664
8.37614	5.52019
8.36264	5.59398
8.34917	5.75273
8.33574	5.91831
8.32236	5.99467
8.30903	6.12746
8.29573	6.27314
8.28248	6.47567
8.26927	6.71716
8.2561	6.93958
8.24298	7.13458
8.2299	7.2937
8.21685	7.37391
8.20385	7.61713
8.19089	7.90134
8.17797	8.0337
8.16509	8.03807
8.15225	8.08442
8.13946	8.15145
8.1267	8.31714
8.11398	8.45422
8.10131	8.49557
8.08867	8.50301
8.07606	8.55053
8.0635	8.73048
8.05099	8.91702
8.0385	8.98134
8.02606	9.09042
8.01366	9.14348
8.00129	9.17503
7.98896	9.28534
7.97667	9.48583
7.96442	9.60029
7.9522	9.69109
7.94002	9.82222
7.92788	9.99943
7.91578	9.9995
7.90371	9.98639
7.89168	10.1587
7.87969	10.2747
7.86773	10.4359
7.85581	10.6368
7.84392	10.6778
7.83207	10.7019
7.82026	10.8044
7.80849	10.8746
7.79674	10.9452
7.78503	11.1202
7.77337	11.2922
7.76173	11.4239
7.75012	11.5206
7.73856	11.6227
7.72703	11.6696
7.71553	11.7307
7.70406	11.9102
7.69263	12.0768
7.68123	12.2224
7.66987	12.3115
7.65855	12.3104
7.64725	12.4299
7.63598	12.4922
7.62475	12.5547
7.61356	12.7316
7.60239	12.9264
7.59126	12.9377
7.58017	13.0063
7.5691	13.1605
7.55806	13.3082
7.54707	13.4011
7.5361	13.5404
7.52516	13.6414
7.51425	13.7014
7.50338	13.8373
7.49253	13.9149
7.48172	13.9903
7.47094	14.1687
7.46019	14.2881
7.44947	14.3365
7.43879	14.4058
7.42813	14.5174
7.4175	14.5992
7.4069	14.6713
7.39634	14.7274
7.3858	14.7841
7.37529	14.9252
7.36482	15.0822
7.35437	15.2518
7.34396	15.3517
7.33357	15.3438
7.32321	15.4389
7.31288	15.5768
7.30258	15.6617
7.29231	15.7501
7.28207	15.8996
7.27185	16.0398
7.26167	16.1229
7.25152	16.177
7.24139	16.3204
7.23129	16.3515
7.22122	16.3714
7.21117	16.5128
7.20116	16.6491
7.19117	16.7047
7.18121	16.819
7.17128	16.9758
7.16137	16.9949
7.1515	17.0412
7.14164	17.1508
7.13182	17.2452
7.12203	17.2804
7.11225	17.2342
7.10251	17.2369
7.0928	17.31
7.08311	17.4561
7.07344	17.5694
7.06381	17.6124
7.0542	17.7388
7.04461	17.9049
7.03506	17.9166
7.02552	17.896
7.01601	17.8248
7.00653	17.8209
6.99708	17.9505
6.98765	18.0322
6.97824	18.0933
6.96886	18.2298
6.95951	18.3572
6.95018	18.2247
6.94087	18.2064
6.9316	18.2423
6.92234	18.2125
6.91311	18.1851
6.90391	18.2374
6.89473	18.2557
6.88557	18.3133
6.87644	18.423
6.86733	18.5885
6.85824	18.498
6.84918	18.2785
6.84015	18.2625
6.83114	18.3486
6.82215	18.3907
6.81319	18.3194
6.80424	18.3057
6.79532	18.3812
6.78643	18.359
6.77756	18.2434
6.76871	18.1527
6.75989	18.014
6.75109	17.9783
6.74231	17.9753
6.73355	17.9504
6.72482	17.9463
6.71611	17.9745
6.70742	17.9014
6.69875	17.7832
6.69011	17.7914
6.68149	17.8658
6.67289	17.7619
6.66431	17.6431
6.65576	17.5818
6.64722	17.7489
6.63871	17.8825
6.63022	17.7193
6.62175	17.5743
6.61331	17.4658
6.60488	17.3623
6.59648	17.373
6.5881	17.2802
6.57974	17.2263
6.5714	17.2011
6.56308	17.0562
6.55478	16.9752
6.54651	16.8252
6.53825	16.7788
6.53001	16.7488
6.5218	16.7324
6.51361	16.6578
6.50544	16.6522
6.49729	16.8112
6.48915	16.7472
6.48104	16.5428
6.47295	16.4059
6.46488	16.3137
6.45683	16.2247
6.4488	16.2127
6.44079	16.1875
6.4328	16.1439
6.42482	16.203
6.41687	16.4449
6.40894	16.2756
6.40103	15.7978
6.39314	15.674
6.38526	15.6353
6.37741	15.561
6.36957	15.6038
6.36176	15.4715
6.35396	15.3983
6.34618	15.4774
6.33843	15.3361
6.33069	15.1638
6.32297	15.2336
6.31527	15.2056
6.30758	15.0894
6.29992	15.0168
6.29227	14.9725
6.28465	14.9668
6.27704	14.9826
6.26945	14.9907
6.26188	14.9238
6.25432	14.8532
6.24679	14.8097
6.23927	14.7851
6.23177	14.8024
6.22429	14.8533
6.21683	14.9182
6.20938	14.9165
6.20195	14.8814
6.19454	14.9187
6.18715	15.1057
6.17978	15.1221
6.17242	14.9774
6.16508	15.0424
6.15776	15.1499
6.15045	15.2196
6.14317	15.3381
6.1359	15.2785
6.12864	15.2764
6.12141	15.4281
6.11419	15.5461
6.10699	15.4786
6.0998	15.4133
6.09263	15.4453
6.08549	15.5758
6.07835	15.8246
6.07123	15.8958
6.06413	15.8618
6.05705	16.0303
6.04998	16.3696
6.04293	16.2205
6.0359	16.005
6.02888	16.0274
6.02187	16.1482
6.01489	16.2415
6.00792	16.2479
6.00096	16.3373
5.99403	16.479
5.98711	16.5797
5.9802	16.6809
5.97331	16.7878
5.96644	16.7964
5.95958	16.7322
5.95274	16.7675
5.94591	16.9316
5.9391	17.3541
5.9323	17.3805
5.92552	17.2163
5.91876	17.2437
5.91201	17.2799
5.90528	17.4164
5.89856	17.6653
5.89186	17.7183
5.88517	17.9404
5.8785	18.1496
5.87184	17.978
5.8652	17.9416
5.85857	18.0456
5.85196	18.2359
5.84536	18.3233
5.83878	18.4225
5.83221	18.6379
5.82566	18.9663
5.81912	19.1276
5.81259	19.1028
5.80608	19.0629
5.79959	19.169
5.79311	19.2997
5.78665	19.4094
5.78019	19.5628
5.77376	19.8599
5.76734	20.1455
5.76093	20.0447
5.75453	19.949
5.74815	20.116
5.74179	20.2143
5.73543	20.2784
5.7291	20.2939
5.72277	20.4203
5.71646	20.62
5.71017	20.7068
5.70389	20.6103
5.69762	20.6085
5.69136	20.6353
5.68513	20.5995
5.6789	20.7022
5.67268	20.7786
5.66648	20.7691
5.6603	20.8538
5.65413	20.8962
5.64797	20.9578
5.64182	21.0935
5.63569	20.9867
5.62957	20.9036
5.62347	20.9245
5.61737	20.9793
5.61129	21.0009
5.60522	21.0187
5.59917	21.0753
5.59313	21.1052
5.5871	21.2469
5.58109	21.4626
5.57509	21.5076
5.5691	21.4376
5.56312	21.4935
5.55716	21.5637
5.55121	21.6765
5.54528	21.7564
5.53935	21.7747
5.53344	21.8078
5.52754	21.9209
5.52166	21.9993
5.51578	22.0549
5.50992	22.1734
5.50407	22.2613
5.49823	22.2618
5.49241	22.3125
5.4866	22.3886
5.4808	22.492
5.47501	22.5554
5.46923	22.6158
5.46347	22.6539
5.45772	22.6147
5.45198	22.6556
5.44625	22.7291
5.44054	22.7358
5.43484	22.6947
5.42914	22.7889
5.42347	22.9442
5.4178	22.8319
5.41214	22.7279
5.4065	22.6807
5.40087	22.6311
5.39525	22.5565
5.38964	22.4623
5.38404	22.4067
5.37846	22.3645
5.37288	22.3224
5.36732	22.3102
5.36177	22.3144
5.35623	22.3161
5.35071	22.3034
5.34519	22.3254
5.33968	22.3624
5.33419	22.3828
5.32871	22.3509
5.32324	22.3106
5.31778	22.3493
5.31233	22.4665
5.30689	22.4343
5.30147	22.4203
5.29605	22.4902
5.29065	22.5288
5.28525	22.5591
5.27987	22.6247
5.2745	22.6673
5.26914	22.7145
5.26379	22.7391
5.25845	22.7946
5.25312	22.8532
5.24781	22.9314
5.2425	22.9585
5.23721	23.0729
5.23192	23.1591
5.22665	23.1893
5.22138	23.2619
5.21613	23.3141
5.21089	23.3478
5.20566	23.3876
5.20044	23.4426
5.19522	23.4306
5.19002	23.4263
5.18483	23.5054
5.17965	23.594
5.17448	23.6227
5.16933	23.5946
5.16418	23.6402
5.15904	23.7256
5.15391	23.6954
5.14879	23.7186
5.14368	23.8607
5.13859	23.9545
5.1335	23.9584
5.12842	23.9392
5.12335	23.9973
5.1183	24.0129
5.11325	24.0592
5.10821	24.1352
5.10318	24.2019
5.09817	24.2634
5.09316	24.2404
5.08816	24.3123
5.08317	24.4691
5.07819	24.4466
5.07322	24.4231
5.06826	24.4538
5.06331	24.4435
5.05837	24.5591
5.05344	24.6037
5.04852	24.5707
5.04361	24.6399
5.03871	24.7128
5.03382	24.7867
5.02894	24.8065
5.02406	24.7938
5.0192	24.7989
5.01435	24.8191
5.0095	24.8896
5.00467	24.9956
4.99984	25.0579
4.99502	25.1294
4.99021	25.2246
4.98542	25.3124
4.98063	25.4504
4.97585	25.5707
4.97108	25.6449
4.96632	25.7495
4.96156	25.9148
4.95682	26.1174
4.95209	26.2874
4.94736	26.3896
4.94264	26.4512
4.93794	26.6487
4.93324	26.888
4.92855	27.0555
4.92387	27.1973
4.9192	27.2972
4.91453	27.4011
4.90988	27.6069
4.90524	27.8094
4.9006	27.9531
4.89597	28.0859
4.89135	28.2728
4.88674	28.3741
4.88214	28.5376
4.87755	28.7021
4.87296	28.8271
4.86839	28.9757
4.86382	29.1281
4.85926	29.2358
4.85471	29.3167
4.85017	29.4308
4.84564	29.5838
4.84111	29.7264
4.8366	29.8577
4.83209	30.0239
4.82759	30.1294
4.8231	30.2728
4.81862	30.4342
4.81415	30.5216
4.80968	30.6233
4.80522	30.7265
4.80077	30.8645
4.79633	31.1164
4.7919	31.3476
4.78747	31.4928
4.78306	31.6852
4.77865	31.8548
4.77425	31.9362
4.76986	32.1258
4.76547	32.4021
4.7611	32.6196
4.75673	32.7763
4.75237	32.9337
4.74802	33.1183
4.74367	33.3132
4.73934	33.519
4.73501	33.7027
4.73069	33.896
4.72638	34.1616
4.72207	34.3392
4.71777	34.4799
4.71348	34.6477
4.7092	34.7596
4.70493	34.8449
4.70066	35.0124
4.69641	35.19
4.69216	35.3353
4.68791	35.4587
4.68368	35.6173
4.67945	35.7986
4.67523	35.9883
4.67102	36.149
4.66682	36.3002
4.66262	36.485
4.65843	36.5632
4.65425	36.6671
4.65007	36.8573
4.64591	37.016
4.64175	37.1676
4.6376	37.3256
4.63345	37.4347
4.62932	37.5388
4.62519	37.7267
4.62106	37.9404
4.61695	38.1433
4.61284	38.3011
4.60874	38.4746
4.60465	38.6833
4.60056	38.9108
4.59648	39.1647
4.59241	39.3422
4.58835	39.5086
4.58429	39.7287
4.58024	39.9347
4.5762	40.0835
4.57216	40.2041
4.56814	40.3492
4.56411	40.4817
4.5601	40.7194
4.55609	40.9385
4.55209	41.0959
4.5481	41.321
4.54411	41.49
4.54013	41.5627
4.53616	41.6817
4.5322	41.8536
4.52824	42.0698
4.52429	42.206
4.52034	42.2904
4.51641	42.4193
4.51247	42.5058
4.50855	42.6621
4.50463	42.8603
4.50072	42.9666
4.49682	43.0492
4.49292	43.1933
4.48903	43.2946
4.48515	43.4236
4.48127	43.5372
4.4774	43.6227
4.47354	43.7485
4.46968	43.866
4.46584	43.9115
4.46199	44.0617
4.45815	44.2477
4.45432	44.3376
4.4505	44.413
4.44668	44.4997
4.44287	44.5803
4.43907	44.6763
4.43527	44.7806
4.43148	44.9002
4.4277	45.0096
4.42392	45.1102
4.42015	45.1985
4.41638	45.3005
4.41262	45.4236
4.40887	45.4993
4.40513	45.5637
4.40139	45.6307
4.39765	45.6891
4.39393	45.7969
4.39021	45.9123
4.38649	45.9573
4.38278	45.9952
4.37908	46.073
4.37539	46.1636
4.3717	46.2666
4.36801	46.3873
4.36434	46.4985
4.36067	46.5893
4.357	46.7146
4.35335	46.7851
4.34969	46.8462
4.34605	46.9302
4.34241	46.9944
4.33877	47.0629
4.33514	47.1723
4.33152	47.2835
4.32791	47.3988
4.3243	47.4743
4.32069	47.5802
4.3171	47.6358
4.31351	47.6725
4.30992	47.7696
4.30634	47.9086
4.30277	48.0127
4.2992	48.0677
4.29564	48.0895
4.29208	48.1793
4.28853	48.2758
4.28499	48.3423
4.28145	48.4155
4.27792	48.428
4.27439	48.4475
4.27087	48.5426
4.26735	48.6127
4.26384	48.6421
4.26034	48.6573
4.25684	48.5974
4.25335	48.6305
4.24986	48.8331
4.24638	48.9431
4.24291	49.0776
4.23944	49.1885
4.23598	49.2065
4.23252	49.2048
4.22906	49.2728
4.22562	49.2781
4.22218	49.2423
4.21874	49.2938
4.21531	49.3718
4.21189	49.3616
4.20847	49.3382
4.20506	49.3796
4.20165	49.4107
4.19825	49.4467
4.19485	49.4977
4.19146	49.5486
4.18807	49.5576
4.18469	49.5329
4.18132	49.5547
4.17795	49.6002
4.17458	49.6279
4.17123	49.699
4.16787	49.777
4.16453	49.8158
4.16118	49.8627
4.15785	49.917
4.15451	49.9619
4.15119	50.0274
4.14787	50.0814
4.14455	50.0726
4.14124	50.0884
4.13794	50.1022
4.13464	50.1018
4.13134	50.1439
4.12805	50.2531
4.12477	50.2516
4.12149	50.2151
4.11822	50.3004
4.11495	50.3509
4.11168	50.3152
4.10843	50.2989
4.10517	50.3686
4.10192	50.4491
4.09868	50.4462
4.09545	50.4109
4.09221	50.4189
4.08899	50.4516
4.08576	50.5123
4.08255	50.5462
4.07933	50.5096
4.07613	50.5627
4.07292	50.6438
4.06973	50.5989
4.06654	50.5055
4.06335	50.5463
4.06017	50.6003
4.05699	50.7081
4.05382	50.7534
4.05065	50.6686
4.04749	50.6236
4.04433	50.6822
4.04118	50.7058
4.03803	50.6207
4.03489	50.573
4.03175	50.5884
4.02862	50.5542
4.02549	50.6015
4.02237	50.6335
4.01925	50.7001
4.01614	50.6887
4.01303	50.6389
4.00993	50.5721
4.00683	50.5685
4.00373	50.6285
4.00064	50.6017
3.99756	50.5811
3.99448	50.6485
3.9914	50.6857
3.98833	50.6641
3.98527	50.6135
3.98221	50.5774
3.97915	50.5897
3.9761	50.5831
3.97305	50.5277
3.97001	50.4983
3.96697	50.5015
3.96394	50.496
3.96091	50.5499
3.95789	50.5883
3.95487	50.5301
3.95186	50.4596
3.94885	50.4443
3.94584	50.5071
3.94284	50.4956
3.93984	50.4617
3.93685	50.4381
3.93386	50.4311
3.93088	50.3809
3.9279	50.3693
3.92493	50.3659
3.92196	50.3321
3.919	50.3546
3.91604	50.3644
3.91308	50.3299
3.91013	50.2734
3.90718	50.2619
3.90424	50.2159
3.9013	50.1697
3.89837	50.1724
3.89544	50.0658
3.89252	50.0301
3.8896	49.9586
3.88668	49.8944
3.88377	49.9327
3.88086	49.8834
3.87796	49.8009
3.87506	49.8153
3.87217	49.8458
3.86928	49.7656
3.86639	49.6803
3.86351	49.6489
3.86064	49.6833
3.85776	49.6623
3.8549	49.6104
3.85203	49.5207
3.84917	49.4047
3.84631	49.3088
3.84346	49.2855
3.84062	49.2464
3.83777	49.2125
3.83494	49.1951
3.8321	49.1237
3.82927	49.0858
3.82644	49.09
3.82362	49.0658
3.82081	49.0057
3.81799	48.9841
3.81518	48.9447
3.81238	48.8244
3.80958	48.6946
3.80678	48.6818
3.80399	48.6096
3.8012	48.5288
3.79841	48.6069
3.79563	48.5984
3.79286	48.4872
3.79008	48.484
3.78731	48.3844
3.78455	48.2594
3.78179	48.2244
3.77903	48.1877
3.77628	48.1676
3.77353	48.1374
3.77079	48.1053
3.76805	48.0801
3.76531	47.9733
3.76258	47.9144
3.75985	47.8131
3.75713	47.7102
3.7544	47.663
3.75169	47.6161
3.74898	47.5948
3.74627	47.4626
3.74356	47.3405
3.74086	47.3273
3.73816	47.3025
3.73547	47.2371
3.73278	47.1853
3.7301	47.0944
3.72741	47.023
3.72474	46.947
3.72206	46.8549
3.71939	46.8088
3.71673	46.7991
3.71406	46.7238
3.71141	46.63
3.70875	46.555
3.7061	46.4872
3.70345	46.4443
3.70081	46.3742
3.69817	46.3125
3.69553	46.2237
3.6929	46.1335
3.69027	46.0359
3.68765	45.919
3.68503	45.8914
3.68241	45.8339
3.6798	45.7601
3.67719	45.6872
3.67458	45.6068
3.67198	45.4862
3.66938	45.4061
3.66678	45.3383
3.66419	45.2609
3.66161	45.1804
3.65902	45.0956
3.65644	44.9668
3.65387	44.8843
3.65129	44.8927
3.64872	44.8015
3.64616	44.7289
3.64359	44.7131
3.64103	44.6072
3.63848	44.4329
3.63593	44.2258
3.63338	44.1265
3.63084	44.1633
3.6283	44.1233
3.62576	43.9996
3.62322	43.934
3.62069	43.8708
3.61817	43.662
3.61564	43.4976
3.61312	43.5004
3.61061	43.3743
3.6081	43.2121
3.60559	43.1888
3.60308	43.174
3.60058	43.0314
3.59808	42.8283
3.59558	42.7148
3.59309	42.6514
3.59061	42.5357
3.58812	42.4776
3.58564	42.3601
3.58316	42.1889
3.58069	42.0689
3.57822	41.9375
3.57575	41.8438
3.57328	41.7479
3.57082	41.5919
3.56836	41.4192
3.56591	41.2715
3.56346	41.1672
3.56101	41.1101
3.55857	41.029
3.55613	40.9162
3.55369	40.9066
3.55126	40.8618
3.54883	40.6909
3.5464	40.525
3.54397	40.4427
3.54155	40.411
3.53914	40.3586
3.53672	40.2426
3.53431	40.1263
3.5319	39.9684
3.5295	39.8951
3.5271	39.8254
3.5247	39.6766
3.52231	39.6073
3.51991	39.5423
3.51753	39.4111
3.51514	39.2617
3.51276	39.1803
3.51038	39.1019
3.50801	39.0576
3.50563	38.9234
3.50327	38.7458
3.5009	38.6352
3.49854	38.5719
3.49618	38.5274
3.49382	38.4129
3.49147	38.3483
3.48912	38.1858
3.48677	38.0099
3.48443	38.0332
3.48209	37.972
3.47975	37.833
3.47742	37.7239
3.47509	37.6831
3.47276	37.6545
3.47044	37.4911
3.46812	37.3899
3.4658	37.3303
3.46348	37.2435
3.46117	37.137
3.45886	37.0546
3.45656	36.9312
3.45425	36.8135
3.45195	36.7156
3.44966	36.6815
3.44736	36.6103
3.44507	36.4306
3.44279	36.3296
3.4405	36.2724
3.43822	36.201
3.43594	36.1248
3.43367	35.9025
3.43139	35.7448
3.42912	35.7474
3.42686	35.6974
3.42459	35.5224
3.42233	35.3504
3.42007	35.2544
3.41782	35.1895
3.41557	35.0756
3.41332	35.0027
3.41108	34.9243
3.40883	34.9018
3.40659	34.7614
3.40435	34.584
3.40212	34.512
3.39989	34.4279
3.39766	34.3104
3.39544	34.2209
3.39322	34.1628
3.391	34.127
3.38878	34.0075
3.38657	33.7194
3.38436	33.5246
3.38215	33.579
3.37994	33.6112
3.37774	33.4554
3.37554	33.2607
3.37335	33.1005
3.37115	32.9994
3.36896	32.9213
3.36678	32.8053
3.36459	32.64
3.36241	32.577
3.36023	32.412
3.35805	32.2798
3.35588	32.1998
3.35371	32.1037
3.35154	32.0063
3.34938	31.8709
3.34721	31.7721
3.34505	31.6909
3.3429	31.5726
3.34074	31.4085
3.33859	31.2717
3.33644	31.1309
3.3343	30.9515
3.33215	30.7622
3.33001	30.7339
3.32788	30.6818
3.32574	30.4372
3.32361	30.2889
3.32148	30.2474
3.31936	30.0931
3.31723	29.9562
3.31511	29.8375
3.31299	29.6692
3.31088	29.4021
3.30876	29.2514
3.30665	29.1226
3.30455	29.0361
3.30244	28.9471
3.30034	28.7514
3.29824	28.5782
3.29614	28.5112
3.29405	28.4052
3.29196	28.1944
3.28987	28.0711
3.28778	27.9434
3.2857	27.6964
3.28362	27.5356
3.28154	27.419
3.27946	27.275
3.27739	27.1331
3.27532	26.9722
3.27325	26.8315
3.27119	26.7287
3.26913	26.57
3.26707	26.3935
3.26501	26.238
3.26295	26.0714
3.2609	25.9271
3.25885	25.7958
3.2568	25.5849
3.25476	25.3298
3.25272	25.2455
3.25068	25.1553
3.24864	24.9873
3.24661	24.8198
3.24458	24.6782
3.24255	24.4613
3.24052	24.1828
3.2385	24.0586
3.23648	23.9667
3.23446	23.7713
3.23244	23.571
3.23043	23.3616
3.22841	23.1454
3.2264	22.9607
3.2244	22.7759
3.22239	22.6373
3.22039	22.5441
3.21839	22.331
3.2164	22.1604
3.2144	22.0057
3.21241	21.7992
3.21042	21.6167
3.20844	21.521
3.20645	21.3938
3.20447	21.1528
3.20249	20.9033
3.20051	20.6482
3.19854	20.4706
3.19657	20.3575
3.1946	20.2344
3.19263	20.1022
3.19067	19.8892
3.1887	19.6226
3.18674	19.5123
3.18479	19.3804
3.18283	19.1252
3.18088	18.9208
3.17893	18.8017
3.17698	18.6085
3.17504	18.4231
3.17309	18.2988
3.17115	18.0754
3.16921	17.8793
3.16728	17.7656
3.16534	17.5277
3.16341	17.2835
3.16148	17.1689
3.15956	17.004
3.15763	16.8338
3.15571	16.6296
3.15379	16.4397
3.15187	16.223
3.14996	16.0126
3.14805	15.8494
3.14614	15.7572
3.14423	15.6028
3.14232	15.3584
3.14042	15.2638
3.13852	15.1067
3.13662	14.7811
3.13472	14.5793
3.13283	14.481
3.13094	14.4551
3.12905	14.3029
3.12716	14.0428
3.12528	13.8257
3.12339	13.6927
3.12151	13.576
3.11964	13.454
3.11776	13.2484
3.11589	13.1019
3.11401	13.0173
3.11214	12.8086
3.11028	12.663
3.10841	12.5684
3.10655	12.3849
3.10469	12.1863
3.10283	11.9824
3.10098	11.8456
3.09912	11.7605
3.09727	11.6122
3.09542	11.4328
3.09358	11.3295
3.09173	11.1876
3.08989	11.0374
3.08805	10.961
3.08621	10.8123
3.08437	10.5849
3.08254	10.4742
3.08071	10.3982
3.07888	10.2248
3.07705	10.0185
3.07523	9.88881
3.0734	9.84087
3.07158	9.76579
3.06977	9.64778
3.06795	9.49308
3.06613	9.29454
3.06432	9.24938
3.06251	9.15794
3.0607	8.9855
3.0589	8.81966
3.0571	8.77405
3.05529	8.74563
3.05349	8.71243
3.0517	8.57093
3.0499	8.38355
3.04811	8.31431
3.04632	8.2494
3.04453	8.20907
3.04274	8.03911
3.04096	7.98676
3.03918	7.81854
3.0374	7.57265
3.03562	7.55747
3.03384	7.58087
3.03207	7.5428
3.03029	7.62181
3.02852	7.38067
3.02676	7.17426
3.02499	7.11747
3.02323	7.10356
3.02146	6.98275
3.0197	6.94072
3.01795	6.97012
3.01619	6.87542
3.01444	6.7084
3.01269	6.59315
3.01094	6.61067
3.00919	6.51522
3.00744	6.37714
3.0057	6.21422
3.00396	6.1419
3.00222	6.20627
3.00048	6.15007
2.99875	6.07256
2.99701	6.05079
2.99528	5.84923
2.99355	5.81227
2.99183	5.78637
2.9901	5.82072
2.98838	5.82209
2.98666	5.70796
2.98494	5.75799
2.98322	5.6587
2.9815	5.53657
2.97979	5.47354
2.97808	5.46918
2.97637	5.39173
2.97466	5.30812
2.97295	5.24422
2.97125	5.23829
2.96955	5.24494
2.96785	5.29422
2.96615	5.31116
2.96446	5.14154
2.96276	4.98288
2.96107	5.00426
2.95938	5.11206
2.95769	5.04367
2.95601	4.94217
2.95432	4.89188
2.95264	4.7899
2.95096	4.72384
2.94928	4.81617
2.9476	4.86842
2.94593	4.82752
2.94425	4.85493
2.94258	4.87017
2.94092	4.81289
2.93925	4.81907
2.93758	4.9139
2.93592	4.88591
2.93426	4.86033
2.9326	4.83097
2.93094	4.86285
2.92928	4.85393
2.92763	4.79323
2.92598	4.73346
2.92433	4.75276
2.92268	4.76492
2.92103	4.66477
2.91939	4.7873
2.91775	4.84938
2.9161	4.7736
2.91447	4.90988
2.91283	5.0127
2.91119	5.01737
2.90956	4.88525
2.90793	4.91137
2.9063	5.0838
2.90467	5.18956
2.90304	5.21727
2.90142	5.17784
2.89979	5.26685
2.89817	5.41497
2.89656	5.36474
2.89494	5.2683
2.89332	5.27561
2.89171	5.44656
2.8901	5.58213
2.88849	5.69313
2.88688	5.71381
2.88527	5.74667
2.88367	5.79684
2.88206	5.82402
2.88046	5.82574
2.87886	5.73916
2.87727	5.66209
2.87567	5.62066
2.87408	5.67015
2.87248	5.81435
2.87089	5.88859
2.8693	5.96005
2.86772	5.99214
2.86613	5.74807
2.86455	5.73506
2.86297	5.83691
2.86139	5.78173
2.85981	5.7599
2.85823	5.68512
2.85666	5.67046
2.85508	5.77703
2.85351	5.77233
2.85194	5.6205
2.85038	5.58479
2.84881	5.64129
2.84724	5.59463
2.84568	5.41198
2.84412	5.40137
2.84256	5.53385
2.841	5.49572
2.83945	5.48079
2.83789	5.56609
2.83634	5.46206
2.83479	5.37494
2.83324	5.38097
2.83169	5.26641
2.83015	5.25716
2.82861	5.3106
2.82706	5.30395
2.82552	5.26655
2.82398	5.20831
2.82245	5.23347
2.82091	5.24038
2.81938	5.3145
2.81784	5.38869
2.81631	5.36165
2.81479	5.42869
2.81326	5.49985
2.81173	5.40599
2.81021	5.29788
2.80869	5.43144
2.80716	5.72044
2.80565	5.88377
2.80413	6.08105
2.80261	6.1876
2.8011	6.18729
2.79959	6.25037
2.79808	6.42724
2.79657	6.61782
2.79506	6.85452
2.79355	7.13571
2.79205	7.48769
2.79055	7.70049
2.78904	7.94478
2.78754	8.40026
2.78605	8.87134
2.78455	9.27617
2.78306	9.47354
2.78156	9.66948
2.78007	10.0152
2.77858	10.4309
2.77709	10.9527
2.77561	11.282
2.77412	11.5294
2.77264	11.727
2.77116	11.7375
2.76968	11.6635
2.7682	11.676
2.76672	11.5179
2.76524	11.2499
2.76377	11.1499
2.7623	10.9961
2.76083	10.8051
2.75936	10.7902
2.75789	11.0326
2.75642	11.4766
2.75496	11.9334
2.7535	12.1847
2.75203	12.4149
2.75057	12.8855
2.74912	13.3143
2.74766	13.6129
2.7462	14.08
2.74475	14.5948
2.7433	15.2599
2.74185	16.3563
2.7404	17.564
2.73895	18.7018
2.7375	19.8677
2.73606	21.0885
2.73462	22.2257
2.73318	23.3105
2.73174	24.4081
2.7303	25.5174
2.72886	26.7655
2.72742	28.1098
2.72599	29.6825
2.72456	31.2717
2.72313	32.4902
2.7217	33.7388
2.72027	35.1566
2.71884	35.9706
2.71742	36.7337
2.71599	37.5894
2.71457	38.4238
2.71315	39.1445
2.71173	39.96
2.71032	40.4589
2.7089	40.3802
2.70748	40.1797
2.70607	39.942
2.70466	39.8386
2.70325	39.7962
2.70184	39.9852
2.70043	40.55
2.69903	41.3395
2.69762	42.4094
2.69622	43.7359
2.69482	45.0462
2.69342	45.9947
2.69202	46.6147
2.69062	47.2809
2.68923	47.9266
2.68783	48.4694
2.68644	49.0633
2.68505	49.4738
2.68366	49.7756
2.68227	50.0186
2.68089	50.3474
2.6795	50.8818
2.67812	51.332
2.67673	51.6493
2.67535	51.5835
2.67397	51.5074
2.6726	51.7583
2.67122	52.4975
2.66984	52.7188
2.66847	52.4119
2.6671	52.7751
2.66572	53.0662
2.66435	53.0347
2.66299	52.802
2.66162	52.9512
2.66025	53.2107
2.65889	53.2569
2.65753	53.184
2.65616	53.3653
2.65481	53.3996
2.65345	53.5191
2.65209	53.7196
2.65073	53.7876
2.64938	53.9132
2.64803	54.0421
2.64667	54.2804
2.64532	54.5141
2.64397	54.5231
2.64263	54.6173
2.64128	54.7437
2.63994	54.8515
2.63859	54.8264
2.63725	54.8851
2.63591	55.0526
2.63457	55.3677
2.63323	55.4293
2.6319	55.5194
2.63056	55.8876
2.62923	55.7591
2.62789	55.6963
2.62656	55.9553
2.62523	55.6835
2.6239	55.5616
2.62258	55.6672
2.62125	56.1147
2.61993	56.2684
2.6186	56.0707
2.61728	56.3296
2.61596	56.3809
2.61464	56.0443
2.61332	55.975
2.61201	55.9036
2.61069	56.047
2.60938	56.2076
2.60807	56.1689
2.60675	56.4827
2.60544	56.7663
2.60414	56.4497
2.60283	56.2622
2.60152	56.4305
2.60022	56.3366
2.59891	56.1326
2.59761	56.2737
2.59631	56.8384
2.59501	57.5127
2.59371	57.2031
2.59242	56.6631
2.59112	56.5227
2.58983	56.5834
2.58853	56.6368
2.58724	56.6965
2.58595	56.7032
2.58466	57.03
2.58338	57.0714
2.58209	56.8882
2.5808	56.9183
2.57952	56.8316
2.57824	56.8957
2.57695	57.0281
2.57567	57.0284
2.5744	57.123
2.57312	57.2063
2.57184	57.1448
2.57057	57.334
2.56929	57.3925
2.56802	57.1754
2.56675	57.0588
2.56548	57.1835
2.56421	57.411
2.56294	57.5333
2.56168	57.6577
2.56041	57.5615
2.55915	57.373
2.55789	57.3738
2.55662	57.4077
2.55536	57.3755
2.5541	57.4698
2.55285	57.6496
2.55159	57.8003
2.55034	57.8415
2.54908	57.7923
2.54783	57.9029
2.54658	57.9206
2.54533	57.8753
2.54408	58.0316
2.54283	58.167
2.54159	58.217
2.54034	58.1315
2.5391	57.986
2.53785	58.0665
2.53661	58.2289
2.53537	58.1961
2.53413	58.2108
2.53289	58.3898
2.53166	58.4914
2.53042	58.5419
2.52919	58.5181
2.52795	58.4212
2.52672	58.4306
2.52549	58.3929
2.52426	58.3711
2.52303	58.4144
2.52181	58.5202
2.52058	58.6828
2.51936	58.6276
2.51813	58.6395
2.51691	58.8037
2.51569	58.7834
2.51447	58.8376
2.51325	58.938
2.51203	58.9106
2.51082	58.9675
2.5096	59.0542
2.50839	59.0006
2.50717	58.9644
2.50596	59.0944
2.50475	59.2431
2.50354	59.1597
2.50233	59.11
2.50113	59.2467
2.49992	59.4273
2.49872	59.4872
2.49751	59.5451
2.49631	59.6685
2.49511	59.672
2.49391	59.6052
2.49271	59.7337
2.49151	59.9395
2.49031	60.1227
2.48912	60.2268
2.48792	60.3619
2.48673	60.4184
2.48554	60.4003
2.48435	60.4943
2.48316	60.5474
2.48197	60.6133
2.48078	60.7483
2.4796	60.8557
2.47841	60.9351
2.47723	60.9634
2.47604	60.9885
2.47486	61.1263
2.47368	61.2953
2.4725	61.4662
2.47132	61.586
2.47014	61.6352
2.46897	61.7142
2.46779	61.8234
2.46662	61.8911
2.46545	61.912
2.46427	62.0586
2.4631	62.224
2.46193	62.2272
2.46077	62.2973
2.4596	62.3923
2.45843	62.3952
2.45727	62.5168
2.4561	62.5909
2.45494	62.5954
2.45378	62.6197
2.45262	62.6109
2.45146	62.674
2.4503	62.7795
2.44914	62.7195
2.44799	62.6194
2.44683	62.773
2.44568	62.9059
2.44452	62.8418
2.44337	62.7941
2.44222	62.7479
2.44107	62.6685
2.43992	62.6722
2.43877	62.806
2.43763	62.8068
2.43648	62.7746
2.43534	62.8178
2.43419	62.9652
2.43305	62.9965
2.43191	62.7706
2.43077	62.6584
2.42963	62.6967
2.42849	62.7311
2.42736	62.753
2.42622	62.7866
2.42509	62.8094
2.42395	62.8253
2.42282	62.823
2.42169	62.7685
2.42056	62.701
2.41943	62.6531
2.4183	62.7346
2.41717	62.8041
2.41605	62.8736
2.41492	62.9369
2.4138	62.8081
2.41267	62.6991
2.41155	62.7141
2.41043	62.8079
2.40931	62.7979
2.40819	62.6376
2.40707	62.5148
2.40595	62.5055
2.40484	62.486
2.40372	62.4073
2.40261	62.3393
2.4015	62.1918
2.40039	62.2662
2.39928	62.294
2.39817	62.0964
2.39706	61.8733
2.39595	61.8445
2.39484	61.709
2.39374	61.5613
2.39263	61.47
2.39153	61.319
2.39043	61.0691
2.38932	60.887
2.38822	60.8407
2.38712	60.7428
2.38603	60.5642
2.38493	60.3271
2.38383	60.0406
2.38274	59.7729
2.38164	59.7195
2.38055	59.444
2.37946	58.9772
2.37836	58.8486
2.37727	58.6175
2.37618	58.3622
2.3751	58.2138
2.37401	57.917
2.37292	57.6873
2.37184	57.5257
2.37075	57.3585
2.36967	57.206
2.36859	57.1672
2.3675	56.9759
2.36642	56.772
2.36534	56.5984
2.36427	56.5061
2.36319	56.4296
2.36211	56.4186
2.36104	56.4018
2.35996	56.2974
2.35889	56.3272
2.35781	56.2646
2.35674	56.2845
2.35567	56.2897
2.3546	56.2886
2.35353	56.4198
2.35247	56.5603
2.3514	56.5839
2.35033	56.6592
2.34927	56.7349
2.3482	56.8352
2.34714	56.8687
2.34608	57.0227
2.34502	57.1538
2.34396	57.2892
2.3429	57.4967
2.34184	57.6392
2.34078	57.7189
2.33973	57.8725
2.33867	57.9019
2.33762	58.0897
2.33656	58.235
2.33551	58.4182
2.33446	58.603
2.33341	58.7183
2.33236	58.7815
2.33131	58.8562
2.33026	59.0278
2.32922	59.2086
2.32817	59.3404
2.32712	59.4959
2.32608	59.5912
2.32504	59.5855
2.324	59.7887
2.32295	59.8964
2.32191	59.8988
2.32087	59.9584
2.31984	60.1207
2.3188	60.2998
2.31776	60.4829
2.31673	60.6697
2.31569	60.7407
2.31466	60.8534
2.31362	60.854
2.31259	60.6974
2.31156	60.7251
2.31053	60.8751
2.3095	61.0819
2.30847	61.4241
2.30745	61.6924
2.30642	61.712
2.3054	61.733
2.30437	61.6506
2.30335	61.6643
2.30232	61.7973
2.3013	61.7862
2.30028	61.8681
2.29926	62.0904
2.29824	62.1852
2.29722	62.1253
2.29621	62.1167
2.29519	62.174
2.29417	62.272
2.29316	62.4077
2.29215	62.3974
2.29113	62.3787
2.29012	62.3662
2.28911	62.3847
2.2881	62.385
2.28709	62.2717
2.28608	62.1066
2.28507	62.1985
2.28407	62.147
2.28306	61.9797
2.28206	61.9038
2.28105	61.9598
2.28005	61.9213
2.27905	61.6175
2.27805	61.4042
2.27705	61.3709
2.27605	61.2694
2.27505	61.044
2.27405	60.6813
2.27305	60.4008
2.27206	60.1607
2.27106	59.8972
2.27007	59.5953
2.26907	59.503
2.26808	59.3272
2.26709	58.9371
2.2661	58.6552
2.26511	58.4375
2.26412	58.2446
2.26313	58.1728
2.26214	58.1154
2.26116	57.8623
2.26017	57.7
2.25919	57.8155
2.2582	58.0266
2.25722	58.2319
2.25624	58.4417
2.25526	58.6572
2.25428	59.0387
2.2533	59.3242
2.25232	59.5903
2.25134	59.943
2.25036	60.4658
2.24939	60.9988
2.24841	61.3688
2.24744	61.7474
2.24646	62.3836
2.24549	62.8891
2.24452	63.164
2.24355	63.5311
2.24257	64.0256
2.24161	64.4339
2.24064	64.614
2.23967	64.7285
2.2387	65.1752
2.23774	65.5935
2.23677	65.8833
2.23581	66.1007
2.23484	66.4077
2.23388	66.7091
2.23292	66.6601
2.23196	66.6324
2.231	66.8716
2.23004	67.1039
2.22908	67.2628
2.22812	67.398
2.22716	67.5997
2.22621	67.7834
2.22525	67.7933
2.2243	67.8594
2.22334	68.031
2.22239	68.0901
2.22144	68.2253
2.22049	68.4005
2.21953	68.4386
2.21859	68.5173
2.21764	68.503
2.21669	68.4345
2.21574	68.4743
2.21479	68.5809
2.21385	68.5573
2.2129	68.6966
2.21196	68.8898
2.21102	68.8427
2.21007	68.7908
2.20913	68.9043
2.20819	68.9429
2.20725	68.9506
2.20631	68.9313
2.20537	69.0575
2.20444	69.1973
2.2035	69.3163
2.20256	69.3521
2.20163	69.3353
2.20069	69.2972
2.19976	69.3787
2.19883	69.4379
2.19789	69.4487
2.19696	69.5252
2.19603	69.5552
2.1951	69.635
2.19417	69.6523
2.19325	69.6122
2.19232	69.5728
2.19139	69.6474
2.19047	69.6909
2.18954	69.7393
2.18862	69.7459
2.18769	69.8822
2.18677	69.8938
2.18585	69.7351
2.18493	69.6155
2.18401	69.7226
2.18309	69.896
2.18217	69.7157
2.18125	69.6084
2.18033	69.783
2.17942	69.8833
2.1785	69.7025
2.17759	69.6313
2.17667	69.6155
2.17576	69.6487
2.17485	69.6248
2.17393	69.6984
2.17302	69.8581
2.17211	69.7543
2.1712	69.7009
2.17029	69.8174
2.16939	69.7982
2.16848	69.8601
2.16757	69.9773
2.16667	69.9074
2.16576	69.844
2.16486	69.9321
2.16395	70.063
2.16305	70.0787
2.16215	69.9932
2.16125	69.8726
2.16035	69.8607
2.15945	69.9415
2.15855	69.9673
2.15765	69.9482
2.15675	69.907
2.15586	69.9274
2.15496	69.9588
2.15406	69.8494
2.15317	69.7893
2.15228	69.8775
2.15138	69.8848
2.15049	69.8365
2.1496	69.8675
2.14871	69.8205
2.14782	69.784
2.14693	69.8256
2.14604	69.8129
2.14515	69.7095
2.14427	69.745
2.14338	69.8256
2.14249	69.9031
2.14161	69.9695
2.14072	69.8234
2.13984	69.7261
2.13896	69.6221
2.13808	69.615
2.13719	69.7553
2.13631	69.8767
2.13543	69.9989
2.13455	69.8298
2.13368	69.7217
2.1328	69.8563
2.13192	69.9235
2.13105	69.8254
2.13017	69.7518
2.1293	69.8202
2.12842	69.6939
2.12755	69.506
2.12668	69.5827
2.1258	69.6679
2.12493	69.6824
2.12406	69.7233
2.12319	69.5707
2.12232	69.5697
2.12145	69.7457
2.12059	69.74
2.11972	69.713
2.11885	69.6868
2.11799	69.6815
2.11712	69.8112
2.11626	69.8565
2.1154	69.7916
2.11453	69.7337
2.11367	69.705
2.11281	69.7505
2.11195	69.8588
2.11109	69.8647
2.11023	69.9022
2.10937	69.9209
2.10851	69.8624
2.10766	69.6368
2.1068	69.6757
2.10594	69.753
2.10509	69.8967
2.10423	70.099
2.10338	70.021
2.10253	69.8024
2.10168	69.808
2.10082	69.8903
2.09997	69.8539
2.09912	69.7395
2.09827	69.7234
2.09742	69.7162
2.09658	69.6595
2.09573	69.6829
2.09488	69.7774
2.09404	69.9563
2.09319	69.8279
2.09235	69.6103
2.0915	69.4868
2.09066	69.6237
2.08982	69.7081
2.08897	69.5948
2.08813	69.5375
2.08729	69.5353
2.08645	69.7247
2.08561	69.6051
2.08477	69.3656
2.08394	69.1825
2.0831	69.2235
2.08226	69.2903
2.08143	69.1717
2.08059	69.2206
2.07976	69.1712
2.07892	69.3159
2.07809	69.3888
2.07726	69.2896
2.07643	69.4933
2.07559	69.361
2.07476	69.2344
2.07393	69.3152
2.0731	69.2221
2.07228	69.0065
2.07145	69.0426
2.07062	69.1638
2.06979	68.9318
2.06897	68.8172
2.06814	68.8705
2.06732	68.9553
2.06649	68.9923
2.06567	69.0899
2.06485	69.0825
2.06403	68.8856
2.0632	68.7222
2.06238	68.6786
2.06156	68.699
2.06074	68.8275
2.05993	68.5578
2.05911	68.4884
2.05829	68.4976
2.05747	68.4476
2.05666	68.4014
2.05584	68.3923
2.05503	68.4637
2.05421	68.4641
2.0534	68.2786
2.05259	68.1696
2.05177	68.1533
2.05096	68.0151
2.05015	68.029
2.04934	68.1221
2.04853	68.0718
2.04772	67.9026
2.04691	67.8072
2.04611	67.7944
2.0453	67.8771
2.04449	67.9785
2.04369	67.7804
2.04288	67.6622
2.04208	67.551
2.04127	67.4032
2.04047	67.4149
2.03967	67.4883
2.03886	67.6047
2.03806	67.5378
2.03726	67.2392
2.03646	67.132
2.03566	67.0531
2.03486	66.9231
2.03407	66.8649
2.03327	66.9446
2.03247	66.9666
2.03167	67.1304
2.03088	67.2486
2.03008	67.0604
2.02929	66.8007
2.0285	66.705
2.0277	66.6799
2.02691	66.5902
2.02612	66.4395
2.02533	66.3408
2.02453	66.4231
2.02374	66.3741
2.02295	66.1527
2.02217	66.0651
2.02138	66.1933
2.02059	66.1692
2.0198	66.078
2.01902	66.1144
2.01823	66.1103
2.01744	66.1579
2.01666	66.0782
2.01588	65.9528
2.01509	65.7189
2.01431	65.6535
2.01353	65.7276
2.01275	65.7934
2.01196	65.697
2.01118	65.5401
2.0104	65.4356
2.00963	65.5358
2.00885	65.8398
2.00807	65.8351
2.00729	65.7152
2.00651	65.7736
2.00574	65.8446
2.00496	65.8868
2.00419	65.6133
2.00341	65.4992
2.00264	65.6546
2.00187	65.6179
2.00109	65.5007
2.00032	65.5078
