Name: Fluorite CaF_2
Type: Mineral
Class: Halides
Subclass: 
Particle Size: 45-125um
Sample No.: H-2A
Owner: JPL
Wavelength range: IR
Origin: USA, Illinois, Hardin County, Rosiclare
Collected by Ward's
Description:  Purple fluorite. 





Measurement: Hemispherical reflectance
First Column: X
Second Column: Y
X Units:  Wavelength (micrometers)
Y Units:  Reflectance (percent)
First X Value: 15.3853
Last X Value: 2.00032
Number of X Values: 2256
Additional information: h02aa.txt
 
15.3853	0.196532
15.3397	0.196981
15.2945	0.182114
15.2495	0.263008
15.2048	0.30874
15.1603	0.23705
15.1161	0.158097
15.0722	0.286315
15.0285	0.401218
14.9851	0.365564
14.9419	0.415429
14.8989	0.463997
14.8563	0.388777
14.8138	0.491746
14.7716	0.734296
14.7296	0.773029
14.6879	0.680387
14.6464	0.852446
14.6052	0.861775
14.5641	0.818399
14.5233	0.753915
14.4828	0.972455
14.4424	1.19169
14.4023	1.26163
14.3624	1.3084
14.3227	1.1352
14.2833	1.08342
14.244	1.50465
14.205	1.58684
14.1662	1.45036
14.1276	1.59794
14.0892	1.75422
14.051	1.63876
14.0131	1.4786
13.9753	1.4754
13.9377	1.66943
13.9004	1.79454
13.8632	1.86171
13.8262	2.00439
13.7895	1.95668
13.7529	1.93465
13.7165	2.19275
13.6803	2.37332
13.6443	2.43667
13.6085	2.35347
13.5729	2.35649
13.5374	2.66327
13.5022	3.09399
13.4671	3.3396
13.4322	3.43746
13.3975	3.45586
13.363	3.54835
13.3286	3.94682
13.2944	4.17772
13.2604	4.25841
13.2266	4.45246
13.193	4.63265
13.1595	4.89744
13.1262	5.19729
13.093	5.51321
13.06	5.74626
13.0272	6.00897
12.9946	6.31147
12.9621	6.5445
12.9298	6.7651
12.8976	7.07174
12.8656	7.37014
12.8337	7.67264
12.8021	8.02686
12.7705	8.17417
12.7391	8.40094
12.7079	8.89112
12.6769	9.31452
12.6459	9.70947
12.6152	10.1381
12.5845	10.6882
12.5541	11.2817
12.5238	11.8422
12.4936	12.2467
12.4635	12.8234
12.4337	13.3309
12.4039	13.6312
12.3743	14.2085
12.3448	14.9875
12.3155	15.5266
12.2863	16.2318
12.2573	16.8036
12.2284	17.2479
12.1996	17.8074
12.171	18.4819
12.1425	19.0353
12.1141	19.4212
12.0859	19.9681
12.0578	20.5256
12.0298	20.9738
12.0019	21.5859
11.9742	22.169
11.9466	22.6232
11.9192	23.0732
11.8918	23.5247
11.8646	24.0575
11.8375	24.5175
11.8106	24.8987
11.7837	25.284
11.757	25.8381
11.7304	26.5333
11.7039	26.9731
11.6776	27.3127
11.6513	27.7414
11.6252	28.1912
11.5992	28.5922
11.5733	29.0504
11.5475	29.5621
11.5219	29.9147
11.4963	30.3315
11.4709	30.9678
11.4455	31.4638
11.4203	31.8269
11.3952	32.1971
11.3702	32.6873
11.3454	33.1375
11.3206	33.556
11.2959	34.0778
11.2714	34.5654
11.2469	34.9063
11.2226	35.349
11.1983	35.7313
11.1742	36.1472
11.1502	36.6419
11.1263	37.1126
11.1024	37.5644
11.0787	38.0099
11.0551	38.4413
11.0316	38.8119
11.0081	39.29
10.9848	39.8204
10.9616	40.2095
10.9385	40.5705
10.9154	41.0788
10.8925	41.5991
10.8697	42.0216
10.8469	42.4872
10.8243	42.9724
10.8017	43.393
10.7793	43.8781
10.7569	44.2844
10.7346	44.6995
10.7125	45.1883
10.6904	45.5384
10.6684	45.8427
10.6465	46.3421
10.6247	46.8158
10.6029	47.2233
10.5813	47.6433
10.5597	48.0147
10.5383	48.5144
10.5169	49.0306
10.4956	49.4259
10.4744	49.7647
10.4533	50.1095
10.4323	50.4149
10.4113	50.7503
10.3904	51.2266
10.3697	51.5912
10.349	51.8617
10.3284	52.1976
10.3078	52.5302
10.2874	52.9179
10.267	53.2393
10.2467	53.5709
10.2265	53.9233
10.2064	54.2083
10.1863	54.4461
10.1663	54.682
10.1464	54.9917
10.1266	55.2866
10.1069	55.5564
10.0872	55.7915
10.0676	56.0627
10.0481	56.4155
10.0287	56.6673
10.0093	56.8403
9.99005	57.0319
9.97084	57.3675
9.95169	57.6813
9.93263	57.9473
9.91364	58.1608
9.89472	58.2896
9.87587	58.505
9.8571	58.7518
9.83839	59.0175
9.81976	59.2943
9.80119	59.5199
9.78271	59.594
9.76428	59.6559
9.74592	59.8691
9.72764	60.1825
9.70943	60.463
9.69128	60.691
9.6732	60.9355
9.65518	61.255
9.63724	61.5502
9.61935	61.7733
9.60155	61.9571
9.5838	62.1532
9.56611	62.4256
9.5485	62.704
9.53094	62.8569
9.51345	62.9089
9.49604	63.0624
9.47867	63.2647
9.46137	63.4465
9.44414	63.7195
9.42697	63.9435
9.40986	64.1638
9.39281	64.4051
9.37583	64.5841
9.35891	64.7367
9.34204	64.9348
9.32524	65.1785
9.3085	65.3891
9.29182	65.5585
9.27519	65.6788
9.25863	65.8183
9.24213	66.1085
9.22568	66.3417
9.2093	66.499
9.19297	66.7052
9.17669	66.8371
9.16048	66.984
9.14433	67.1093
9.12823	67.349
9.11218	67.7379
9.0962	68.0197
9.08027	68.2782
9.06439	68.4196
9.04858	68.5099
9.03281	68.631
9.0171	68.7558
9.00145	69.0092
8.98585	69.266
8.9703	69.4737
8.9548	69.573
8.93937	69.6759
8.92398	69.8575
8.90865	69.8787
8.89337	69.9547
8.87814	70.1023
8.86296	70.2454
8.84784	70.4371
8.83277	70.7122
8.81774	70.8137
8.80277	70.9134
8.78786	71.0811
8.77298	71.2071
8.75816	71.4033
8.7434	71.589
8.72868	71.7422
8.714	71.9695
8.69938	72.1606
8.68481	72.2809
8.67029	72.4869
8.65581	72.6987
8.64139	72.8205
8.62701	73.0011
8.61268	73.2703
8.5984	73.6247
8.58416	73.918
8.56997	74.1308
8.55583	74.385
8.54174	74.6331
8.52769	74.7777
8.51368	75.0177
8.49973	75.2689
8.48582	75.3938
8.47195	75.5433
8.45813	75.8487
8.44436	76.0688
8.43062	76.22
8.41693	76.396
8.4033	76.6252
8.3897	76.7371
8.37614	76.8235
8.36264	76.8753
8.34917	77.0448
8.33574	77.0923
8.32236	77.065
8.30903	77.1463
8.29573	77.3526
8.28248	77.4289
8.26927	77.486
8.2561	77.5356
8.24298	77.5897
8.2299	77.6843
8.21685	77.8113
8.20385	77.8373
8.19089	77.7987
8.17797	77.7916
8.16509	77.8877
8.15225	77.882
8.13946	77.9151
8.1267	78.0874
8.11398	78.158
8.10131	78.0557
8.08867	78.122
8.07606	78.277
8.0635	78.3001
8.05099	78.3426
8.0385	78.3633
8.02606	78.4096
8.01366	78.4965
8.00129	78.6389
7.98896	78.6963
7.97667	78.7591
7.96442	78.8569
7.9522	78.9204
7.94002	79.0093
7.92788	79.0661
7.91578	79.1391
7.90371	79.318
7.89168	79.4363
7.87969	79.4691
7.86773	79.5707
7.85581	79.6345
7.84392	79.6873
7.83207	79.654
7.82026	79.6176
7.80849	79.6725
7.79674	79.7406
7.78503	79.7581
7.77337	79.7152
7.76173	79.6818
7.75012	79.6646
7.73856	79.6132
7.72703	79.5495
7.71553	79.5008
7.70406	79.4117
7.69263	79.299
7.68123	79.2709
7.66987	79.2571
7.65855	79.2511
7.64725	79.2941
7.63598	79.3628
7.62475	79.4444
7.61356	79.5418
7.60239	79.5194
7.59126	79.6132
7.58017	79.6771
7.5691	79.6713
7.55806	79.7156
7.54707	79.764
7.5361	79.7969
7.52516	79.8212
7.51425	79.7802
7.50338	79.7359
7.49253	79.7297
7.48172	79.8694
7.47094	79.9934
7.46019	79.8378
7.44947	79.3414
7.43879	79.0864
7.42813	78.8736
7.4175	78.7039
7.4069	78.5408
7.39634	78.4452
7.3858	78.6306
7.37529	78.9455
7.36482	79.2649
7.35437	79.749
7.34396	80.2058
7.33357	80.2364
7.32321	79.7465
7.31288	79.5446
7.30258	79.2882
7.29231	78.9731
7.28207	79.1671
7.27185	79.2198
7.26167	78.8509
7.25152	78.7198
7.24139	78.6463
7.23129	78.7097
7.22122	78.9551
7.21117	79.7101
7.20116	79.6176
7.19117	79.081
7.18121	79.3291
7.17128	80.0413
7.16137	79.7665
7.1515	79.5316
7.14164	79.1918
7.13182	78.5837
7.12203	78.6415
7.11225	78.5862
7.10251	78.2468
7.0928	78.1201
7.08311	78.0326
7.07344	77.9203
7.06381	78.0624
7.0542	79.1433
7.04461	79.9219
7.03506	78.6961
7.02552	78.1532
7.01601	78.0536
7.00653	77.9485
6.99708	78.4192
6.98765	78.4077
6.97824	78.1873
6.96886	79.1394
6.95951	80.2152
6.95018	78.8735
6.94087	78.0561
6.9316	77.9622
6.92234	78.0143
6.91311	78.3137
6.90391	78.5486
6.89473	78.1655
6.88557	78.2287
6.87644	78.9681
6.86733	81.4117
6.85824	81.3408
6.84918	79.0351
6.84015	78.3069
6.83114	79.2368
6.82215	79.4952
6.81319	78.786
6.80424	79.2025
6.79532	81.0584
6.78643	81.7634
6.77756	80.9534
6.76871	80.3286
6.75989	79.7988
6.75109	79.9378
6.74231	79.8789
6.73355	80.0932
6.72482	80.8232
6.71611	81.4912
6.70742	81.2633
6.69875	80.2539
6.69011	80.7513
6.68149	81.8191
6.67289	81.3467
6.66431	80.4403
6.65576	80.085
6.64722	81.899
6.63871	84.8677
6.63022	83.6107
6.62175	81.2473
6.61331	80.7425
6.60488	80.693
6.59648	81.4493
6.5881	81.774
6.57974	82.4789
6.5714	83.3977
6.56308	81.9382
6.55478	81.3216
6.54651	80.7301
6.53825	80.021
6.53001	80.0297
6.5218	80.8339
6.51361	79.8724
6.50544	80.1017
6.49729	82.8186
6.48915	82.8022
6.48104	80.4007
6.47295	78.6022
6.46488	76.8831
6.45683	76.0299
6.4488	75.4863
6.44079	75.0341
6.4328	75.1206
6.42482	75.5974
6.41687	78.2307
6.40894	76.9653
6.40103	73.2343
6.39314	72.3098
6.38526	72.2095
6.37741	72.72
6.36957	73.3168
6.36176	72.1344
6.35396	72.0913
6.34618	73.6652
6.33843	72.6182
6.33069	70.8052
6.32297	70.3597
6.31527	70.061
6.30758	69.8422
6.29992	69.6262
6.29227	69.4136
6.28465	69.2038
6.27704	69.1402
6.26945	69.0578
6.26188	68.9652
6.25432	68.9285
6.24679	69.1705
6.23927	69.3797
6.23177	69.5863
6.22429	69.9077
6.21683	70.3184
6.20938	70.5172
6.20195	70.6462
6.19454	71.3968
6.18715	73.1402
6.17978	72.5636
6.17242	71.4306
6.16508	72.1982
6.15776	72.8372
6.15045	72.5756
6.14317	72.995
6.1359	73.2078
6.12864	73.5771
6.12141	75.4535
6.11419	77.8397
6.10699	77.1091
6.0998	76.0563
6.09263	76.1702
6.08549	76.7495
6.07835	78.6271
6.07123	79.7466
6.06413	78.6804
6.05705	80.0007
6.04998	83.9213
6.04293	81.6833
6.0359	78.6215
6.02888	78.2434
6.02187	78.8131
6.01489	79.7924
6.00792	79.4783
6.00096	79.3187
5.99403	80.777
5.98711	81.3736
5.9802	80.6581
5.97331	81.3585
5.96644	81.859
5.95958	80.7621
5.95274	80.9569
5.94591	82.1492
5.9391	84.9063
5.9323	84.1892
5.92552	82.0803
5.91876	81.9733
5.91201	81.9699
5.90528	82.6424
5.89856	85.0146
5.89186	85.0918
5.88517	86.1753
5.8785	86.6689
5.87184	84.0006
5.8652	84.0495
5.85857	83.8279
5.85196	83.2353
5.84536	83.0559
5.83878	83.6364
5.83221	84.8617
5.82566	86.5028
5.81912	86.4568
5.81259	84.4431
5.80608	83.7565
5.79959	83.9191
5.79311	83.8904
5.78665	84.2284
5.78019	84.7727
5.77376	86.0628
5.76734	88.1927
5.76093	86.6218
5.75453	85.2046
5.74815	86.0454
5.74179	85.7666
5.73543	85.5304
5.7291	85.5138
5.72277	85.9389
5.71646	86.5627
5.71017	86.8845
5.70389	85.838
5.69762	85.5673
5.69136	85.9648
5.68513	85.7445
5.6789	86.2496
5.67268	86.2451
5.66648	85.5282
5.6603	85.9993
5.65413	86.5477
5.64797	87.1558
5.64182	88.0454
5.63569	86.8586
5.62957	85.8471
5.62347	85.6666
5.61737	85.7938
5.61129	85.627
5.60522	85.6154
5.59917	85.4844
5.59313	84.9753
5.5871	85.2742
5.58109	86.2043
5.57509	85.9067
5.5691	84.9526
5.56312	84.9616
5.55716	85.344
5.55121	85.5693
5.54528	85.4194
5.53935	85.4778
5.53344	85.6496
5.52754	86.0449
5.52166	86.2635
5.51578	86.142
5.50992	86.0658
5.50407	86.2748
5.49823	86.2895
5.49241	86.3218
5.4866	86.5021
5.4808	87.0521
5.47501	86.9685
5.46923	87.1581
5.46347	87.5019
5.45772	86.9265
5.45198	86.6428
5.44625	86.6967
5.44054	86.69
5.43484	86.6918
5.42914	87.1497
5.42347	88.1517
5.4178	87.6833
5.41214	86.8716
5.4065	86.6301
5.40087	86.4447
5.39525	86.4693
5.38964	86.4621
5.38404	86.4805
5.37846	86.5047
5.37288	86.5067
5.36732	86.5288
5.36177	86.64
5.35623	87.0935
5.35071	87.5239
5.34519	86.964
5.33968	86.4511
5.33419	86.4276
5.32871	86.4094
5.32324	86.4465
5.31778	86.4914
5.31233	86.4848
5.30689	86.4825
5.30147	86.4852
5.29605	86.7552
5.29065	86.9329
5.28525	86.6498
5.27987	86.6527
5.2745	86.6759
5.26914	86.5954
5.26379	86.511
5.25845	86.5263
5.25312	86.5878
5.24781	86.6674
5.2425	86.7668
5.23721	86.8333
5.23192	86.7426
5.22665	86.6788
5.22138	86.7832
5.21613	87.2266
5.21089	87.237
5.20566	87.0071
5.20044	87.0663
5.19522	86.8719
5.19002	86.7606
5.18483	86.7419
5.17965	86.7441
5.17448	86.7912
5.16933	86.7936
5.16418	86.7392
5.15904	86.7165
5.15391	86.8426
5.14879	87.1297
5.14368	87.0119
5.13859	86.8409
5.1335	86.7615
5.12842	86.6768
5.12335	86.7287
5.1183	86.7861
5.11325	86.7151
5.10821	86.6428
5.10318	86.6971
5.09817	86.6424
5.09316	86.6428
5.08816	86.7529
5.08317	86.786
5.07819	86.688
5.07322	86.6852
5.06826	86.6923
5.06331	86.6906
5.05837	86.6721
5.05344	86.6524
5.04852	86.6008
5.04361	86.564
5.03871	86.591
5.03382	86.6196
5.02894	86.6233
5.02406	86.644
5.0192	86.6897
5.01435	86.6109
5.0095	86.5309
5.00467	86.4613
4.99984	86.4946
4.99502	86.5193
4.99021	86.4455
4.98542	86.4586
4.98063	86.4796
4.97585	86.5283
4.97108	86.4813
4.96632	86.4151
4.96156	86.4879
4.95682	86.6016
4.95209	86.5723
4.94736	86.5137
4.94264	86.4943
4.93794	86.4904
4.93324	86.4419
4.92855	86.4924
4.92387	86.5388
4.9192	86.5627
4.91453	86.5493
4.90988	86.5049
4.90524	86.4514
4.9006	86.5107
4.89597	86.5497
4.89135	86.5851
4.88674	86.5432
4.88214	86.4866
4.87755	86.4935
4.87296	86.5009
4.86839	86.5094
4.86382	86.5436
4.85926	86.5603
4.85471	86.5474
4.85017	86.511
4.84564	86.545
4.84111	86.6109
4.8366	86.5811
4.83209	86.5379
4.82759	86.5726
4.8231	86.5816
4.81862	86.5316
4.81415	86.5696
4.80968	86.585
4.80522	86.5358
4.80077	86.5521
4.79633	86.5196
4.7919	86.5486
4.78747	86.5813
4.78306	86.5938
4.77865	86.6174
4.77425	86.6076
4.76986	86.5466
4.76547	86.514
4.7611	86.5387
4.75673	86.5409
4.75237	86.5001
4.74802	86.5148
4.74367	86.5026
4.73934	86.527
4.73501	86.5607
4.73069	86.5667
4.72638	86.5068
4.72207	86.47
4.71777	86.4626
4.71348	86.448
4.7092	86.4704
4.70493	86.4804
4.70066	86.3942
4.69641	86.3391
4.69216	86.3204
4.68791	86.2835
4.68368	86.2481
4.67945	86.2622
4.67523	86.3091
4.67102	86.3042
4.66682	86.3063
4.66262	86.3764
4.65843	86.39
4.65425	86.3705
4.65007	86.3799
4.64591	86.4196
4.64175	86.4607
4.6376	86.5306
4.63345	86.5984
4.62932	86.6351
4.62519	86.648
4.62106	86.682
4.61695	86.6982
4.61284	86.7313
4.60874	86.729
4.60465	86.7037
4.60056	86.7152
4.59648	86.7707
4.59241	86.7586
4.58835	86.7629
4.58429	86.7892
4.58024	86.8149
4.5762	86.8456
4.57216	86.8805
4.56814	86.8625
4.56411	86.8654
4.5601	86.8835
4.55609	86.8834
4.55209	86.8412
4.5481	86.8463
4.54411	86.8664
4.54013	86.866
4.53616	86.8769
4.5322	86.9135
4.52824	86.9273
4.52429	86.9487
4.52034	86.9912
4.51641	86.9509
4.51247	86.9365
4.50855	86.9826
4.50463	86.9848
4.50072	86.9689
4.49682	86.9559
4.49292	86.9862
4.48903	86.9902
4.48515	87.0212
4.48127	87.0143
4.4774	87.0044
4.47354	87.0315
4.46968	87.0714
4.46584	87.1106
4.46199	87.1474
4.45815	87.1263
4.45432	87.1702
4.4505	87.1924
4.44668	87.1484
4.44287	87.0937
4.43907	87.0901
4.43527	87.1062
4.43148	87.1302
4.4277	87.17
4.42392	87.153
4.42015	87.1638
4.41638	87.2285
4.41262	87.2204
4.40887	87.2155
4.40513	87.2112
4.40139	87.2019
4.39765	87.1922
4.39393	87.2252
4.39021	87.2559
4.38649	87.2344
4.38278	87.2026
4.37908	87.2123
4.37539	87.2354
4.3717	87.2586
4.36801	87.2606
4.36434	87.2616
4.36067	87.2399
4.357	87.3051
4.35335	87.3694
4.34969	87.3443
4.34605	87.3045
4.34241	87.3236
4.33877	87.3756
4.33514	87.4016
4.33152	87.3606
4.32791	87.3619
4.3243	87.4415
4.32069	87.4676
4.3171	87.5026
4.31351	87.5511
4.30992	87.6079
4.30634	87.6516
4.30277	87.6711
4.2992	87.6812
4.29564	87.7036
4.29208	87.7828
4.28853	87.7653
4.28499	87.7115
4.28145	87.8203
4.27792	87.8364
4.27439	87.713
4.27087	87.6616
4.26735	87.6413
4.26384	87.5672
4.26034	87.4585
4.25684	87.4383
4.25335	87.4867
4.24986	87.6269
4.24638	87.7789
4.24291	87.8619
4.23944	87.9881
4.23598	88.0163
4.23252	87.9862
4.22906	87.979
4.22562	87.9713
4.22218	87.8944
4.21874	87.7796
4.21531	87.6886
4.21189	87.6262
4.20847	87.5581
4.20506	87.5029
4.20165	87.504
4.19825	87.4605
4.19485	87.4163
4.19146	87.3993
4.18807	87.4364
4.18469	87.4967
4.18132	87.4573
4.17795	87.3781
4.17458	87.361
4.17123	87.3692
4.16787	87.3779
4.16453	87.3995
4.16118	87.4436
4.15785	87.4556
4.15451	87.4467
4.15119	87.4766
4.14787	87.4679
4.14455	87.4208
4.14124	87.4336
4.13794	87.4487
4.13464	87.4905
4.13134	87.4387
4.12805	87.3609
4.12477	87.3442
4.12149	87.3824
4.11822	87.433
4.11495	87.3867
4.11168	87.3394
4.10843	87.315
4.10517	87.3085
4.10192	87.3062
4.09868	87.3002
4.09545	87.3085
4.09221	87.3432
4.08899	87.3244
4.08576	87.2669
4.08255	87.2131
4.07933	87.2398
4.07613	87.2489
4.07292	87.1995
4.06973	87.1667
4.06654	87.1417
4.06335	87.0838
4.06017	87.0811
4.05699	87.0331
4.05382	87.0108
4.05065	87.0511
4.04749	86.9702
4.04433	86.8704
4.04118	86.8095
4.03803	86.7277
4.03489	86.6569
4.03175	86.6201
4.02862	86.5697
4.02549	86.5343
4.02237	86.4598
4.01925	86.3559
4.01614	86.2964
4.01303	86.216
4.00993	86.1232
4.00683	86.0906
4.00373	86.0717
4.00064	86.0562
3.99756	85.9751
3.99448	85.9501
3.9914	85.8986
3.98833	85.829
3.98527	85.829
3.98221	85.8611
3.97915	85.8319
3.9761	85.8362
3.97305	85.8516
3.97001	85.8336
3.96697	85.7895
3.96394	85.7656
3.96091	85.8126
3.95789	85.9109
3.95487	85.9738
3.95186	86.0112
3.94885	86.0433
3.94584	86.0842
3.94284	86.1435
3.93984	86.2465
3.93685	86.3047
3.93386	86.3083
3.93088	86.2763
3.9279	86.2692
3.92493	86.2982
3.92196	86.2846
3.919	86.2908
3.91604	86.3518
3.91308	86.3481
3.91013	86.3249
3.90718	86.3777
3.90424	86.3584
3.9013	86.3251
3.89837	86.3139
3.89544	86.2999
3.89252	86.3361
3.8896	86.3418
3.88668	86.3755
3.88377	86.3497
3.88086	86.2716
3.87796	86.2902
3.87506	86.3478
3.87217	86.3562
3.86928	86.3921
3.86639	86.3903
3.86351	86.328
3.86064	86.3334
3.85776	86.3275
3.8549	86.3306
3.85203	86.3129
3.84917	86.3116
3.84631	86.3589
3.84346	86.4003
3.84062	86.4306
3.83777	86.4347
3.83494	86.408
3.8321	86.4588
3.82927	86.5027
3.82644	86.4662
3.82362	86.5008
3.82081	86.593
3.81799	86.6608
3.81518	86.7701
3.81238	86.7815
3.80958	86.7847
3.80678	86.8132
3.80399	86.872
3.8012	86.9525
3.79841	87.0253
3.79563	87.036
3.79286	87.0233
3.79008	87.0756
3.78731	87.1562
3.78455	87.1872
3.78179	87.1634
3.77903	87.1699
3.77628	87.1881
3.77353	87.1939
3.77079	87.1846
3.76805	87.1659
3.76531	87.154
3.76258	87.1981
3.75985	87.2047
3.75713	87.2324
3.7544	87.2564
3.75169	87.1529
3.74898	87.1013
3.74627	87.1375
3.74356	87.1707
3.74086	87.1562
3.73816	87.169
3.73547	87.1572
3.73278	87.1111
3.7301	87.0864
3.72741	87.0661
3.72474	87.0554
3.72206	87.0187
3.71939	87.0212
3.71673	86.9783
3.71406	86.987
3.71141	87.0835
3.70875	87.0663
3.7061	87.0077
3.70345	86.9816
3.70081	86.961
3.69817	86.9342
3.69553	86.8944
3.6929	86.9115
3.69027	86.9875
3.68765	87.0178
3.68503	86.9343
3.68241	86.895
3.6798	86.8915
3.67719	86.854
3.67458	86.8508
3.67198	86.8818
3.66938	86.8894
3.66678	86.8461
3.66419	86.8083
3.66161	86.8257
3.65902	86.8698
3.65644	86.9071
3.65387	86.8889
3.65129	86.8219
3.64872	86.7787
3.64616	86.7611
3.64359	86.7215
3.64103	86.6985
3.63848	86.6346
3.63593	86.6469
3.63338	86.7578
3.63084	86.7837
3.6283	86.7255
3.62576	86.6689
3.62322	86.7089
3.62069	86.7624
3.61817	86.727
3.61564	86.6934
3.61312	86.682
3.61061	86.6764
3.6081	86.5878
3.60559	86.5756
3.60308	86.575
3.60058	86.5529
3.59808	86.5362
3.59558	86.5156
3.59309	86.5141
3.59061	86.5049
3.58812	86.4439
3.58564	86.3689
3.58316	86.2879
3.58069	86.2818
3.57822	86.2914
3.57575	86.2195
3.57328	86.0968
3.57082	86.0389
3.56836	86.0358
3.56591	86.0278
3.56346	85.9623
3.56101	85.917
3.55857	85.8899
3.55613	85.917
3.55369	85.903
3.55126	85.7823
3.54883	85.7074
3.5464	85.7132
3.54397	85.6648
3.54155	85.5364
3.53914	85.4385
3.53672	85.3835
3.53431	85.3345
3.5319	85.2392
3.5295	85.081
3.5271	84.9501
3.5247	84.7957
3.52231	84.6647
3.51991	84.5597
3.51753	84.4311
3.51514	84.2622
3.51276	84.0197
3.51038	83.6566
3.50801	83.3649
3.50563	83.1443
3.50327	83.001
3.5009	82.993
3.49854	83.0344
3.49618	83.0383
3.49382	83.0421
3.49147	83.0862
3.48912	83.1179
3.48677	83.1183
3.48443	83.203
3.48209	83.2235
3.47975	83.1812
3.47742	83.1858
3.47509	83.1966
3.47276	83.2419
3.47044	83.312
3.46812	83.3633
3.4658	83.4522
3.46348	83.5874
3.46117	83.6718
3.45886	83.7076
3.45656	83.6565
3.45425	83.5331
3.45195	83.4998
3.44966	83.4515
3.44736	83.3295
3.44507	83.2022
3.44279	83.1071
3.4405	83.0422
3.43822	82.9379
3.43594	82.7137
3.43367	82.5191
3.43139	82.2259
3.42912	81.9761
3.42686	81.8367
3.42459	81.7176
3.42233	81.6136
3.42007	81.4947
3.41782	81.3804
3.41557	81.2806
3.41332	81.2769
3.41108	81.3363
3.40883	81.3946
3.40659	81.55
3.40435	81.6951
3.40212	81.808
3.39989	81.888
3.39766	82.0401
3.39544	82.2261
3.39322	82.2875
3.391	82.2902
3.38878	82.2832
3.38657	82.2678
3.38436	82.193
3.38215	82.0358
3.37994	81.9122
3.37774	81.8114
3.37554	81.7472
3.37335	81.6775
3.37115	81.7368
3.36896	81.8982
3.36678	82.0449
3.36459	82.1517
3.36241	82.2418
3.36023	82.3755
3.35805	82.4327
3.35588	82.4555
3.35371	82.4908
3.35154	82.5625
3.34938	82.6351
3.34721	82.7065
3.34505	82.8574
3.3429	82.9964
3.34074	83.0883
3.33859	83.178
3.33644	83.2528
3.3343	83.277
3.33215	83.2514
3.33001	83.3065
3.32788	83.3772
3.32574	83.4076
3.32361	83.3852
3.32148	83.3216
3.31936	83.2274
3.31723	83.2503
3.31511	83.3016
3.31299	83.307
3.31088	83.3045
3.30876	83.208
3.30665	83.1508
3.30455	83.1887
3.30244	83.1732
3.30034	83.1593
3.29824	83.0809
3.29614	82.9218
3.29405	82.7914
3.29196	82.8527
3.28987	82.9015
3.28778	82.7737
3.2857	82.6356
3.28362	82.6242
3.28154	82.6234
3.27946	82.6124
3.27739	82.6394
3.27532	82.6272
3.27325	82.5487
3.27119	82.4453
3.26913	82.3124
3.26707	82.1935
3.26501	82.1966
3.26295	82.2184
3.2609	82.1505
3.25885	82.1196
3.2568	82.0224
3.25476	81.9282
3.25272	81.9524
3.25068	81.953
3.24864	81.874
3.24661	81.7507
3.24458	81.6146
3.24255	81.5975
3.24052	81.5981
3.2385	81.514
3.23648	81.4239
3.23446	81.3145
3.23244	81.3113
3.23043	81.3086
3.22841	81.1806
3.2264	81.1141
3.2244	81.115
3.22239	81.0414
3.22039	80.9836
3.21839	80.9084
3.2164	80.8093
3.2144	80.6978
3.21241	80.5941
3.21042	80.5553
3.20844	80.5111
3.20645	80.3604
3.20447	80.2098
3.20249	80.2767
3.20051	80.3213
3.19854	80.1654
3.19657	80.0406
3.1946	80.038
3.19263	80.0561
3.19067	79.9741
3.1887	79.7824
3.18674	79.6131
3.18479	79.524
3.18283	79.43
3.18088	79.3562
3.17893	79.3651
3.17698	79.3017
3.17504	79.1776
3.17309	79.0947
3.17115	79.0209
3.16921	78.9583
3.16728	78.9388
3.16534	78.8167
3.16341	78.6986
3.16148	78.6
3.15956	78.4531
3.15763	78.4338
3.15571	78.4158
3.15379	78.2658
3.15187	78.1552
3.14996	78.0614
3.14805	78.0391
3.14614	78.0158
3.14423	77.9279
3.14232	77.8795
3.14042	77.8513
3.13852	77.7461
3.13662	77.6341
3.13472	77.5832
3.13283	77.6027
3.13094	77.5242
3.12905	77.4128
3.12716	77.3333
3.12528	77.2926
3.12339	77.2782
3.12151	77.1756
3.11964	77.0119
3.11776	76.9545
3.11589	76.9299
3.11401	76.8055
3.11214	76.7178
3.11028	76.6745
3.10841	76.6148
3.10655	76.5407
3.10469	76.5086
3.10283	76.5346
3.10098	76.5207
3.09912	76.4819
3.09727	76.3336
3.09542	76.3731
3.09358	76.4389
3.09173	76.298
3.08989	76.1857
3.08805	76.1216
3.08621	76.0904
3.08437	76.0587
3.08254	76.0159
3.08071	75.9816
3.07888	75.8968
3.07705	75.8443
3.07523	75.832
3.0734	75.8718
3.07158	75.762
3.06977	75.6823
3.06795	75.8076
3.06613	75.7659
3.06432	75.6299
3.06251	75.5466
3.0607	75.46
3.0589	75.4474
3.0571	75.5438
3.05529	75.5981
3.05349	75.506
3.0517	75.4475
3.0499	75.3874
3.04811	75.2726
3.04632	75.1465
3.04453	75.1682
3.04274	75.2011
3.04096	75.1797
3.03918	75.2023
3.0374	75.1487
3.03562	75.0875
3.03384	75.0504
3.03207	74.9868
3.03029	74.9412
3.02852	74.9819
3.02676	74.9994
3.02499	74.9362
3.02323	74.8671
3.02146	74.8073
3.0197	74.7277
3.01795	74.6347
3.01619	74.6425
3.01444	74.6918
3.01269	74.6117
3.01094	74.5493
3.00919	74.6313
3.00744	74.6509
3.0057	74.6027
3.00396	74.5121
3.00222	74.419
3.00048	74.3967
2.99875	74.361
2.99701	74.3244
2.99528	74.2482
2.99355	74.1689
2.99183	74.1803
2.9901	74.3061
2.98838	74.3122
2.98666	74.2829
2.98494	74.2686
2.98322	74.2751
2.9815	74.2485
2.97979	74.0755
2.97808	73.9647
2.97637	73.9744
2.97466	73.9576
2.97295	73.952
2.97125	74.0789
2.96955	74.0334
2.96785	73.9082
2.96615	73.8442
2.96446	73.8158
2.96276	73.7794
2.96107	73.7926
2.95938	73.7726
2.95769	73.7804
2.95601	73.8232
2.95432	73.8078
2.95264	73.7335
2.95096	73.7551
2.94928	73.7866
2.9476	73.813
2.94593	73.7489
2.94425	73.7656
2.94258	73.83
2.94092	73.8503
2.93925	73.8322
2.93758	73.781
2.93592	73.7842
2.93426	73.7777
2.9326	73.7248
2.93094	73.7408
2.92928	73.8156
2.92763	73.7645
2.92598	73.73
2.92433	73.8636
2.92268	73.9428
2.92103	73.8786
2.91939	73.8741
2.91775	73.9282
2.9161	73.8936
2.91447	73.9135
2.91283	74.0541
2.91119	74.0953
2.90956	74.0463
2.90793	74.0548
2.9063	74.101
2.90467	74.1915
2.90304	74.213
2.90142	74.3163
2.89979	74.2965
2.89817	74.2261
2.89656	74.3222
2.89494	74.2901
2.89332	74.2751
2.89171	74.3264
2.8901	74.4695
2.88849	74.5594
2.88688	74.5233
2.88527	74.5593
2.88367	74.6054
2.88206	74.6011
2.88046	74.6349
2.87886	74.7647
2.87727	74.8627
2.87567	74.8726
2.87408	74.8807
2.87248	74.9873
2.87089	74.9687
2.8693	74.9461
2.86772	75.0604
2.86613	75.1728
2.86455	75.1203
2.86297	75.1315
2.86139	75.2514
2.85981	75.3863
2.85823	75.4045
2.85666	75.4672
2.85508	75.6672
2.85351	75.7448
2.85194	75.7619
2.85038	75.9012
2.84881	75.971
2.84724	75.9103
2.84568	75.8631
2.84412	75.861
2.84256	76.0051
2.841	76.2408
2.83945	76.4096
2.83789	76.437
2.83634	76.4763
2.83479	76.59
2.83324	76.5942
2.83169	76.5594
2.83015	76.4645
2.82861	76.6633
2.82706	76.7518
2.82552	76.7009
2.82398	76.8623
2.82245	77.0803
2.82091	77.4433
2.81938	77.5768
2.81784	77.3195
2.81631	77.2779
2.81479	77.4428
2.81326	77.4494
2.81173	77.4511
2.81021	77.5484
2.80869	77.7619
2.80716	77.9318
2.80565	78.2281
2.80413	78.939
2.80261	79.0982
2.8011	78.3935
2.79959	78.1017
2.79808	78.2009
2.79657	78.2913
2.79506	78.3534
2.79355	78.4494
2.79205	78.5115
2.79055	78.6742
2.78904	79.2934
2.78754	80.1515
2.78605	79.9289
2.78455	79.1644
2.78306	79.3243
2.78156	79.7054
2.78007	79.6383
2.77858	79.5187
2.77709	79.6122
2.77561	79.6929
2.77412	79.8846
2.77264	80.3673
2.77116	80.9993
2.76968	80.9589
2.7682	81.0034
2.76672	80.8397
2.76524	80.6843
2.76377	81.4529
2.7623	81.747
2.76083	80.8073
2.75936	80.5667
2.75789	81.1451
2.75642	82.9574
2.75496	83.5888
2.7535	81.9818
2.75203	81.4224
2.75057	81.3231
2.74912	81.4361
2.74766	81.536
2.7462	81.6067
2.74475	81.7571
2.7433	82.3871
2.74185	84.0051
2.7404	85.4217
2.73895	84.9044
2.7375	83.356
2.73606	83.5062
2.73462	84.1523
2.73318	83.4802
2.73174	83.2213
2.7303	83.2983
2.72886	83.4269
2.72742	83.9262
2.72599	85.3152
2.72456	86.6515
2.72313	85.8567
2.7217	86.6224
2.72027	87.811
2.71884	85.9793
2.71742	85.1722
2.71599	84.8609
2.71457	84.9081
2.71315	85.3532
2.71173	87.1473
2.71032	87.7032
2.7089	86.6893
2.70748	85.7961
2.70607	85.5134
2.70466	85.5039
2.70325	85.636
2.70184	86.312
2.70043	86.2628
2.69903	85.9349
2.69762	86.2473
2.69622	87.0799
2.69482	88.0793
2.69342	88.1087
2.69202	86.8396
2.69062	86.4539
2.68923	86.7183
2.68783	86.9618
2.68644	87.1895
2.68505	87.2268
2.68366	87.3735
2.68227	87.0281
2.68089	87.2032
2.6795	88.4927
2.67812	88.9436
2.67673	89.4469
2.67535	88.5504
2.67397	87.5349
2.6726	87.8012
2.67122	90.4722
2.66984	90.742
2.66847	88.9879
2.6671	90.354
2.66572	90.7083
2.66435	89.3567
2.66299	87.6019
2.66162	87.6162
2.66025	87.8457
2.65889	87.5904
2.65753	87.0393
2.65616	87.5813
2.65481	87.6464
2.65345	87.8579
2.65209	88.0031
2.65073	87.286
2.64938	86.8903
2.64803	86.9634
2.64667	87.4522
2.64532	87.6847
2.64397	87.1065
2.64263	87.1422
2.64128	87.0968
2.63994	87.0147
2.63859	87.0048
2.63725	87.117
2.63591	87.1661
2.63457	87.7227
2.63323	87.8128
2.6319	88.461
2.63056	89.9027
2.62923	88.6606
2.62789	88.1858
2.62656	88.9584
2.62523	87.761
2.6239	87.1418
2.62258	87.2772
2.62125	88.8217
2.61993	89.3199
2.6186	88.5063
2.61728	89.6816
2.61596	89.0738
2.61464	87.6534
2.61332	87.7289
2.61201	87.6057
2.61069	87.9039
2.60938	88.2926
2.60807	88.3831
2.60675	89.1222
2.60544	90.0096
2.60414	89.2274
2.60283	88.4029
2.60152	88.0113
2.60022	87.5315
2.59891	87.2363
2.59761	87.8216
2.59631	90.1113
2.59501	92.8929
2.59371	90.7736
2.59242	88.0605
2.59112	87.5828
2.58983	88.0162
2.58853	88.5414
2.58724	88.7718
2.58595	88.1938
2.58466	89.1127
2.58338	89.2917
2.58209	88.2548
2.5808	88.1886
2.57952	87.4034
2.57824	87.6678
2.57695	88.3817
2.57567	87.9734
2.5744	88.4376
2.57312	88.885
2.57184	87.7861
2.57057	88.1774
2.56929	88.4551
2.56802	87.6454
2.56675	87.34
2.56548	87.8997
2.56421	88.6321
2.56294	88.8738
2.56168	88.9359
2.56041	88.3021
2.55915	87.3753
2.55789	87.1321
2.55662	87.1941
2.55536	87.2317
2.5541	87.53
2.55285	87.8998
2.55159	87.7288
2.55034	87.3781
2.54908	87.2831
2.54783	87.444
2.54658	87.2304
2.54533	87.2433
2.54408	87.5423
2.54283	87.6707
2.54159	87.3484
2.54034	87.1466
2.5391	87.145
2.53785	87.1892
2.53661	87.4475
2.53537	87.4475
2.53413	87.2022
2.53289	87.2523
2.53166	87.3447
2.53042	87.2632
2.52919	87.2223
2.52795	87.2261
2.52672	87.1953
2.52549	87.2245
2.52426	87.1968
2.52303	87.1576
2.52181	87.097
2.52058	87.153
2.51936	87.1723
2.51813	87.157
2.51691	87.1972
2.51569	87.2075
2.51447	87.1017
2.51325	87.0666
2.51203	87.1482
2.51082	87.2133
2.5096	87.1733
2.50839	87.1797
2.50717	87.151
2.50596	87.2788
2.50475	87.2839
2.50354	87.1365
2.50233	87.2057
2.50113	87.2249
2.49992	87.2331
2.49872	87.2217
2.49751	87.1996
2.49631	87.2497
2.49511	87.3517
2.49391	87.2843
2.49271	87.1894
2.49151	87.2143
2.49031	87.2607
2.48912	87.2895
2.48792	87.2937
2.48673	87.3031
2.48554	87.3537
2.48435	87.321
2.48316	87.3707
2.48197	87.4013
2.48078	87.329
2.4796	87.2384
2.47841	87.1848
2.47723	87.2351
2.47604	87.27
2.47486	87.1675
2.47368	87.1656
2.4725	87.3281
2.47132	87.3697
2.47014	87.3448
2.46897	87.3765
2.46779	87.3522
2.46662	87.2497
2.46545	87.247
2.46427	87.2921
2.4631	87.2875
2.46193	87.2852
2.46077	87.2927
2.4596	87.2964
2.45843	87.3528
2.45727	87.3818
2.4561	87.3902
2.45494	87.3989
2.45378	87.4145
2.45262	87.4572
2.45146	87.4928
2.4503	87.4434
2.44914	87.4164
2.44799	87.3965
2.44683	87.3627
2.44568	87.3932
2.44452	87.3972
2.44337	87.4118
2.44222	87.3612
2.44107	87.3285
2.43992	87.2744
2.43877	87.2959
2.43763	87.2944
2.43648	87.3004
2.43534	87.3557
2.43419	87.3563
2.43305	87.4577
2.43191	87.4364
2.43077	87.2879
2.42963	87.4189
2.42849	87.524
2.42736	87.5232
2.42622	87.5373
2.42509	87.4825
2.42395	87.4516
2.42282	87.4888
2.42169	87.4595
2.42056	87.4263
2.41943	87.4698
2.4183	87.4859
2.41717	87.471
2.41605	87.4889
2.41492	87.5105
2.4138	87.4762
2.41267	87.4017
2.41155	87.4377
2.41043	87.4319
2.40931	87.4805
2.40819	87.5013
2.40707	87.4521
2.40595	87.4196
2.40484	87.4237
2.40372	87.4856
2.40261	87.5841
2.4015	87.5824
2.40039	87.4771
2.39928	87.4319
2.39817	87.4477
2.39706	87.4108
2.39595	87.4574
2.39484	87.4213
2.39374	87.3862
2.39263	87.4412
2.39153	87.4767
2.39043	87.4865
2.38932	87.5718
2.38822	87.663
2.38712	87.6347
2.38603	87.5237
2.38493	87.4766
2.38383	87.4015
2.38274	87.4213
2.38164	87.4627
2.38055	87.5112
2.37946	87.5113
2.37836	87.5832
2.37727	87.6473
2.37618	87.5047
2.3751	87.3723
2.37401	87.4044
2.37292	87.4358
2.37184	87.414
2.37075	87.424
2.36967	87.4784
2.36859	87.5252
2.3675	87.595
2.36642	87.5756
2.36534	87.5682
2.36427	87.6392
2.36319	87.6273
2.36211	87.4815
2.36104	87.4908
2.35996	87.5396
2.35889	87.5213
2.35781	87.445
2.35674	87.4787
2.35567	87.557
2.3546	87.5676
2.35353	87.5751
2.35247	87.592
2.3514	87.6315
2.35033	87.5929
2.34927	87.6524
2.3482	87.7199
2.34714	87.575
2.34608	87.5504
2.34502	87.55
2.34396	87.5044
2.3429	87.4809
2.34184	87.5053
2.34078	87.5967
2.33973	87.6662
2.33867	87.6948
2.33762	87.6303
2.33656	87.5477
2.33551	87.5374
2.33446	87.558
2.33341	87.5352
2.33236	87.5081
2.33131	87.4391
2.33026	87.4462
2.32922	87.5825
2.32817	87.5975
2.32712	87.5927
2.32608	87.6421
2.32504	87.5218
2.324	87.5998
2.32295	87.6926
2.32191	87.6465
2.32087	87.5958
2.31984	87.5148
2.3188	87.5026
2.31776	87.5407
2.31673	87.6363
2.31569	87.6999
2.31466	87.5878
2.31362	87.5139
2.31259	87.6006
2.31156	87.5848
2.31053	87.5095
2.3095	87.5555
2.30847	87.5148
2.30745	87.4463
2.30642	87.5051
2.3054	87.6116
2.30437	87.5751
2.30335	87.4615
2.30232	87.4082
2.3013	87.5554
2.30028	87.6727
2.29926	87.602
2.29824	87.5794
2.29722	87.6813
2.29621	87.6966
2.29519	87.6467
2.29417	87.7396
2.29316	87.6753
2.29215	87.5349
2.29113	87.5096
2.29012	87.4897
2.28911	87.5552
2.2881	87.6435
2.28709	87.5311
2.28608	87.4395
2.28507	87.5929
2.28407	87.6762
2.28306	87.5926
2.28206	87.5333
2.28105	87.5454
2.28005	87.6089
2.27905	87.5611
2.27805	87.5521
2.27705	87.5768
2.27605	87.5602
2.27505	87.5675
2.27405	87.7259
2.27305	87.7437
2.27206	87.5821
2.27106	87.525
2.27007	87.6108
2.26907	87.6625
2.26808	87.7048
2.26709	87.7613
2.2661	87.7167
2.26511	87.6166
2.26412	87.5919
2.26313	87.5803
2.26214	87.5919
2.26116	87.6729
2.26017	87.7286
2.25919	87.7122
2.2582	87.6705
2.25722	87.6634
2.25624	87.7834
2.25526	87.7423
2.25428	87.6775
2.2533	87.6065
2.25232	87.5585
2.25134	87.682
2.25036	87.6762
2.24939	87.643
2.24841	87.5367
2.24744	87.4502
2.24646	87.6499
2.24549	87.8307
2.24452	87.8508
2.24355	87.8012
2.24257	87.8628
2.24161	87.8249
2.24064	87.7411
2.23967	87.6158
2.2387	87.5212
2.23774	87.5735
2.23677	87.5929
2.23581	87.5617
2.23484	87.7211
2.23388	87.7817
2.23292	87.7505
2.23196	87.7146
2.231	87.7189
2.23004	87.697
2.22908	87.7193
2.22812	87.7685
2.22716	87.7298
2.22621	87.7715
2.22525	87.7448
2.2243	87.7119
2.22334	87.6768
2.22239	87.6246
2.22144	87.6613
2.22049	87.6322
2.21953	87.5442
2.21859	87.5574
2.21764	87.6226
2.21669	87.6654
2.21574	87.705
2.21479	87.6907
2.21385	87.67
2.2129	87.6117
2.21196	87.6647
2.21102	87.6705
2.21007	87.5783
2.20913	87.5707
2.20819	87.6386
2.20725	87.5885
2.20631	87.5447
2.20537	87.6233
2.20444	87.6615
2.2035	87.6691
2.20256	87.6226
2.20163	87.56
2.20069	87.5454
2.19976	87.5329
2.19883	87.6785
2.19789	87.6895
2.19696	87.5598
2.19603	87.659
2.1951	87.7637
2.19417	87.625
2.19325	87.7041
2.19232	87.7585
2.19139	87.646
2.19047	87.5757
2.18954	87.692
2.18862	87.7478
2.18769	87.7113
2.18677	87.7088
2.18585	87.6454
2.18493	87.6676
2.18401	87.6564
2.18309	87.5609
2.18217	87.6786
2.18125	87.7342
2.18033	87.6511
2.17942	87.6274
2.1785	87.5304
2.17759	87.5214
2.17667	87.6717
2.17576	87.6167
2.17485	87.5572
2.17393	87.6205
2.17302	87.6663
2.17211	87.738
2.1712	87.8415
2.17029	87.7653
2.16939	87.5037
2.16848	87.4882
2.16757	87.6988
2.16667	87.8167
2.16576	87.7984
2.16486	87.708
2.16395	87.5637
2.16305	87.5792
2.16215	87.6193
2.16125	87.5825
2.16035	87.6284
2.15945	87.6995
2.15855	87.7051
2.15765	87.6065
2.15675	87.458
2.15586	87.4574
2.15496	87.4864
2.15406	87.5761
2.15317	87.549
2.15228	87.5764
2.15138	87.7039
2.15049	87.6667
2.1496	87.5318
2.14871	87.5218
2.14782	87.562
2.14693	87.605
2.14604	87.7209
2.14515	87.6039
2.14427	87.5129
2.14338	87.4866
2.14249	87.5003
2.14161	87.501
2.14072	87.5887
2.13984	87.6169
2.13896	87.5898
2.13808	87.5463
2.13719	87.5911
2.13631	87.5351
2.13543	87.5644
2.13455	87.6116
2.13368	87.634
2.1328	87.6487
2.13192	87.6764
2.13105	87.6714
2.13017	87.7073
2.1293	87.5865
2.12842	87.4632
2.12755	87.6059
2.12668	87.7014
2.1258	87.6444
2.12493	87.7259
2.12406	87.7822
2.12319	87.61
2.12232	87.5844
2.12145	87.7536
2.12059	87.7238
2.11972	87.5603
2.11885	87.4852
2.11799	87.5568
2.11712	87.6505
2.11626	87.7017
2.1154	87.6598
2.11453	87.4868
2.11367	87.4452
2.11281	87.6273
2.11195	87.68
2.11109	87.5655
2.11023	87.4662
2.10937	87.518
2.10851	87.5495
2.10766	87.6056
2.1068	87.7243
2.10594	87.7127
2.10509	87.5931
2.10423	87.6628
2.10338	87.5949
2.10253	87.5142
2.10168	87.5862
2.10082	87.6489
2.09997	87.6864
2.09912	87.6312
2.09827	87.5498
2.09742	87.5273
2.09658	87.5269
2.09573	87.5969
2.09488	87.7335
2.09404	87.7078
2.09319	87.657
2.09235	87.6541
2.0915	87.6575
2.09066	87.84
2.08982	87.839
2.08897	87.6744
2.08813	87.6874
2.08729	87.5234
2.08645	87.5998
2.08561	87.7683
2.08477	87.8806
2.08394	87.7999
2.0831	87.6545
2.08226	87.6351
2.08143	87.759
2.08059	87.6863
2.07976	87.6103
2.07892	87.5624
2.07809	87.3776
2.07726	87.3309
2.07643	87.3637
2.07559	87.2579
2.07476	87.5649
2.07393	87.9648
2.0731	87.7812
2.07228	87.5322
2.07145	87.7527
2.07062	87.5101
2.06979	87.1552
2.06897	87.2953
2.06814	87.6319
2.06732	87.744
2.06649	87.6463
2.06567	87.4508
2.06485	87.4142
2.06403	87.6201
2.0632	87.5627
2.06238	87.4688
2.06156	87.5509
2.06074	87.5992
2.05993	87.4412
2.05911	87.4242
2.05829	87.5275
2.05747	87.3869
2.05666	87.2898
2.05584	87.3908
2.05503	87.4652
2.05421	87.5235
2.0534	87.6651
2.05259	87.8272
2.05177	87.8034
2.05096	87.6792
2.05015	87.6611
2.04934	87.7758
2.04853	87.6916
2.04772	87.4431
2.04691	87.3242
2.04611	87.4049
2.0453	87.4348
2.04449	87.5513
2.04369	87.6702
2.04288	87.6149
2.04208	87.5916
2.04127	87.5232
2.04047	87.4707
2.03967	87.6682
2.03886	87.6506
2.03806	87.5718
2.03726	87.5355
2.03646	87.4504
2.03566	87.4972
2.03486	87.5966
2.03407	87.5495
2.03327	87.3959
2.03247	87.4629
2.03167	87.6491
2.03088	87.6
2.03008	87.5093
2.02929	87.3324
2.0285	87.3633
2.0277	87.4155
2.02691	87.3591
2.02612	87.3693
2.02533	87.3751
2.02453	87.4173
2.02374	87.4496
2.02295	87.4061
2.02217	87.4353
2.02138	87.5191
2.02059	87.4337
2.0198	87.3297
2.01902	87.3521
2.01823	87.4306
2.01744	87.5088
2.01666	87.5043
2.01588	87.3776
2.01509	87.4108
2.01431	87.6118
2.01353	87.587
2.01275	87.4266
2.01196	87.4442
2.01118	87.4453
2.0104	87.3352
2.00963	87.2627
2.00885	87.3118
2.00807	87.2972
2.00729	87.4565
2.00651	87.4091
2.00574	87.3024
2.00496	87.4725
2.00419	87.6864
2.00341	87.561
2.00264	87.5307
2.00187	87.4805
2.00109	87.4007
2.00032	87.4029
