Name: Dolomite CaMg(CO_3)_2
Type: Mineral
Class: Carbonates
Subclass: 
Particle Size: 0-45um
Sample No.: C-5A
Owner: JPL
Wavelength range: IR
Origin: USA, Colorado
Collected by Ward's
Description:  Red banded dolomite. 





Measurement: Hemispherical reflectance
First Column: X
Second Column: Y
X Units:  Wavelength (micrometers)
Y Units:  Reflectance (percent)
First X Value: 15.3853
Last X Value: 2.00032
Number of X Values: 2256
Additional information: c05aa.txt
 
15.3853	12.0294
15.3397	12.077
15.2945	12.2778
15.2495	12.6802
15.2048	12.9187
15.1603	13.1861
15.1161	13.4669
15.0722	13.9559
15.0285	14.5129
14.9851	14.7764
14.9419	14.9252
14.8989	15.0345
14.8563	15.1581
14.8138	15.3074
14.7716	15.4714
14.7296	15.4273
14.6879	15.5513
14.6464	15.5171
14.6052	15.3224
14.5641	15.272
14.5233	14.9903
14.4828	14.1842
14.4424	13.3522
14.4023	12.8438
14.3624	12.917
14.3227	13.6401
14.2833	14.5329
14.244	15.1539
14.205	15.5318
14.1662	15.497
14.1276	15.4256
14.0892	14.9879
14.051	14.1207
14.0131	13.3268
13.9753	12.5544
13.9377	11.7109
13.9004	10.3843
13.8632	8.45812
13.8262	6.48503
13.7895	4.81311
13.7529	3.48043
13.7165	2.65227
13.6803	2.06592
13.6443	2.08439
13.6085	3.08194
13.5729	5.04926
13.5374	7.38175
13.5022	9.77142
13.4671	11.834
13.4322	13.7689
13.3975	15.6016
13.363	16.9701
13.3286	18.1438
13.2944	19.2844
13.2604	20.3008
13.2266	21.0934
13.193	21.4684
13.1595	21.5664
13.1262	21.6016
13.093	21.2483
13.06	20.6845
13.0272	20.2523
12.9946	19.4156
12.9621	18.3195
12.9298	17.1725
12.8976	16.0842
12.8656	15.398
12.8337	15.152
12.8021	15.3801
12.7705	16.1779
12.7391	16.9028
12.7079	17.0954
12.6769	17.0184
12.6459	16.6508
12.6152	16.0355
12.5845	15.3635
12.5541	14.6563
12.5238	13.9656
12.4936	13.9049
12.4635	14.6253
12.4337	15.9522
12.4039	17.8439
12.3743	20.0809
12.3448	22.2146
12.3155	24.0077
12.2863	25.5768
12.2573	26.7953
12.2284	27.5838
12.1996	28.3944
12.171	29.0336
12.1425	29.5325
12.1141	29.9597
12.0859	30.2289
12.0578	30.4272
12.0298	30.7689
12.0019	31.0832
11.9742	31.3723
11.9466	31.4678
11.9192	31.4713
11.8918	31.3554
11.8646	31.1622
11.8375	30.7058
11.8106	29.5093
11.7837	26.737
11.757	21.8016
11.7304	15.6347
11.7039	17.1889
11.6776	23.7752
11.6513	26.024
11.6252	25.1902
11.5992	23.2739
11.5733	20.8483
11.5475	17.7744
11.5219	14.6007
11.4963	11.6475
11.4709	9.38462
11.4455	7.80604
11.4203	7.07064
11.3952	7.0249
11.3702	7.36981
11.3454	7.73563
11.3206	8.3745
11.2959	9.12209
11.2714	10.2949
11.2469	12.1952
11.2226	14.967
11.1983	18.6635
11.1742	23.1733
11.1502	26.8415
11.1263	28.4576
11.1024	28.2335
11.0787	27.4337
11.0551	26.632
11.0316	26.0288
11.0081	25.4938
10.9848	25.0248
10.9616	24.7186
10.9385	24.7215
10.9154	24.7687
10.8925	24.959
10.8697	25.227
10.8469	25.4537
10.8243	25.5489
10.8017	25.7386
10.7793	26.0403
10.7569	26.2176
10.7346	26.2541
10.7125	26.3237
10.6904	26.2021
10.6684	26.1975
10.6465	26.2641
10.6247	26.3519
10.6029	26.3538
10.5813	26.4381
10.5597	26.5981
10.5383	26.6004
10.5169	26.5937
10.4956	26.655
10.4744	26.6299
10.4533	26.5903
10.4323	26.309
10.4113	25.9511
10.3904	25.6502
10.3697	25.1712
10.349	24.5966
10.3284	24.0218
10.3078	23.4737
10.2874	22.8976
10.267	22.4095
10.2467	21.909
10.2265	21.2011
10.2064	20.6057
10.1863	20.2258
10.1663	19.6929
10.1464	19.1393
10.1266	18.7246
10.1069	18.2902
10.0872	17.7834
10.0676	17.315
10.0481	16.8897
10.0287	16.5594
10.0093	16.3555
9.99005	16.1894
9.97084	15.8468
9.95169	15.3109
9.93263	14.9612
9.91364	14.7603
9.89472	14.5321
9.87587	14.4066
9.8571	14.2948
9.83839	14.1175
9.81976	14.0564
9.80119	13.8921
9.78271	13.7048
9.76428	13.5278
9.74592	13.2433
9.72764	12.9084
9.70943	12.6404
9.69128	12.4031
9.6732	12.1854
9.65518	12.0393
9.63724	11.9722
9.61935	11.8488
9.60155	11.7499
9.5838	11.7264
9.56611	11.9262
9.5485	11.9459
9.53094	11.9748
9.51345	12.0673
9.49604	12.129
9.47867	12.2833
9.46137	12.4629
9.44414	12.4342
9.42697	12.5643
9.40986	12.941
9.39281	13.39
9.37583	13.9102
9.35891	14.4256
9.34204	14.84
9.32524	15.1296
9.3085	15.2802
9.29182	15.4941
9.27519	15.7354
9.25863	15.8307
9.24213	15.6839
9.22568	15.6015
9.2093	15.4874
9.19297	15.2213
9.17669	14.8858
9.16048	14.6267
9.14433	14.5851
9.12823	14.3124
9.11218	13.6502
9.0962	13.3518
9.08027	13.6568
9.06439	13.9948
9.04858	14.1007
9.03281	14.1462
9.0171	14.2159
9.00145	14.3287
8.98585	14.4018
8.9703	14.3773
8.9548	14.3706
8.93937	14.5279
8.92398	14.7104
8.90865	14.7359
8.89337	14.7811
8.87814	14.8308
8.86296	15.0121
8.84784	15.2987
8.83277	15.5765
8.81774	15.8575
8.80277	16.0489
8.78786	16.2691
8.77298	16.3675
8.75816	16.3721
8.7434	16.5308
8.72868	16.7446
8.714	17.0736
8.69938	17.4831
8.68481	17.8041
8.67029	18.0236
8.65581	18.1853
8.64139	17.9542
8.62701	17.5411
8.61268	17.2917
8.5984	17.3298
8.58416	17.5487
8.56997	17.8181
8.55583	18.1588
8.54174	18.5187
8.52769	18.8127
8.51368	19.0519
8.49973	19.0859
8.48582	18.9521
8.47195	18.9166
8.45813	18.8117
8.44436	18.7916
8.43062	18.9804
8.41693	19.1208
8.4033	19.2523
8.3897	19.4702
8.37614	19.8396
8.36264	20.3316
8.34917	21.0867
8.33574	22.0825
8.32236	22.98
8.30903	23.7359
8.29573	24.2791
8.28248	24.5563
8.26927	24.7854
8.2561	25.0746
8.24298	25.2014
8.2299	25.2125
8.21685	25.0596
8.20385	24.7755
8.19089	24.2007
8.17797	23.219
8.16509	22.4147
8.15225	21.6327
8.13946	20.9938
8.1267	20.714
8.11398	20.6633
8.10131	20.9355
8.08867	21.4439
8.07606	21.7991
8.0635	21.9693
8.05099	22.1549
8.0385	22.3385
8.02606	22.5896
8.01366	22.7131
8.00129	22.8279
7.98896	22.9573
7.97667	23.128
7.96442	23.2826
7.9522	23.3286
7.94002	23.3614
7.92788	23.3268
7.91578	23.3089
7.90371	23.378
7.89168	23.4768
7.87969	23.6381
7.86773	23.8019
7.85581	23.8085
7.84392	23.6896
7.83207	23.4458
7.82026	23.1093
7.80849	22.6919
7.79674	22.2246
7.78503	21.7125
7.77337	21.2209
7.76173	20.8108
7.75012	20.4353
7.73856	20.1152
7.72703	19.8341
7.71553	19.656
7.70406	19.4352
7.69263	19.1714
7.68123	19.0824
7.66987	19.0954
7.65855	19.2169
7.64725	19.4195
7.63598	19.5603
7.62475	19.6034
7.61356	19.5934
7.60239	19.5331
7.59126	19.3556
7.58017	19.1782
7.5691	19.0193
7.55806	18.7195
7.54707	18.2682
7.5361	17.8321
7.52516	17.3632
7.51425	16.8034
7.50338	16.3247
7.49253	15.9603
7.48172	15.615
7.47094	15.467
7.46019	15.4434
7.44947	15.2943
7.43879	15.0791
7.42813	14.8674
7.4175	14.7325
7.4069	14.6489
7.39634	14.4775
7.3858	14.1581
7.37529	13.7702
7.36482	13.4185
7.35437	13.0218
7.34396	12.6227
7.33357	12.1834
7.32321	11.7695
7.31288	11.4492
7.30258	11.1081
7.29231	10.7317
7.28207	10.4806
7.27185	10.2186
7.26167	9.89694
7.25152	9.52309
7.24139	9.15738
7.23129	8.89519
7.22122	8.79037
7.21117	8.70384
7.20116	8.48547
7.19117	8.31672
7.18121	8.24971
7.17128	8.1113
7.16137	7.86847
7.1515	7.67652
7.14164	7.5904
7.13182	7.49271
7.12203	7.55389
7.11225	7.63141
7.10251	7.57172
7.0928	7.54165
7.08311	7.76158
7.07344	8.12648
7.06381	8.52875
7.0542	9.17242
7.04461	9.98293
7.03506	10.4937
7.02552	10.8293
7.01601	10.9914
7.00653	10.9324
6.99708	10.8098
6.98765	10.7781
6.97824	10.7588
6.96886	10.7886
6.95951	10.817
6.95018	10.6064
6.94087	10.4262
6.9316	10.3498
6.92234	10.3389
6.91311	10.3416
6.90391	10.3613
6.89473	10.3534
6.88557	10.3971
6.87644	10.4475
6.86733	10.6449
6.85824	10.7256
6.84918	10.5707
6.84015	10.5796
6.83114	10.6946
6.82215	10.7361
6.81319	10.6549
6.80424	10.7259
6.79532	10.9528
6.78643	11.0367
6.77756	10.9891
6.76871	10.94
6.75989	10.9888
6.75109	11.1487
6.74231	11.1502
6.73355	11.2375
6.72482	11.4312
6.71611	11.608
6.70742	11.7136
6.69875	11.7902
6.69011	12.0085
6.68149	12.3095
6.67289	12.3895
6.66431	12.4197
6.65576	12.5623
6.64722	13.0239
6.63871	13.7282
6.63022	13.9263
6.62175	13.8368
6.61331	14.0198
6.60488	14.2231
6.59648	14.4973
6.5881	14.8107
6.57974	15.1943
6.5714	15.6227
6.56308	15.7025
6.55478	15.8584
6.54651	16.0915
6.53825	16.2539
6.53001	16.5526
6.5218	17.0249
6.51361	17.3275
6.50544	17.8259
6.49729	18.659
6.48915	19.078
6.48104	19.1499
6.47295	19.3062
6.46488	19.5396
6.45683	19.858
6.4488	20.2185
6.44079	20.5226
6.4328	20.9447
6.42482	21.4186
6.41687	22.2089
6.40894	22.3663
6.40103	22.0302
6.39314	22.192
6.38526	22.5249
6.37741	22.97
6.36957	23.4042
6.36176	23.1929
6.35396	22.8705
6.34618	22.2699
6.33843	20.746
6.33069	19.1279
6.32297	17.6678
6.31527	16.2032
6.30758	14.8458
6.29992	13.5788
6.29227	12.389
6.28465	11.199
6.27704	10.1385
6.26945	9.26949
6.26188	8.59596
6.25432	8.14249
6.24679	7.67638
6.23927	7.29541
6.23177	6.93343
6.22429	6.6093
6.21683	6.50523
6.20938	6.44991
6.20195	6.39254
6.19454	6.3376
6.18715	6.37903
6.17978	6.36573
6.17242	6.29582
6.16508	6.31305
6.15776	6.25603
6.15045	6.17108
6.14317	6.15405
6.1359	6.0119
6.12864	5.85269
6.12141	5.7865
6.11419	5.66108
6.10699	5.39874
6.0998	5.24732
6.09263	5.15822
6.08549	5.15924
6.07835	5.32908
6.07123	5.52323
6.06413	5.57357
6.05705	5.66419
6.04998	6.04658
6.04293	6.10763
6.0359	5.97601
6.02888	5.95015
6.02187	6.0437
6.01489	6.24875
6.00792	6.3141
6.00096	6.41249
5.99403	6.75496
5.98711	7.08316
5.9802	7.21934
5.97331	7.38748
5.96644	7.49514
5.95958	7.47317
5.95274	7.5838
5.94591	7.79483
5.9391	8.1302
5.9323	8.37379
5.92552	8.50291
5.91876	8.76202
5.91201	9.06624
5.90528	9.36505
5.89856	9.64046
5.89186	9.79654
5.88517	10.163
5.8785	10.515
5.87184	10.4765
5.8652	10.6073
5.85857	10.8393
5.85196	11.1102
5.84536	11.302
5.83878	11.5641
5.83221	11.8631
5.82566	12.2154
5.81912	12.3773
5.81259	12.2893
5.80608	12.2877
5.79959	12.424
5.79311	12.571
5.78665	12.8382
5.78019	13.1135
5.77376	13.4268
5.76734	13.8067
5.76093	13.6703
5.75453	13.6123
5.74815	13.8383
5.74179	13.9574
5.73543	14.1487
5.7291	14.3961
5.72277	14.7323
5.71646	15.0868
5.71017	15.3787
5.70389	15.4263
5.69762	15.4988
5.69136	15.6404
5.68513	15.7652
5.6789	15.8821
5.67268	15.8347
5.66648	15.6846
5.6603	15.624
5.65413	15.5449
5.64797	15.4354
5.64182	15.3187
5.63569	14.9594
5.62957	14.5805
5.62347	14.3003
5.61737	14.0472
5.61129	13.7287
5.60522	13.4459
5.59917	13.0813
5.59313	12.6409
5.5871	12.2469
5.58109	11.8429
5.57509	11.1688
5.5691	10.4316
5.56312	9.75916
5.55716	9.14523
5.55121	8.54584
5.54528	7.8592
5.53935	7.14033
5.53344	6.4272
5.52754	5.79429
5.52166	5.37898
5.51578	5.03304
5.50992	4.82025
5.50407	4.72865
5.49823	4.65105
5.49241	4.74526
5.4866	4.93997
5.4808	5.26851
5.47501	5.97057
5.46923	7.13758
5.46347	8.91102
5.45772	11.0806
5.45198	13.418
5.44625	15.8143
5.44054	18.1586
5.43484	20.3202
5.42914	22.344
5.42347	24.2521
5.4178	25.8051
5.41214	27.2349
5.4065	28.4834
5.40087	29.446
5.39525	30.2981
5.38964	31.0476
5.38404	31.6187
5.37846	32.0416
5.37288	32.3826
5.36732	32.7117
5.36177	33.1658
5.35623	33.7564
5.35071	34.2944
5.34519	34.6349
5.33968	34.9962
5.33419	35.4734
5.32871	35.8821
5.32324	36.2175
5.31778	36.5894
5.31233	36.9945
5.30689	37.4165
5.30147	37.8819
5.29605	38.4147
5.29065	38.9965
5.28525	39.5909
5.27987	40.2814
5.2745	41.0396
5.26914	41.8442
5.26379	42.641
5.25845	43.4861
5.25312	44.3843
5.24781	45.2696
5.2425	46.1707
5.23721	47.1151
5.23192	47.957
5.22665	48.7772
5.22138	49.5359
5.21613	50.3313
5.21089	50.9097
5.20566	51.3378
5.20044	51.7978
5.19522	52.1376
5.19002	52.4627
5.18483	52.8277
5.17965	53.1276
5.17448	53.3858
5.16933	53.6504
5.16418	53.9539
5.15904	54.2317
5.15391	54.5282
5.14879	54.8189
5.14368	54.9799
5.13859	55.1084
5.1335	55.2781
5.12842	55.3927
5.12335	55.5762
5.1183	55.7529
5.11325	55.9056
5.10821	55.9868
5.10318	56.0237
5.09817	55.9895
5.09316	55.8448
5.08816	55.5913
5.08317	55.1544
5.07819	54.4014
5.07322	53.2849
5.06826	52.0736
5.06331	51.4145
5.05837	51.8393
5.05344	53.0124
5.04852	54.2052
5.04361	55.1796
5.03871	55.9669
5.03382	56.5548
5.02894	56.9152
5.02406	57.1949
5.0192	57.3782
5.01435	57.5264
5.0095	57.7031
5.00467	57.9431
4.99984	58.1533
4.99502	58.3674
4.99021	58.6038
4.98542	58.9063
4.98063	59.2498
4.97585	59.6407
4.97108	60.009
4.96632	60.4905
4.96156	60.9594
4.95682	61.3355
4.95209	61.6605
4.94736	61.9082
4.94264	62.1235
4.93794	62.3426
4.93324	62.5126
4.92855	62.777
4.92387	63.0096
4.9192	63.2853
4.91453	63.6684
4.90988	64.0817
4.90524	64.509
4.9006	64.962
4.89597	65.3592
4.89135	65.7032
4.88674	65.9913
4.88214	66.178
4.87755	66.3839
4.87296	66.6021
4.86839	66.7604
4.86382	66.897
4.85926	67.01
4.85471	67.162
4.85017	67.2578
4.84564	67.3181
4.84111	67.3166
4.8366	67.3358
4.83209	67.3706
4.82759	67.4287
4.8231	67.4514
4.81862	67.4564
4.81415	67.4504
4.80968	67.5326
4.80522	67.492
4.80077	67.4647
4.79633	67.5174
4.7919	67.5475
4.78747	67.5124
4.78306	67.4924
4.77865	67.5052
4.77425	67.5455
4.76986	67.5619
4.76547	67.5075
4.7611	67.3877
4.75673	67.3207
4.75237	67.3088
4.74802	67.2615
4.74367	67.1629
4.73934	67.0664
4.73501	66.9083
4.73069	66.794
4.72638	66.5595
4.72207	66.2451
4.71777	65.9262
4.71348	65.5905
4.7092	65.1893
4.70493	64.8394
4.70066	64.3957
4.69641	63.8274
4.69216	63.2047
4.68791	62.5125
4.68368	61.6411
4.67945	60.6333
4.67523	59.4251
4.67102	58.1094
4.66682	56.727
4.66262	55.5123
4.65843	54.4177
4.65425	53.449
4.65007	52.7276
4.64591	52.2513
4.64175	51.944
4.6376	51.6765
4.63345	51.4756
4.62932	51.4003
4.62519	51.3341
4.62106	51.2784
4.61695	51.2712
4.61284	51.3275
4.60874	51.5624
4.60465	51.9439
4.60056	52.4319
4.59648	53.043
4.59241	53.7534
4.58835	54.5213
4.58429	55.3329
4.58024	56.0856
4.5762	56.7631
4.57216	57.3571
4.56814	57.907
4.56411	58.4247
4.5601	58.9086
4.55609	59.4041
4.55209	59.8579
4.5481	60.2495
4.54411	60.5827
4.54013	60.9315
4.53616	61.1717
4.5322	61.3744
4.52824	61.6353
4.52429	61.9018
4.52034	62.1503
4.51641	62.5068
4.51247	62.9373
4.50855	63.4601
4.50463	64.1276
4.50072	64.7559
4.49682	65.2087
4.49292	65.5095
4.48903	65.7255
4.48515	65.867
4.48127	65.7983
4.4774	65.5583
4.47354	65.3031
4.46968	65.0083
4.46584	64.602
4.46199	64.1396
4.45815	63.5939
4.45432	63.1082
4.4505	62.6853
4.44668	62.372
4.44287	62.1449
4.43907	62.0234
4.43527	62.0524
4.43148	62.1989
4.4277	62.4443
4.42392	62.8347
4.42015	63.2685
4.41638	63.6883
4.41262	64.1215
4.40887	64.6348
4.40513	65.1078
4.40139	65.5487
4.39765	65.9395
4.39393	66.3348
4.39021	66.7781
4.38649	67.1689
4.38278	67.4428
4.37908	67.7692
4.37539	68.1299
4.3717	68.4065
4.36801	68.6306
4.36434	68.9222
4.36067	69.0985
4.357	69.2072
4.35335	69.1611
4.34969	68.8983
4.34605	68.3377
4.34241	67.5999
4.33877	67.011
4.33514	66.5214
4.33152	66.1081
4.32791	65.8032
4.3243	65.5787
4.32069	65.3719
4.3171	65.0649
4.31351	64.834
4.30992	64.6603
4.30634	64.5044
4.30277	64.3335
4.2992	64.1713
4.29564	64.0259
4.29208	63.8044
4.28853	63.4754
4.28499	63.024
4.28145	62.6306
4.27792	62.4886
4.27439	62.512
4.27087	62.5473
4.26735	62.6602
4.26384	62.9329
4.26034	63.2454
4.25684	63.5907
4.25335	64.0049
4.24986	64.4769
4.24638	64.9096
4.24291	65.1902
4.23944	65.449
4.23598	65.7467
4.23252	65.9949
4.22906	66.1911
4.22562	66.3101
4.22218	66.3255
4.21874	66.3299
4.21531	66.33
4.21189	66.4262
4.20847	66.6333
4.20506	66.8168
4.20165	67.0416
4.19825	67.2385
4.19485	67.3033
4.19146	67.2427
4.18807	67.1615
4.18469	67.0663
4.18132	66.9344
4.17795	66.7943
4.17458	66.6412
4.17123	66.4883
4.16787	66.3206
4.16453	66.0487
4.16118	65.7438
4.15785	65.4468
4.15451	65.1435
4.15119	64.8902
4.14787	64.7483
4.14455	64.7458
4.14124	64.7663
4.13794	64.7083
4.13464	64.6422
4.13134	64.6369
4.12805	64.6861
4.12477	64.558
4.12149	64.3453
4.11822	64.2352
4.11495	64.1492
4.11168	63.959
4.10843	63.7407
4.10517	63.5536
4.10192	63.3555
4.09868	63.1063
4.09545	62.8823
4.09221	62.5484
4.08899	62.1865
4.08576	61.7851
4.08255	61.3256
4.07933	60.8469
4.07613	60.3762
4.07292	59.8069
4.06973	59.2122
4.06654	58.5766
4.06335	57.9214
4.06017	57.2427
4.05699	56.5078
4.05382	55.7711
4.05065	54.9955
4.04749	54.1276
4.04433	53.1315
4.04118	52.1241
4.03803	51.0287
4.03489	49.8125
4.03175	48.5378
4.02862	47.2524
4.02549	45.8257
4.02237	44.3112
4.01925	42.7387
4.01614	41.0721
4.01303	39.2018
4.00993	37.203
4.00683	35.1782
4.00373	33.0931
4.00064	31.0832
3.99756	29.2006
3.99448	27.3864
3.9914	25.5027
3.98833	23.6195
3.98527	21.781
3.98221	19.697
3.97915	17.464
3.9761	15.2711
3.97305	13.3911
3.97001	12.0319
3.96697	11.227
3.96394	10.7711
3.96091	10.6232
3.95789	10.6625
3.95487	10.688
3.95186	10.7639
3.94885	10.8039
3.94584	10.8712
3.94284	11.1365
3.93984	11.4596
3.93685	11.7193
3.93386	11.9885
3.93088	12.1627
3.9279	12.3251
3.92493	12.4949
3.92196	12.7073
3.919	13.0328
3.91604	13.4821
3.91308	14.1104
3.91013	14.9384
3.90718	15.901
3.90424	17.0449
3.9013	18.2038
3.89837	19.3714
3.89544	20.316
3.89252	20.7229
3.8896	20.8675
3.88668	20.9601
3.88377	21.0563
3.88086	21.2906
3.87796	21.5619
3.87506	21.9141
3.87217	22.3529
3.86928	22.8442
3.86639	23.4672
3.86351	24.1424
3.86064	25.0065
3.85776	26.3046
3.8549	28.1086
3.85203	30.2773
3.84917	32.4313
3.84631	34.2953
3.84346	35.5937
3.84062	36.2157
3.83777	36.178
3.83494	35.6964
3.8321	34.8829
3.82927	33.8988
3.82644	32.8303
3.82362	31.6434
3.82081	30.256
3.81799	28.7848
3.81518	27.2411
3.81238	25.7235
3.80958	24.4962
3.80678	23.7918
3.80399	23.6094
3.8012	23.9763
3.79841	24.9696
3.79563	26.1422
3.79286	27.1961
3.79008	28.3699
3.78731	29.8578
3.78455	31.409
3.78179	32.8805
3.77903	34.3346
3.77628	35.8712
3.77353	37.3842
3.77079	38.8831
3.76805	40.3524
3.76531	41.8225
3.76258	43.4881
3.75985	45.179
3.75713	46.9711
3.7544	48.8819
3.75169	50.8194
3.74898	52.6955
3.74627	54.5692
3.74356	56.3574
3.74086	57.8188
3.73816	58.9809
3.73547	59.9409
3.73278	60.6884
3.7301	61.3374
3.72741	61.8558
3.72474	62.3072
3.72206	62.6862
3.71939	62.9827
3.71673	63.3071
3.71406	63.6061
3.71141	63.7914
3.70875	64.0315
3.7061	64.3343
3.70345	64.6699
3.70081	64.8907
3.69817	65.109
3.69553	65.4477
3.6929	65.7547
3.69027	66.0158
3.68765	66.1682
3.68503	66.2929
3.68241	66.4723
3.6798	66.6734
3.67719	66.8318
3.67458	66.8971
3.67198	66.9293
3.66938	66.9624
3.66678	66.9574
3.66419	67.0524
3.66161	67.1767
3.65902	67.2146
3.65644	67.2417
3.65387	67.2657
3.65129	67.2738
3.64872	67.1586
3.64616	67.0969
3.64359	67.1871
3.64103	67.2614
3.63848	67.2273
3.63593	67.2088
3.63338	67.1424
3.63084	67.0673
3.6283	67.0232
3.62576	66.9431
3.62322	66.8976
3.62069	66.8719
3.61817	66.7602
3.61564	66.6926
3.61312	66.6324
3.61061	66.5354
3.6081	66.4827
3.60559	66.4362
3.60308	66.2944
3.60058	66.188
3.59808	66.1117
3.59558	66.0081
3.59309	65.8887
3.59061	65.785
3.58812	65.7066
3.58564	65.5736
3.58316	65.3515
3.58069	65.1683
3.57822	65.0034
3.57575	64.8133
3.57328	64.5907
3.57082	64.3452
3.56836	64.0061
3.56591	63.6293
3.56346	63.1309
3.56101	62.5428
3.55857	61.8353
3.55613	60.9327
3.55369	59.8219
3.55126	58.7867
3.54883	58.0902
3.5464	57.918
3.54397	58.265
3.54155	58.6169
3.53914	58.7062
3.53672	58.6077
3.53431	58.2825
3.5319	57.7525
3.5295	57.0278
3.5271	56.1938
3.5247	55.1985
3.52231	54.1132
3.51991	52.8769
3.51753	51.4872
3.51514	49.9896
3.51276	48.3024
3.51038	46.4862
3.50801	44.5719
3.50563	42.5633
3.50327	40.4733
3.5009	38.3197
3.49854	36.1066
3.49618	33.949
3.49382	31.8507
3.49147	30.0082
3.48912	28.4792
3.48677	27.2841
3.48443	26.303
3.48209	25.3648
3.47975	24.5536
3.47742	23.8182
3.47509	23.1655
3.47276	22.523
3.47044	21.987
3.46812	21.5071
3.4658	21.0193
3.46348	20.5778
3.46117	20.0615
3.45886	19.6639
3.45656	19.4931
3.45425	19.2656
3.45195	19.0175
3.44966	18.8054
3.44736	18.8916
3.44507	19.3063
3.44279	19.8618
3.4405	20.6114
3.43822	21.5945
3.43594	22.8137
3.43367	24.1418
3.43139	25.2621
3.42912	26.1897
3.42686	26.9697
3.42459	27.5153
3.42233	27.8656
3.42007	28.1589
3.41782	28.4746
3.41557	28.7585
3.41332	28.9686
3.41108	29.2193
3.40883	29.4787
3.40659	29.6228
3.40435	29.7541
3.40212	29.9977
3.39989	30.3166
3.39766	30.598
3.39544	30.9115
3.39322	31.2344
3.391	31.4023
3.38878	31.4574
3.38657	31.7074
3.38436	32.2313
3.38215	32.8674
3.37994	33.602
3.37774	34.2094
3.37554	34.4404
3.37335	34.4122
3.37115	34.1542
3.36896	33.7461
3.36678	33.2046
3.36459	32.6255
3.36241	32.0171
3.36023	31.3812
3.35805	30.7717
3.35588	30.2287
3.35371	29.7146
3.35154	29.3102
3.34938	28.8436
3.34721	28.3048
3.34505	27.9206
3.3429	27.6156
3.34074	27.3903
3.33859	27.2838
3.33644	27.303
3.3343	27.4375
3.33215	27.4673
3.33001	27.4314
3.32788	27.4565
3.32574	27.3916
3.32361	27.093
3.32148	26.6815
3.31936	26.1589
3.31723	25.5332
3.31511	24.8386
3.31299	24.1491
3.31088	23.7844
3.30876	23.7116
3.30665	23.8461
3.30455	24.347
3.30244	25.4603
3.30034	27.4584
3.29824	30.1624
3.29614	33.5685
3.29405	37.1884
3.29196	40.2019
3.28987	42.395
3.28778	43.9765
3.2857	45.2187
3.28362	46.0945
3.28154	46.7392
3.27946	47.2873
3.27739	47.6629
3.27532	47.9357
3.27325	48.2534
3.27119	48.6136
3.26913	48.8898
3.26707	49.0913
3.26501	49.2633
3.26295	49.4795
3.2609	49.5932
3.25885	49.7128
3.2568	49.8304
3.25476	49.8652
3.25272	49.9478
3.25068	50.0298
3.24864	50.1052
3.24661	50.1689
3.24458	50.1784
3.24255	50.21
3.24052	50.3174
3.2385	50.3643
3.23648	50.3822
3.23446	50.4048
3.23244	50.3466
3.23043	50.3309
3.22841	50.3554
3.2264	50.3505
3.2244	50.3317
3.22239	50.2397
3.22039	50.1535
3.21839	50.1222
3.2164	50.1048
3.2144	50.1448
3.21241	50.1719
3.21042	50.1747
3.20844	50.1305
3.20645	50.0496
3.20447	49.9793
3.20249	49.918
3.20051	49.8743
3.19854	49.7821
3.19657	49.6387
3.1946	49.6332
3.19263	49.5966
3.19067	49.5075
3.1887	49.4645
3.18674	49.3758
3.18479	49.2106
3.18283	49.1126
3.18088	49.0905
3.17893	49.0725
3.17698	48.981
3.17504	48.9437
3.17309	48.869
3.17115	48.8093
3.16921	48.8075
3.16728	48.6832
3.16534	48.5194
3.16341	48.4459
3.16148	48.3635
3.15956	48.2761
3.15763	48.2323
3.15571	48.1844
3.15379	48.0399
3.15187	47.7444
3.14996	47.5576
3.14805	47.5059
3.14614	47.4255
3.14423	47.2453
3.14232	47.0987
3.14042	47.0315
3.13852	46.894
3.13662	46.8373
3.13472	46.789
3.13283	46.6542
3.13094	46.5795
3.12905	46.5907
3.12716	46.5665
3.12528	46.5258
3.12339	46.417
3.12151	46.2708
3.11964	46.1359
3.11776	46.0591
3.11589	45.9884
3.11401	45.9363
3.11214	45.8829
3.11028	45.8167
3.10841	45.7927
3.10655	45.7655
3.10469	45.6375
3.10283	45.5216
3.10098	45.513
3.09912	45.5014
3.09727	45.4155
3.09542	45.3362
3.09358	45.1467
3.09173	45.0089
3.08989	44.9058
3.08805	44.8269
3.08621	44.8556
3.08437	44.7782
3.08254	44.671
3.08071	44.6233
3.07888	44.6405
3.07705	44.6447
3.07523	44.5781
3.0734	44.6301
3.07158	44.7502
3.06977	44.7054
3.06795	44.6264
3.06613	44.6269
3.06432	44.7221
3.06251	44.8564
3.0607	44.8433
3.0589	44.5932
3.0571	44.5108
3.05529	44.5597
3.05349	44.5565
3.0517	44.5536
3.0499	44.4474
3.04811	44.3636
3.04632	44.3103
3.04453	44.1654
3.04274	44.1639
3.04096	44.1885
3.03918	44.2013
3.0374	44.2391
3.03562	44.2162
3.03384	44.0522
3.03207	44.0548
3.03029	44.0896
3.02852	44.0094
3.02676	43.9561
3.02499	43.874
3.02323	43.8578
3.02146	43.8988
3.0197	43.8887
3.01795	43.8192
3.01619	43.7429
3.01444	43.7334
3.01269	43.6753
3.01094	43.5533
3.00919	43.4629
3.00744	43.4534
3.0057	43.323
3.00396	43.3864
3.00222	43.4352
3.00048	43.2272
2.99875	43.0897
2.99701	43.1562
2.99528	43.1054
2.99355	42.8919
2.99183	42.9481
2.9901	42.9902
2.98838	42.8325
2.98666	42.8072
2.98494	42.7264
2.98322	42.7064
2.9815	42.793
2.97979	42.7042
2.97808	42.4913
2.97637	42.3532
2.97466	42.3561
2.97295	42.3728
2.97125	42.3266
2.96955	42.2888
2.96785	42.1323
2.96615	41.9142
2.96446	41.8915
2.96276	41.9151
2.96107	41.8189
2.95938	41.7782
2.95769	41.7757
2.95601	41.6861
2.95432	41.6139
2.95264	41.5876
2.95096	41.5572
2.94928	41.5174
2.9476	41.649
2.94593	41.6837
2.94425	41.5946
2.94258	41.6287
2.94092	41.6191
2.93925	41.4841
2.93758	41.4577
2.93592	41.5778
2.93426	41.6466
2.9326	41.709
2.93094	41.6708
2.92928	41.6382
2.92763	41.54
2.92598	41.554
2.92433	41.591
2.92268	41.5359
2.92103	41.5505
2.91939	41.6195
2.91775	41.7494
2.9161	41.9393
2.91447	42.0326
2.91283	41.9887
2.91119	41.9366
2.90956	41.8679
2.90793	41.9625
2.9063	42.1419
2.90467	42.1038
2.90304	41.9925
2.90142	42.0924
2.89979	42.2278
2.89817	42.2835
2.89656	42.2486
2.89494	42.2995
2.89332	42.496
2.89171	42.7044
2.8901	42.8873
2.88849	42.9171
2.88688	42.9903
2.88527	43.0692
2.88367	43.049
2.88206	43.1513
2.88046	43.2839
2.87886	43.3091
2.87727	43.3739
2.87567	43.5458
2.87408	43.8208
2.87248	44.0243
2.87089	44.1322
2.8693	44.2945
2.86772	44.4091
2.86613	44.5234
2.86455	44.6556
2.86297	44.7836
2.86139	44.951
2.85981	45.1463
2.85823	45.3051
2.85666	45.3809
2.85508	45.4615
2.85351	45.5501
2.85194	45.6552
2.85038	45.8959
2.84881	46.1184
2.84724	46.1628
2.84568	46.198
2.84412	46.2463
2.84256	46.4733
2.841	46.6394
2.83945	46.7227
2.83789	46.8372
2.83634	47.0733
2.83479	47.3079
2.83324	47.3581
2.83169	47.5106
2.83015	47.7874
2.82861	47.9306
2.82706	47.9672
2.82552	48.0281
2.82398	48.1729
2.82245	48.275
2.82091	48.4581
2.81938	48.6165
2.81784	48.6051
2.81631	48.6947
2.81479	48.9274
2.81326	49.0186
2.81173	49.0096
2.81021	49.0554
2.80869	49.1195
2.80716	49.0992
2.80565	49.2536
2.80413	49.6255
2.80261	49.6745
2.8011	49.3492
2.79959	49.244
2.79808	49.2752
2.79657	49.2386
2.79506	49.1486
2.79355	49.1557
2.79205	49.1552
2.79055	49.1331
2.78904	49.269
2.78754	49.3475
2.78605	49.1569
2.78455	48.8104
2.78306	48.6639
2.78156	48.548
2.78007	48.3599
2.77858	48.2917
2.77709	48.2212
2.77561	48.036
2.77412	47.8079
2.77264	47.6835
2.77116	47.6361
2.76968	47.3066
2.7682	46.8537
2.76672	46.4477
2.76524	45.6295
2.76377	44.901
2.7623	44.5426
2.76083	44.9184
2.75936	45.8176
2.75789	46.9258
2.75642	48.2257
2.75496	49.0011
2.7535	48.9295
2.75203	49.2809
2.75057	49.7998
2.74912	50.0784
2.74766	50.3135
2.7462	50.7413
2.74475	51.0415
2.7433	51.3963
2.74185	51.9764
2.7404	52.5516
2.73895	52.5628
2.7375	52.2998
2.73606	52.938
2.73462	53.9659
2.73318	54.6107
2.73174	55.3167
2.7303	55.8548
2.72886	56.2211
2.72742	56.6824
2.72599	57.5152
2.72456	58.504
2.72313	58.8709
2.7217	59.8138
2.72027	60.8925
2.71884	60.749
2.71742	60.8112
2.71599	60.7894
2.71457	60.7943
2.71315	60.775
2.71173	61.0915
2.71032	60.8089
2.7089	59.8189
2.70748	58.8786
2.70607	58.4595
2.70466	58.7127
2.70325	59.6038
2.70184	61.1057
2.70043	62.6379
2.69903	63.9707
2.69762	65.462
2.69622	67.1189
2.69482	68.7646
2.69342	69.9625
2.69202	70.5558
2.69062	71.4755
2.68923	72.6113
2.68783	73.5921
2.68644	74.4424
2.68505	75.137
2.68366	75.8018
2.68227	76.2103
2.68089	76.7892
2.6795	77.6884
2.67812	78.2897
2.67673	78.8865
2.67535	78.8437
2.67397	78.6545
2.6726	78.9659
2.67122	80.1613
2.66984	80.5304
2.66847	80.1367
2.6671	80.9578
2.66572	81.2006
2.66435	80.7924
2.66299	80.3432
2.66162	80.4952
2.66025	80.6934
2.65889	80.7474
2.65753	80.5769
2.65616	80.8327
2.65481	80.9448
2.65345	81.2433
2.65209	81.3068
2.65073	81.0547
2.64938	81.1852
2.64803	81.3433
2.64667	81.4642
2.64532	81.553
2.64397	81.4709
2.64263	81.6185
2.64128	81.5869
2.63994	81.5865
2.63859	81.6055
2.63725	81.712
2.63591	81.7888
2.63457	82.0536
2.63323	82.111
2.6319	82.3884
2.63056	82.9957
2.62923	82.5293
2.62789	82.3602
2.62656	82.6989
2.62523	82.405
2.6239	82.2566
2.62258	82.2532
2.62125	82.7848
2.61993	82.9647
2.6186	82.676
2.61728	83.1769
2.61596	82.9104
2.61464	82.3769
2.61332	82.5559
2.61201	82.5218
2.61069	82.6452
2.60938	82.837
2.60807	82.8909
2.60675	83.1496
2.60544	83.4816
2.60414	83.1756
2.60283	82.9173
2.60152	82.804
2.60022	82.6378
2.59891	82.4105
2.59761	82.6368
2.59631	83.6598
2.59501	84.7422
2.59371	83.8064
2.59242	82.7336
2.59112	82.522
2.58983	82.6949
2.58853	82.9272
2.58724	83.0465
2.58595	82.6968
2.58466	83.0034
2.58338	83.1192
2.58209	82.6849
2.5808	82.6241
2.57952	82.4554
2.57824	82.5555
2.57695	82.7746
2.57567	82.6158
2.5744	82.7255
2.57312	82.8272
2.57184	82.3363
2.57057	82.3941
2.56929	82.4156
2.56802	82.0764
2.56675	81.9664
2.56548	82.1969
2.56421	82.4178
2.56294	82.426
2.56168	82.5082
2.56041	82.1815
2.55915	81.7572
2.55789	81.5442
2.55662	81.4692
2.55536	81.3832
2.5541	81.4127
2.55285	81.4905
2.55159	81.2804
2.55034	80.9904
2.54908	80.6555
2.54783	80.4184
2.54658	80.0759
2.54533	79.7959
2.54408	79.5743
2.54283	79.2884
2.54159	78.8211
2.54034	78.3967
2.5391	77.9397
2.53785	77.4462
2.53661	77.1947
2.53537	76.8112
2.53413	76.2962
2.53289	75.9663
2.53166	75.6724
2.53042	75.3977
2.52919	75.0166
2.52795	74.6845
2.52672	74.3858
2.52549	74.1147
2.52426	73.9
2.52303	73.7516
2.52181	73.626
2.52058	73.4469
2.51936	73.2338
2.51813	73.197
2.51691	73.0358
2.51569	72.8809
2.51447	72.8618
2.51325	72.9347
2.51203	73.122
2.51082	73.2006
2.5096	73.2908
2.50839	73.4228
2.50717	73.5617
2.50596	73.7322
2.50475	73.8413
2.50354	73.8886
2.50233	73.9925
2.50113	74.0954
2.49992	74.1627
2.49872	74.3443
2.49751	74.5362
2.49631	74.6596
2.49511	74.8786
2.49391	75.0678
2.49271	75.16
2.49151	75.261
2.49031	75.5078
2.48912	75.7584
2.48792	75.9776
2.48673	76.1039
2.48554	76.2306
2.48435	76.3011
2.48316	76.4072
2.48197	76.651
2.48078	76.8299
2.4796	76.9307
2.47841	76.9751
2.47723	77.0412
2.47604	77.1624
2.47486	77.2281
2.47368	77.3026
2.4725	77.4288
2.47132	77.4435
2.47014	77.3814
2.46897	77.3916
2.46779	77.4097
2.46662	77.4597
2.46545	77.5661
2.46427	77.7012
2.4631	77.6871
2.46193	77.7096
2.46077	77.8066
2.4596	77.8229
2.45843	77.7582
2.45727	77.7889
2.4561	78.0489
2.45494	78.3296
2.45378	78.48
2.45262	78.5185
2.45146	78.5549
2.4503	78.6866
2.44914	78.8338
2.44799	79.0599
2.44683	79.2146
2.44568	79.3276
2.44452	79.4798
2.44337	79.5622
2.44222	79.6557
2.44107	79.9535
2.43992	80.2549
2.43877	80.3073
2.43763	80.482
2.43648	80.7694
2.43534	80.7625
2.43419	80.6136
2.43305	80.7388
2.43191	80.9294
2.43077	80.9642
2.42963	81.1424
2.42849	81.3635
2.42736	81.5287
2.42622	81.6477
2.42509	81.6306
2.42395	81.6997
2.42282	81.8534
2.42169	81.9709
2.42056	82.0607
2.41943	82.1589
2.4183	82.2387
2.41717	82.2765
2.41605	82.4056
2.41492	82.5853
2.4138	82.6449
2.41267	82.6504
2.41155	82.6922
2.41043	82.6975
2.40931	82.6178
2.40819	82.6512
2.40707	82.7955
2.40595	82.9004
2.40484	82.8888
2.40372	82.8417
2.40261	82.8638
2.4015	83.038
2.40039	83.0681
2.39928	83.0526
2.39817	83.0589
2.39706	83.0527
2.39595	83.1272
2.39484	83.1588
2.39374	83.1598
2.39263	83.167
2.39153	83.2351
2.39043	83.2062
2.38932	83.214
2.38822	83.3436
2.38712	83.4522
2.38603	83.436
2.38493	83.2355
2.38383	83.2362
2.38274	83.3475
2.38164	83.282
2.38055	83.3302
2.37946	83.4776
2.37836	83.5548
2.37727	83.6085
2.37618	83.6005
2.3751	83.585
2.37401	83.6704
2.37292	83.7288
2.37184	83.7378
2.37075	83.8098
2.36967	83.8814
2.36859	83.7858
2.3675	83.7676
2.36642	83.7705
2.36534	83.7636
2.36427	83.7554
2.36319	83.7365
2.36211	83.7628
2.36104	83.7456
2.35996	83.6198
2.35889	83.648
2.35781	83.6989
2.35674	83.7227
2.35567	83.6479
2.3546	83.4979
2.35353	83.3159
2.35247	83.1631
2.3514	83.0736
2.35033	83.0378
2.34927	82.9083
2.3482	82.6725
2.34714	82.4921
2.34608	82.3206
2.34502	82.1942
2.34396	82.0487
2.3429	81.7557
2.34184	81.5118
2.34078	81.3023
2.33973	81.1714
2.33867	81.0622
2.33762	80.9004
2.33656	80.6753
2.33551	80.5206
2.33446	80.3203
2.33341	80.0751
2.33236	79.8602
2.33131	79.6341
2.33026	79.4732
2.32922	79.4267
2.32817	79.3301
2.32712	79.1037
2.32608	78.9545
2.32504	79.0289
2.324	79.0692
2.32295	79.0963
2.32191	79.0113
2.32087	78.9019
2.31984	79.0263
2.3188	79.1315
2.31776	79.0793
2.31673	79.1577
2.31569	79.2925
2.31466	79.2396
2.31362	79.2458
2.31259	79.3231
2.31156	79.423
2.31053	79.4922
2.3095	79.4475
2.30847	79.4832
2.30745	79.5744
2.30642	79.6301
2.3054	79.7634
2.30437	79.8631
2.30335	79.8769
2.30232	79.9176
2.3013	80.0428
2.30028	80.1221
2.29926	80.2327
2.29824	80.3738
2.29722	80.3136
2.29621	80.284
2.29519	80.3637
2.29417	80.4459
2.29316	80.4747
2.29215	80.6035
2.29113	80.6454
2.29012	80.5994
2.28911	80.6916
2.2881	80.7722
2.28709	80.8434
2.28608	80.9844
2.28507	80.9332
2.28407	80.9055
2.28306	81.0443
2.28206	81.2701
2.28105	81.2777
2.28005	81.3146
2.27905	81.2639
2.27805	81.1807
2.27705	81.2428
2.27605	81.3633
2.27505	81.3434
2.27405	81.3907
2.27305	81.4066
2.27206	81.4484
2.27106	81.3652
2.27007	81.2887
2.26907	81.3201
2.26808	81.3974
2.26709	81.5934
2.2661	81.7513
2.26511	81.8935
2.26412	81.9614
2.26313	81.9711
2.26214	81.915
2.26116	82.0136
2.26017	82.1782
2.25919	82.2492
2.2582	82.274
2.25722	82.2961
2.25624	82.3824
2.25526	82.4643
2.25428	82.4879
2.2533	82.6464
2.25232	82.7795
2.25134	82.8221
2.25036	82.7911
2.24939	82.897
2.24841	82.9726
2.24744	83.087
2.24646	83.2266
2.24549	83.2465
2.24452	83.2934
2.24355	83.3203
2.24257	83.4345
2.24161	83.4701
2.24064	83.5571
2.23967	83.6627
2.2387	83.7822
2.23774	83.8695
2.23677	83.7942
2.23581	83.599
2.23484	83.623
2.23388	83.7388
2.23292	83.8237
2.23196	83.8845
2.231	83.9229
2.23004	83.8293
2.22908	83.7444
2.22812	83.7636
2.22716	83.8577
2.22621	83.9251
2.22525	83.8944
2.2243	83.8142
2.22334	83.8397
2.22239	83.8132
2.22144	83.8533
2.22049	83.9331
2.21953	84.0045
2.21859	84.0158
2.21764	83.9636
2.21669	83.9628
2.21574	84.1006
2.21479	83.9798
2.21385	83.8712
2.2129	83.8694
2.21196	83.8645
2.21102	83.8504
2.21007	83.7204
2.20913	83.5892
2.20819	83.6132
2.20725	83.6107
2.20631	83.6662
2.20537	83.9075
2.20444	84.0777
2.2035	83.9844
2.20256	84.0087
2.20163	84.1227
2.20069	84.1863
2.19976	84.2264
2.19883	84.2609
2.19789	84.385
2.19696	84.2923
2.19603	84.2304
2.1951	84.3064
2.19417	84.1969
2.19325	84.184
2.19232	84.2731
2.19139	84.2984
2.19047	84.3461
2.18954	84.3213
2.18862	84.4085
2.18769	84.6244
2.18677	84.716
2.18585	84.6464
2.18493	84.4847
2.18401	84.4963
2.18309	84.4779
2.18217	84.4655
2.18125	84.5102
2.18033	84.5433
2.17942	84.6338
2.1785	84.6651
2.17759	84.6419
2.17667	84.6768
2.17576	84.7852
2.17485	84.7124
2.17393	84.6308
2.17302	84.534
2.17211	84.3893
2.1712	84.3543
2.17029	84.491
2.16939	84.5732
2.16848	84.5578
2.16757	84.6271
2.16667	84.7418
2.16576	84.8725
2.16486	84.886
2.16395	84.7683
2.16305	84.5767
2.16215	84.4909
2.16125	84.5058
2.16035	84.5804
2.15945	84.6661
2.15855	84.6771
2.15765	84.5976
2.15675	84.5144
2.15586	84.5739
2.15496	84.593
2.15406	84.5938
2.15317	84.6676
2.15228	84.6848
2.15138	84.6223
2.15049	84.5946
2.1496	84.7486
2.14871	84.7122
2.14782	84.5182
2.14693	84.5056
2.14604	84.5994
2.14515	84.6991
2.14427	84.7438
2.14338	84.6428
2.14249	84.5399
2.14161	84.6109
2.14072	84.7109
2.13984	84.6969
2.13896	84.7178
2.13808	84.6994
2.13719	84.7904
2.13631	84.8893
2.13543	84.8883
2.13455	84.8542
2.13368	84.7566
2.1328	84.7059
2.13192	84.6285
2.13105	84.7517
2.13017	84.8756
2.1293	84.7971
2.12842	84.7463
2.12755	84.7221
2.12668	84.6818
2.1258	84.8204
2.12493	84.9043
2.12406	84.7946
2.12319	84.8019
2.12232	84.9161
2.12145	84.9539
2.12059	84.8902
2.11972	84.847
2.11885	84.8042
2.11799	84.7235
2.11712	84.882
2.11626	84.9764
2.1154	85.0619
2.11453	84.9967
2.11367	84.8841
2.11281	84.9053
2.11195	84.787
2.11109	84.6267
2.11023	84.6413
2.10937	84.8031
2.10851	84.9412
2.10766	85.0791
2.1068	85.1859
2.10594	85.0633
2.10509	84.8443
2.10423	84.7113
2.10338	84.734
2.10253	84.8045
2.10168	84.9516
2.10082	84.9132
2.09997	84.7045
2.09912	84.6905
2.09827	84.806
2.09742	84.9118
2.09658	84.851
2.09573	84.8766
2.09488	84.9893
2.09404	85.0297
2.09319	84.9058
2.09235	84.7754
2.0915	84.9689
2.09066	84.942
2.08982	84.7935
2.08897	84.7171
2.08813	84.8016
2.08729	84.9254
2.08645	85.0808
2.08561	85.1214
2.08477	85.1653
2.08394	84.976
2.0831	84.6675
2.08226	84.5198
2.08143	84.7572
2.08059	84.9982
2.07976	84.8349
2.07892	84.8491
2.07809	85.0998
2.07726	85.2378
2.07643	85.1809
2.07559	85.0149
2.07476	84.8039
2.07393	84.7059
2.0731	84.88
2.07228	85.2396
2.07145	84.9627
2.07062	85.1281
2.06979	85.3328
2.06897	85.0915
2.06814	84.673
2.06732	84.8023
2.06649	85.0212
2.06567	84.7004
2.06485	84.8288
2.06403	85.1522
2.0632	85.0815
2.06238	85.0587
2.06156	84.8682
2.06074	84.6695
2.05993	84.7557
2.05911	84.7278
2.05829	84.4761
2.05747	84.7633
2.05666	84.9342
2.05584	84.952
2.05503	84.9116
2.05421	84.8649
2.0534	84.8979
2.05259	84.9327
2.05177	84.915
2.05096	84.8731
2.05015	84.714
2.04934	84.7748
2.04853	84.8299
2.04772	84.838
2.04691	84.8067
2.04611	84.7367
2.0453	84.826
2.04449	84.7127
2.04369	84.6924
2.04288	84.5754
2.04208	84.7203
2.04127	84.8661
2.04047	84.8494
2.03967	84.8787
2.03886	84.8589
2.03806	84.9112
2.03726	84.9809
2.03646	84.8085
2.03566	84.5693
2.03486	84.5429
2.03407	84.877
2.03327	84.9943
2.03247	84.6279
2.03167	84.5556
2.03088	84.5848
2.03008	84.4772
2.02929	84.6758
2.0285	84.7747
2.0277	84.6605
2.02691	84.5104
2.02612	84.5978
2.02533	84.6379
2.02453	84.6894
2.02374	84.8363
2.02295	84.6712
2.02217	84.4342
2.02138	84.4906
2.02059	84.589
2.0198	84.6247
2.01902	84.5182
2.01823	84.6013
2.01744	84.6893
2.01666	84.7152
2.01588	84.6398
2.01509	84.7004
2.01431	84.6234
2.01353	84.4471
2.01275	84.451
2.01196	84.4335
2.01118	84.4522
2.0104	84.6
2.00963	84.7379
2.00885	84.543
2.00807	84.389
2.00729	84.5069
2.00651	84.6373
2.00574	84.7288
2.00496	84.5153
2.00419	84.3298
2.00341	84.3597
2.00264	84.401
2.00187	84.3728
2.00109	84.331
2.00032	84.2943
