Name: Illite (K,H_3O)(Al,Mg,Fe)_2(Si,Al)_4O_10((OH)_2,H_2O)
Type: Mineral
Class: Silicates
Subclass: Phyllosilicates
Particle Size: 0-45um
Sample No.: PS-11A
Owner: JPL
Wavelength range: IR
Origin: USA, Wisconsin, Marblehead
Collected by JPL
Description: 





Measurement: Hemispherical reflectance
First Column: X
Second Column: Y
X Units:  Wavelength (micrometers)
Y Units:  Reflectance (percent)
First X Value: 15.3853
Last X Value: 2.00032
Number of X Values: 2256
Additional information: ps11aa.txt
 
15.3853	0.896788
15.3397	0.593351
15.2945	0.478861
15.2495	0.765662
15.2048	1.05708
15.1603	1.02178
15.1161	0.89154
15.0722	0.755533
15.0285	0.88851
14.9851	1.09283
14.9419	0.851738
14.8989	0.835232
14.8563	1.03575
14.8138	0.835307
14.7716	0.735056
14.7296	1.04392
14.6879	1.16213
14.6464	1.19245
14.6052	1.22595
14.5641	1.17809
14.5233	1.06539
14.4828	0.87749
14.4424	0.998914
14.4023	0.979829
14.3624	0.941188
14.3227	1.03111
14.2833	1.14335
14.244	1.22655
14.205	1.27319
14.1662	1.30082
14.1276	1.31714
14.0892	1.41105
14.051	1.33958
14.0131	1.38135
13.9753	1.38104
13.9377	1.18302
13.9004	1.29371
13.8632	1.36456
13.8262	1.31229
13.7895	1.43454
13.7529	1.42008
13.7165	1.35572
13.6803	1.56772
13.6443	1.64347
13.6085	1.50783
13.5729	1.46497
13.5374	1.58221
13.5022	1.62853
13.4671	1.66185
13.4322	1.55928
13.3975	1.52817
13.363	1.59819
13.3286	1.58437
13.2944	1.56607
13.2604	1.47347
13.2266	1.59047
13.193	1.62628
13.1595	1.51776
13.1262	1.74547
13.093	2.05254
13.06	1.93994
13.0272	1.82491
12.9946	2.00863
12.9621	2.04774
12.9298	1.98462
12.8976	2.05338
12.8656	2.18237
12.8337	2.27845
12.8021	2.34361
12.7705	2.33194
12.7391	2.38032
12.7079	2.45092
12.6769	2.43729
12.6459	2.52905
12.6152	2.61043
12.5845	2.71278
12.5541	2.64646
12.5238	2.74271
12.4936	2.95713
12.4635	2.93591
12.4337	2.8237
12.4039	2.9572
12.3743	2.9887
12.3448	2.82364
12.3155	2.91634
12.2863	3.13154
12.2573	3.20987
12.2284	3.20379
12.1996	2.9669
12.171	2.76665
12.1425	2.69645
12.1141	2.69782
12.0859	2.58164
12.0578	2.42812
12.0298	2.37576
12.0019	2.32982
11.9742	2.29749
11.9466	2.33871
11.9192	2.31888
11.8918	2.33037
11.8646	2.40604
11.8375	2.58777
11.8106	2.7835
11.7837	2.86908
11.757	2.91511
11.7304	2.99522
11.7039	3.1627
11.6776	3.34477
11.6513	3.54224
11.6252	3.73698
11.5992	3.81488
11.5733	3.8806
11.5475	4.03771
11.5219	4.09803
11.4963	3.97436
11.4709	4.03009
11.4455	4.18366
11.4203	4.16312
11.3952	4.13073
11.3702	4.18371
11.3454	4.10849
11.3206	3.93484
11.2959	3.86222
11.2714	3.93929
11.2469	3.86178
11.2226	3.64037
11.1983	3.57628
11.1742	3.50018
11.1502	3.3885
11.1263	3.19533
11.1024	2.8899
11.0787	2.7478
11.0551	2.63126
11.0316	2.45948
11.0081	2.39563
10.9848	2.31008
10.9616	2.24186
10.9385	2.0286
10.9154	1.93963
10.8925	1.98919
10.8697	2.06827
10.8469	2.08495
10.8243	1.97248
10.8017	1.93718
10.7793	2.09125
10.7569	2.30505
10.7346	2.44496
10.7125	2.4647
10.6904	2.45867
10.6684	2.4771
10.6465	2.51491
10.6247	2.65286
10.6029	2.76519
10.5813	2.74824
10.5597	2.70973
10.5383	2.67119
10.5169	2.57753
10.4956	2.45579
10.4744	2.38299
10.4533	2.41809
10.4323	2.4005
10.4113	2.18383
10.3904	2.10016
10.3697	2.07954
10.349	2.07751
10.3284	2.1472
10.3078	2.13352
10.2874	2.02611
10.267	1.97307
10.2467	1.9974
10.2265	1.97124
10.2064	1.95045
10.1863	1.99358
10.1663	2.07692
10.1464	2.03388
10.1266	1.95921
10.1069	1.96232
10.0872	2.01159
10.0676	1.98046
10.0481	2.09474
10.0287	2.22534
10.0093	2.30424
9.99005	2.24403
9.97084	2.32973
9.95169	2.34393
9.93263	2.25005
9.91364	2.18424
9.89472	2.24883
9.87587	2.36581
9.8571	2.39266
9.83839	2.41095
9.81976	2.43505
9.80119	2.47278
9.78271	2.50487
9.76428	2.56781
9.74592	2.65859
9.72764	2.73903
9.70943	2.84198
9.69128	2.9033
9.6732	2.8931
9.65518	2.96848
9.63724	3.19146
9.61935	3.30555
9.60155	3.32066
9.5838	3.50409
9.56611	3.72593
9.5485	3.75145
9.53094	3.67629
9.51345	3.7164
9.49604	3.86528
9.47867	3.89096
9.46137	3.81468
9.44414	3.70913
9.42697	3.62638
9.40986	3.53252
9.39281	3.42192
9.37583	3.14485
9.35891	2.81786
9.34204	2.67326
9.32524	2.52953
9.3085	2.43863
9.29182	2.38984
9.27519	2.16953
9.25863	1.96229
9.24213	1.85873
9.22568	1.76167
9.2093	1.70865
9.19297	1.7585
9.17669	1.88671
9.16048	1.90311
9.14433	2.00636
9.12823	2.10144
9.11218	1.96522
9.0962	1.94825
9.08027	1.97486
9.06439	2.04361
9.04858	2.15381
9.03281	2.0834
9.0171	2.00419
9.00145	1.95072
8.98585	1.90777
8.9703	1.91099
8.9548	1.90092
8.93937	1.88926
8.92398	1.87376
8.90865	1.9225
8.89337	1.8931
8.87814	1.79191
8.86296	1.73012
8.84784	1.82972
8.83277	1.9695
8.81774	2.01575
8.80277	1.946
8.78786	1.76355
8.77298	1.65954
8.75816	1.81574
8.7434	2.06992
8.72868	2.07156
8.714	1.83336
8.69938	1.74682
8.68481	1.85681
8.67029	1.79543
8.65581	1.70643
8.64139	1.76335
8.62701	1.73221
8.61268	1.69206
8.5984	1.68995
8.58416	1.66512
8.56997	1.61037
8.55583	1.74424
8.54174	1.76189
8.52769	1.68453
8.51368	1.70223
8.49973	1.591
8.48582	1.58153
8.47195	1.5818
8.45813	1.51819
8.44436	1.51432
8.43062	1.46776
8.41693	1.55109
8.4033	1.61369
8.3897	1.53066
8.37614	1.51328
8.36264	1.60731
8.34917	1.40006
8.33574	1.19956
8.32236	1.08755
8.30903	1.04925
8.29573	1.11758
8.28248	1.14675
8.26927	1.07916
8.2561	1.00374
8.24298	0.992287
8.2299	1.02836
8.21685	1.11162
8.20385	1.16702
8.19089	1.06768
8.17797	1.05084
8.16509	1.0127
8.15225	0.900766
8.13946	0.812582
8.1267	0.823689
8.11398	0.895243
8.10131	0.963948
8.08867	1.03018
8.07606	1.0614
8.0635	1.14898
8.05099	1.2973
8.0385	1.40581
8.02606	1.51181
8.01366	1.50865
8.00129	1.32853
7.98896	1.31837
7.97667	1.39198
7.96442	1.44839
7.9522	1.60926
7.94002	1.63689
7.92788	1.59904
7.91578	1.69296
7.90371	1.82295
7.89168	1.9313
7.87969	2.03537
7.86773	2.13569
7.85581	2.23909
7.84392	2.26282
7.83207	2.25038
7.82026	2.32384
7.80849	2.46239
7.79674	2.58514
7.78503	2.5895
7.77337	2.57286
7.76173	2.60512
7.75012	2.65156
7.73856	2.74747
7.72703	2.87586
7.71553	3.01356
7.70406	3.08392
7.69263	3.15039
7.68123	3.18059
7.66987	3.27344
7.65855	3.39888
7.64725	3.50563
7.63598	3.58473
7.62475	3.71049
7.61356	3.82161
7.60239	3.88702
7.59126	3.92924
7.58017	4.09068
7.5691	4.23857
7.55806	4.31805
7.54707	4.44068
7.5361	4.54893
7.52516	4.54877
7.51425	4.61903
7.50338	4.72071
7.49253	4.87007
7.48172	4.99877
7.47094	5.06516
7.46019	5.0874
7.44947	5.19744
7.43879	5.29554
7.42813	5.39954
7.4175	5.49778
7.4069	5.63169
7.39634	5.74281
7.3858	5.77293
7.37529	5.79465
7.36482	5.85698
7.35437	5.95098
7.34396	6.06795
7.33357	6.14448
7.32321	6.20475
7.31288	6.27193
7.30258	6.32357
7.29231	6.40034
7.28207	6.43773
7.27185	6.47915
7.26167	6.60044
7.25152	6.71506
7.24139	6.81848
7.23129	6.83967
7.22122	6.86038
7.21117	6.93104
7.20116	6.99778
7.19117	7.04562
7.18121	7.11563
7.17128	7.11287
7.16137	7.1081
7.1515	7.1344
7.14164	7.18666
7.13182	7.24126
7.12203	7.22846
7.11225	7.26073
7.10251	7.36095
7.0928	7.44107
7.08311	7.46256
7.07344	7.54742
7.06381	7.65073
7.0542	7.69666
7.04461	7.75524
7.03506	7.87592
7.02552	7.91268
7.01601	7.97638
7.00653	8.0219
6.99708	8.05774
6.98765	8.20319
6.97824	8.33661
6.96886	8.43678
6.95951	8.51147
6.95018	8.6637
6.94087	8.87118
6.9316	9.09467
6.92234	9.27852
6.91311	9.46453
6.90391	9.63117
6.89473	9.80679
6.88557	9.98735
6.87644	10.0424
6.86733	10.0606
6.85824	10.3273
6.84918	10.6667
6.84015	10.9193
6.83114	11.0708
6.82215	11.2069
6.81319	11.3724
6.80424	11.5321
6.79532	11.6528
6.78643	11.8449
6.77756	12.0659
6.76871	12.2729
6.75989	12.5677
6.75109	12.8903
6.74231	13.0965
6.73355	13.155
6.72482	13.204
6.71611	13.2169
6.70742	13.3642
6.69875	13.6317
6.69011	13.741
6.68149	13.8767
6.67289	14.089
6.66431	14.2451
6.65576	14.3908
6.64722	14.4039
6.63871	14.196
6.63022	14.37
6.62175	14.7434
6.61331	14.8711
6.60488	14.9231
6.59648	15.0391
6.5881	15.1488
6.57974	15.1305
6.5714	15.1011
6.56308	15.2868
6.55478	15.3995
6.54651	15.5454
6.53825	15.6569
6.53001	15.6974
6.5218	15.6843
6.51361	15.8006
6.50544	15.7045
6.49729	15.4252
6.48915	15.4481
6.48104	15.6246
6.47295	15.645
6.46488	15.6308
6.45683	15.6643
6.4488	15.6734
6.44079	15.5794
6.4328	15.4256
6.42482	15.2538
6.41687	15.0058
6.40894	15.0393
6.40103	15.2216
6.39314	15.1933
6.38526	15.1598
6.37741	15.036
6.36957	14.8783
6.36176	14.943
6.35396	14.7669
6.34618	14.42
6.33843	14.2998
6.33069	14.2929
6.32297	14.1684
6.31527	14.0077
6.30758	13.8229
6.29992	13.6085
6.29227	13.4175
6.28465	13.2329
6.27704	13.0016
6.26945	12.7674
6.26188	12.5312
6.25432	12.262
6.24679	11.9664
6.23927	11.6675
6.23177	11.3049
6.22429	10.9035
6.21683	10.5545
6.20938	10.1582
6.20195	9.66463
6.19454	9.13876
6.18715	8.5833
6.17978	8.14031
6.17242	7.6289
6.16508	7.0793
6.15776	6.71254
6.15045	6.47855
6.14317	6.26974
6.1359	6.05954
6.12864	5.94064
6.12141	5.86779
6.11419	5.79086
6.10699	5.83685
6.0998	5.91426
6.09263	5.90927
6.08549	5.98715
6.07835	6.10779
6.07123	6.22301
6.06413	6.37308
6.05705	6.59467
6.04998	6.66823
6.04293	6.83871
6.0359	7.08014
6.02888	7.23623
6.02187	7.41767
6.01489	7.60286
6.00792	7.86152
6.00096	8.08988
5.99403	8.20984
5.98711	8.48646
5.9802	8.9006
5.97331	9.11336
5.96644	9.29527
5.95958	9.63894
5.95274	9.98097
5.94591	10.2234
5.9391	10.331
5.9323	10.7595
5.92552	11.2661
5.91876	11.6398
5.91201	11.9369
5.90528	12.2197
5.89856	12.4101
5.89186	12.7621
5.88517	13.0944
5.8785	13.5036
5.87184	14.1185
5.8652	14.5327
5.85857	14.8502
5.85196	15.1773
5.84536	15.618
5.83878	15.9861
5.83221	16.2244
5.82566	16.4755
5.81912	16.7687
5.81259	17.1729
5.80608	17.5334
5.79959	17.8332
5.79311	18.1297
5.78665	18.3958
5.78019	18.5601
5.77376	18.6128
5.76734	18.5935
5.76093	18.9103
5.75453	19.2388
5.74815	19.3591
5.74179	19.5538
5.73543	19.6539
5.7291	19.6988
5.72277	19.7645
5.71646	19.7766
5.71017	19.8212
5.70389	20.0391
5.69762	20.0888
5.69136	20.114
5.68513	20.3117
5.6789	20.3817
5.67268	20.3468
5.66648	20.3759
5.6603	20.4469
5.65413	20.4581
5.64797	20.4239
5.64182	20.4052
5.63569	20.5588
5.62957	20.6265
5.62347	20.6971
5.61737	20.7727
5.61129	20.859
5.60522	20.8959
5.59917	20.85
5.59313	20.8659
5.5871	20.8836
5.58109	20.7605
5.57509	20.737
5.5691	20.8748
5.56312	20.9579
5.55716	20.9627
5.55121	20.9473
5.54528	21.0369
5.53935	21.0904
5.53344	21.0909
5.52754	21.1261
5.52166	21.2497
5.51578	21.3307
5.50992	21.3402
5.50407	21.3275
5.49823	21.4992
5.49241	21.7026
5.4866	21.8021
5.4808	21.8519
5.47501	21.9748
5.46923	22.0733
5.46347	22.2586
5.45772	22.5823
5.45198	22.7921
5.44625	22.9374
5.44054	23.1181
5.43484	23.3392
5.42914	23.5194
5.42347	23.6107
5.4178	23.8537
5.41214	24.1814
5.4065	24.4246
5.40087	24.662
5.39525	24.8584
5.38964	25.0434
5.38404	25.2999
5.37846	25.5742
5.37288	25.7694
5.36732	25.9849
5.36177	26.1907
5.35623	26.2784
5.35071	26.3088
5.34519	26.5904
5.33968	26.8978
5.33419	27.0853
5.32871	27.1711
5.32324	27.2909
5.31778	27.4942
5.31233	27.7712
5.30689	28.0444
5.30147	28.2318
5.29605	28.3527
5.29065	28.5579
5.28525	28.8234
5.27987	29.0203
5.2745	29.2183
5.26914	29.3863
5.26379	29.6013
5.25845	29.8814
5.25312	30.1058
5.24781	30.3168
5.2425	30.4765
5.23721	30.6942
5.23192	30.9743
5.22665	31.2113
5.22138	31.4032
5.21613	31.5956
5.21089	31.8584
5.20566	32.1211
5.20044	32.2913
5.19522	32.5792
5.19002	32.9202
5.18483	33.2027
5.17965	33.4276
5.17448	33.7047
5.16933	33.9985
5.16418	34.2896
5.15904	34.5565
5.15391	34.7386
5.14879	34.8728
5.14368	35.1481
5.13859	35.4893
5.1335	35.8077
5.12842	36.0152
5.12335	36.2658
5.1183	36.4864
5.11325	36.7993
5.10821	37.0708
5.10318	37.2017
5.09817	37.3954
5.09316	37.681
5.08816	37.8825
5.08317	37.9557
5.07819	38.0614
5.07322	38.2852
5.06826	38.5106
5.06331	38.7087
5.05837	38.8851
5.05344	39.0517
5.04852	39.179
5.04361	39.3204
5.03871	39.5101
5.03382	39.7107
5.02894	39.8714
5.02406	39.9613
5.0192	40.0246
5.01435	40.1937
5.0095	40.3605
5.00467	40.4308
4.99984	40.5392
4.99502	40.6495
4.99021	40.7689
4.98542	40.9218
4.98063	41.0464
4.97585	41.1575
4.97108	41.1887
4.96632	41.1947
4.96156	41.2154
4.95682	41.3065
4.95209	41.3698
4.94736	41.4156
4.94264	41.4936
4.93794	41.5397
4.93324	41.5866
4.92855	41.692
4.92387	41.7847
4.9192	41.822
4.91453	41.8445
4.90988	41.8985
4.90524	41.9893
4.9006	42.002
4.89597	41.9848
4.89135	42.0434
4.88674	42.1515
4.88214	42.1875
4.87755	42.2519
4.87296	42.3422
4.86839	42.4053
4.86382	42.5093
4.85926	42.5998
4.85471	42.6942
4.85017	42.7663
4.84564	42.8011
4.84111	42.8583
4.8366	42.904
4.83209	42.9591
4.82759	43.0477
4.8231	43.1196
4.81862	43.1847
4.81415	43.1966
4.80968	43.2341
4.80522	43.3813
4.80077	43.5084
4.79633	43.5824
4.7919	43.6854
4.78747	43.7879
4.78306	43.8634
4.77865	43.8976
4.77425	43.9836
4.76986	44.0855
4.76547	44.1459
4.7611	44.2358
4.75673	44.3307
4.75237	44.4481
4.74802	44.5847
4.74367	44.7118
4.73934	44.7864
4.73501	44.851
4.73069	44.9757
4.72638	45.0686
4.72207	45.2014
4.71777	45.383
4.71348	45.4032
4.7092	45.4489
4.70493	45.5946
4.70066	45.6854
4.69641	45.7996
4.69216	45.9006
4.68791	46.0445
4.68368	46.0988
4.67945	46.1825
4.67523	46.3902
4.67102	46.5129
4.66682	46.6232
4.66262	46.7067
4.65843	46.7859
4.65425	46.8988
4.65007	46.9477
4.64591	47.0371
4.64175	47.2201
4.6376	47.3663
4.63345	47.541
4.62932	47.7318
4.62519	47.7905
4.62106	47.8598
4.61695	47.9442
4.61284	48.1008
4.60874	48.2277
4.60465	48.3445
4.60056	48.5295
4.59648	48.7294
4.59241	48.8476
4.58835	48.9608
4.58429	49.0355
4.58024	49.0824
4.5762	49.2182
4.57216	49.4154
4.56814	49.5115
4.56411	49.5903
4.5601	49.6716
4.55609	49.8127
4.55209	49.9593
4.5481	50.0948
4.54411	50.2056
4.54013	50.2585
4.53616	50.327
4.5322	50.4722
4.52824	50.5783
4.52429	50.7036
4.52034	50.8357
4.51641	50.9659
4.51247	51.0257
4.50855	51.0924
4.50463	51.206
4.50072	51.3024
4.49682	51.3858
4.49292	51.5057
4.48903	51.6202
4.48515	51.6818
4.48127	51.7669
4.4774	51.8669
4.47354	51.9606
4.46968	52.0749
4.46584	52.1486
4.46199	52.2651
4.45815	52.3495
4.45432	52.4176
4.4505	52.4805
4.44668	52.5638
4.44287	52.6925
4.43907	52.7902
4.43527	52.8858
4.43148	52.995
4.4277	53.1171
4.42392	53.2252
4.42015	53.3402
4.41638	53.4302
4.41262	53.4032
4.40887	53.4991
4.40513	53.6485
4.40139	53.7565
4.39765	53.8579
4.39393	54.0127
4.39021	54.112
4.38649	54.1823
4.38278	54.2642
4.37908	54.3196
4.37539	54.3905
4.3717	54.5148
4.36801	54.5844
4.36434	54.644
4.36067	54.6659
4.357	54.7484
4.35335	54.9074
4.34969	54.9734
4.34605	54.9766
4.34241	55.041
4.33877	55.1359
4.33514	55.2237
4.33152	55.2906
4.32791	55.2679
4.3243	55.3064
4.32069	55.3929
4.3171	55.4296
4.31351	55.5087
4.30992	55.5523
4.30634	55.5457
4.30277	55.5539
4.2992	55.6134
4.29564	55.7014
4.29208	55.7607
4.28853	55.765
4.28499	55.7374
4.28145	55.7412
4.27792	55.7509
4.27439	55.7212
4.27087	55.6848
4.26735	55.7222
4.26384	55.8384
4.26034	56.0289
4.25684	56.2702
4.25335	56.3557
4.24986	56.4232
4.24638	56.5667
4.24291	56.6642
4.23944	56.7382
4.23598	56.7885
4.23252	56.8558
4.22906	56.9633
4.22562	57.1468
4.22218	57.2942
4.21874	57.3899
4.21531	57.4238
4.21189	57.5064
4.20847	57.7287
4.20506	57.9548
4.20165	57.9889
4.19825	57.9772
4.19485	58.0806
4.19146	58.1433
4.18807	58.2419
4.18469	58.3577
4.18132	58.4717
4.17795	58.5478
4.17458	58.4918
4.17123	58.5168
4.16787	58.5895
4.16453	58.6993
4.16118	58.8302
4.15785	58.9691
4.15451	59.0567
4.15119	59.0694
4.14787	59.0894
4.14455	59.2286
4.14124	59.3639
4.13794	59.444
4.13464	59.5224
4.13134	59.605
4.12805	59.6354
4.12477	59.6876
4.12149	59.8123
4.11822	59.9754
4.11495	60.079
4.11168	60.1059
4.10843	60.202
4.10517	60.262
4.10192	60.2753
4.09868	60.3587
4.09545	60.4867
4.09221	60.5929
4.08899	60.6192
4.08576	60.6282
4.08255	60.7369
4.07933	60.8138
4.07613	60.8178
4.07292	60.8773
4.06973	61.0351
4.06654	61.1039
4.06335	61.1462
4.06017	61.2107
4.05699	61.2545
4.05382	61.3118
4.05065	61.3954
4.04749	61.4974
4.04433	61.516
4.04118	61.5226
4.03803	61.6124
4.03489	61.6673
4.03175	61.6851
4.02862	61.6953
4.02549	61.749
4.02237	61.8099
4.01925	61.8442
4.01614	61.8957
4.01303	61.8889
4.00993	61.7941
4.00683	61.7678
4.00373	61.7295
4.00064	61.6776
3.99756	61.6564
3.99448	61.6427
3.9914	61.6718
3.98833	61.6194
3.98527	61.5007
3.98221	61.4056
3.97915	61.3162
3.9761	61.1893
3.97305	61.0994
3.97001	60.957
3.96697	60.8547
3.96394	60.9018
3.96091	60.9355
3.95789	60.9669
3.95487	61.0403
3.95186	61.0979
3.94885	61.162
3.94584	61.1838
3.94284	61.2067
3.93984	61.415
3.93685	61.5854
3.93386	61.6065
3.93088	61.6044
3.9279	61.6489
3.92493	61.6584
3.92196	61.712
3.919	61.7439
3.91604	61.8264
3.91308	61.9376
3.91013	62.0121
3.90718	62.1555
3.90424	62.2175
3.9013	62.3103
3.89837	62.4994
3.89544	62.5369
3.89252	62.5442
3.8896	62.5441
3.88668	62.5443
3.88377	62.5994
3.88086	62.5897
3.87796	62.6317
3.87506	62.6038
3.87217	62.5489
3.86928	62.6142
3.86639	62.6466
3.86351	62.641
3.86064	62.6987
3.85776	62.7568
3.8549	62.7883
3.85203	62.8466
3.84917	62.8444
3.84631	62.8709
3.84346	62.9523
3.84062	62.9651
3.83777	62.8902
3.83494	62.8328
3.8321	62.8149
3.82927	62.8009
3.82644	62.8059
3.82362	62.7641
3.82081	62.7458
3.81799	62.6536
3.81518	62.4793
3.81238	62.3223
3.80958	62.2243
3.80678	62.1709
3.80399	62.1437
3.8012	62.0799
3.79841	62.0733
3.79563	62.1181
3.79286	62.0957
3.79008	62.0835
3.78731	62.1463
3.78455	62.1366
3.78179	62.1067
3.77903	62.1247
3.77628	62.1231
3.77353	62.1059
3.77079	62.044
3.76805	61.9231
3.76531	61.8279
3.76258	61.785
3.75985	61.7203
3.75713	61.7055
3.7544	61.6569
3.75169	61.6269
3.74898	61.5825
3.74627	61.4831
3.74356	61.3929
3.74086	61.3468
3.73816	61.2314
3.73547	61.2246
3.73278	61.197
3.7301	61.0919
3.72741	60.985
3.72474	60.891
3.72206	60.8008
3.71939	60.6971
3.71673	60.672
3.71406	60.6225
3.71141	60.5371
3.70875	60.4739
3.7061	60.3575
3.70345	60.2464
3.70081	60.1688
3.69817	60.064
3.69553	59.8949
3.6929	59.875
3.69027	59.8292
3.68765	59.7024
3.68503	59.6224
3.68241	59.499
3.6798	59.4408
3.67719	59.4066
3.67458	59.2601
3.67198	59.0909
3.66938	58.9788
3.66678	58.8899
3.66419	58.8264
3.66161	58.786
3.65902	58.703
3.65644	58.5783
3.65387	58.4566
3.65129	58.3598
3.64872	58.2462
3.64616	58.1298
3.64359	58.0307
3.64103	57.9152
3.63848	57.802
3.63593	57.6906
3.63338	57.6168
3.63084	57.4707
3.6283	57.3237
3.62576	57.1897
3.62322	57.0433
3.62069	56.9469
3.61817	56.8677
3.61564	56.7299
3.61312	56.5716
3.61061	56.3634
3.6081	56.1817
3.60559	56.0746
3.60308	55.9591
3.60058	55.793
3.59808	55.611
3.59558	55.4896
3.59309	55.3748
3.59061	55.1659
3.58812	54.9753
3.58564	54.8781
3.58316	54.6796
3.58069	54.4925
3.57822	54.3845
3.57575	54.1853
3.57328	53.9384
3.57082	53.7569
3.56836	53.5866
3.56591	53.3662
3.56346	53.1659
3.56101	53.0165
3.55857	52.878
3.55613	52.6916
3.55369	52.4997
3.55126	52.3005
3.54883	52.1076
3.5464	51.9402
3.54397	51.7506
3.54155	51.5779
3.53914	51.4555
3.53672	51.2732
3.53431	51.0695
3.5319	50.8845
3.5295	50.7619
3.5271	50.6201
3.5247	50.326
3.52231	49.9918
3.51991	49.757
3.51753	49.562
3.51514	49.3146
3.51276	49.0527
3.51038	48.7242
3.50801	48.4623
3.50563	48.3318
3.50327	48.2015
3.5009	48.0309
3.49854	47.9809
3.49618	47.9159
3.49382	47.7531
3.49147	47.6485
3.48912	47.4862
3.48677	47.2818
3.48443	47.1525
3.48209	47.0293
3.47975	46.8952
3.47742	46.7197
3.47509	46.5952
3.47276	46.5122
3.47044	46.4024
3.46812	46.2127
3.4658	46.0099
3.46348	45.7884
3.46117	45.5855
3.45886	45.3218
3.45656	45.0836
3.45425	44.9687
3.45195	44.8231
3.44966	44.5355
3.44736	44.2724
3.44507	44.0885
3.44279	43.9412
3.4405	43.675
3.43822	43.3237
3.43594	43.032
3.43367	42.7815
3.43139	42.5947
3.42912	42.3601
3.42686	42.0538
3.42459	41.7926
3.42233	41.546
3.42007	41.2647
3.41782	40.9783
3.41557	40.7685
3.41332	40.6415
3.41108	40.5552
3.40883	40.4862
3.40659	40.3078
3.40435	40.1747
3.40212	40.0918
3.39989	39.9465
3.39766	39.8502
3.39544	39.7173
3.39322	39.5504
3.391	39.3387
3.38878	39.1457
3.38657	38.887
3.38436	38.5911
3.38215	38.4188
3.37994	38.2845
3.37774	38.1285
3.37554	37.9692
3.37335	37.7741
3.37115	37.5999
3.36896	37.4306
3.36678	37.2987
3.36459	37.1918
3.36241	36.9814
3.36023	36.6972
3.35805	36.5661
3.35588	36.514
3.35371	36.3092
3.35154	35.9711
3.34938	35.7001
3.34721	35.557
3.34505	35.3964
3.3429	35.2437
3.34074	35.1269
3.33859	34.9782
3.33644	34.8116
3.3343	34.5934
3.33215	34.3802
3.33001	34.1632
3.32788	33.9203
3.32574	33.6539
3.32361	33.494
3.32148	33.3308
3.31936	33.0976
3.31723	32.9185
3.31511	32.6955
3.31299	32.4416
3.31088	32.2737
3.30876	32.0747
3.30665	31.8866
3.30455	31.6946
3.30244	31.4245
3.30034	31.1768
3.29824	30.9726
3.29614	30.8109
3.29405	30.6513
3.29196	30.5155
3.28987	30.3839
3.28778	30.2388
3.2857	29.9639
3.28362	29.6998
3.28154	29.5243
3.27946	29.2931
3.27739	29.0307
3.27532	28.8391
3.27325	28.6449
3.27119	28.4816
3.26913	28.2797
3.26707	28.0795
3.26501	27.9569
3.26295	27.799
3.2609	27.546
3.25885	27.3323
3.2568	27.2403
3.25476	27.0909
3.25272	26.8708
3.25068	26.6783
3.24864	26.5047
3.24661	26.2296
3.24458	25.9561
3.24255	25.7707
3.24052	25.6809
3.2385	25.561
3.23648	25.3658
3.23446	25.0172
3.23244	24.7563
3.23043	24.6257
3.22841	24.3717
3.2264	24.2361
3.2244	24.1445
3.22239	23.8854
3.22039	23.6383
3.21839	23.4216
3.2164	23.1961
3.2144	23.0974
3.21241	22.8923
3.21042	22.643
3.20844	22.4236
3.20645	22.1362
3.20447	21.956
3.20249	21.8809
3.20051	21.6462
3.19854	21.4089
3.19657	21.3003
3.1946	21.1161
3.19263	20.8544
3.19067	20.6795
3.1887	20.4877
3.18674	20.2517
3.18479	20.1453
3.18283	20.0105
3.18088	19.7715
3.17893	19.5555
3.17698	19.3474
3.17504	19.0533
3.17309	18.8787
3.17115	18.7095
3.16921	18.628
3.16728	18.492
3.16534	18.196
3.16341	17.9762
3.16148	17.9319
3.15956	17.8628
3.15763	17.6006
3.15571	17.4588
3.15379	17.2948
3.15187	17.0248
3.14996	16.8742
3.14805	16.684
3.14614	16.5259
3.14423	16.4444
3.14232	16.32
3.14042	16.1556
3.13852	15.9157
3.13662	15.7744
3.13472	15.7549
3.13283	15.6054
3.13094	15.341
3.12905	15.1974
3.12716	15.0864
3.12528	14.8884
3.12339	14.7773
3.12151	14.6727
3.11964	14.5157
3.11776	14.3785
3.11589	14.1679
3.11401	14.0804
3.11214	13.997
3.11028	13.8228
3.10841	13.8157
3.10655	13.7888
3.10469	13.6642
3.10283	13.6352
3.10098	13.5109
3.09912	13.3853
3.09727	13.2527
3.09542	13.1853
3.09358	13.1474
3.09173	13.1045
3.08989	13.0848
3.08805	12.9174
3.08621	12.834
3.08437	12.9
3.08254	12.8331
3.08071	12.681
3.07888	12.5927
3.07705	12.6228
3.07523	12.5941
3.0734	12.5266
3.07158	12.547
3.06977	12.4857
3.06795	12.3889
3.06613	12.4426
3.06432	12.4043
3.06251	12.2802
3.0607	12.2167
3.0589	12.2275
3.0571	12.2306
3.05529	12.2624
3.05349	12.3025
3.0517	12.1737
3.0499	12.054
3.04811	11.9629
3.04632	11.9752
3.04453	12.0224
3.04274	11.9237
3.04096	11.8655
3.03918	11.7063
3.0374	11.6832
3.03562	11.7396
3.03384	11.7202
3.03207	11.5954
3.03029	11.5196
3.02852	11.5218
3.02676	11.5803
3.02499	11.5433
3.02323	11.487
3.02146	11.4884
3.0197	11.5003
3.01795	11.3667
3.01619	11.1002
3.01444	10.9786
3.01269	10.9805
3.01094	10.9694
3.00919	11.0555
3.00744	11.0721
3.0057	11.0241
3.00396	10.8639
3.00222	10.7777
3.00048	10.8287
2.99875	10.8415
2.99701	10.6465
2.99528	10.5411
2.99355	10.6117
2.99183	10.597
2.9901	10.5033
2.98838	10.3686
2.98666	10.3591
2.98494	10.4264
2.98322	10.2784
2.9815	10.1424
2.97979	10.2361
2.97808	10.1852
2.97637	10.0795
2.97466	10.149
2.97295	10.0503
2.97125	10.0666
2.96955	10.1299
2.96785	10.0004
2.96615	9.96994
2.96446	10.0207
2.96276	10.0579
2.96107	9.97712
2.95938	9.87038
2.95769	9.84925
2.95601	9.75591
2.95432	9.64959
2.95264	9.72417
2.95096	9.85276
2.94928	9.84873
2.9476	9.68938
2.94593	9.66208
2.94425	9.58897
2.94258	9.69554
2.94092	9.82123
2.93925	9.7379
2.93758	9.64421
2.93592	9.58963
2.93426	9.65687
2.9326	9.80126
2.93094	9.81531
2.92928	9.67535
2.92763	9.6636
2.92598	9.64132
2.92433	9.59962
2.92268	9.70628
2.92103	9.73713
2.91939	9.63724
2.91775	9.63512
2.9161	9.71783
2.91447	9.88236
2.91283	9.7984
2.91119	9.79341
2.90956	9.95546
2.90793	10.0093
2.9063	9.99929
2.90467	9.8464
2.90304	9.89129
2.90142	9.99433
2.89979	9.86419
2.89817	9.94876
2.89656	10.1478
2.89494	10.2539
2.89332	10.1644
2.89171	10.2162
2.8901	10.3805
2.88849	10.4334
2.88688	10.3399
2.88527	10.3739
2.88367	10.5682
2.88206	10.6065
2.88046	10.612
2.87886	10.6595
2.87727	10.7999
2.87567	10.8671
2.87408	10.9167
2.87248	10.9234
2.87089	10.9735
2.8693	11.0174
2.86772	11.014
2.86613	11.0599
2.86455	11.1657
2.86297	11.0513
2.86139	10.9219
2.85981	11.05
2.85823	11.2493
2.85666	11.3165
2.85508	11.2304
2.85351	11.2649
2.85194	11.4081
2.85038	11.3449
2.84881	11.4264
2.84724	11.4763
2.84568	11.5324
2.84412	11.6286
2.84256	11.5114
2.841	11.5296
2.83945	11.5567
2.83789	11.5298
2.83634	11.457
2.83479	11.3802
2.83324	11.3845
2.83169	11.2356
2.83015	11.1629
2.82861	11.227
2.82706	11.1837
2.82552	10.904
2.82398	10.8593
2.82245	10.7623
2.82091	10.4115
2.81938	10.1685
2.81784	10.1517
2.81631	10.112
2.81479	9.8418
2.81326	9.51392
2.81173	9.39551
2.81021	9.29955
2.80869	9.10633
2.80716	8.79004
2.80565	8.57992
2.80413	8.34415
2.80261	8.01552
2.8011	7.66852
2.79959	7.41911
2.79808	7.16358
2.79657	6.91901
2.79506	6.58878
2.79355	6.34335
2.79205	5.9498
2.79055	5.65645
2.78904	5.34884
2.78754	5.26263
2.78605	5.07851
2.78455	4.57517
2.78306	4.13228
2.78156	4.00634
2.78007	3.75198
2.77858	3.66712
2.77709	3.47787
2.77561	3.20016
2.77412	2.98829
2.77264	2.81412
2.77116	2.84953
2.76968	2.75918
2.7682	2.55941
2.76672	2.49179
2.76524	2.53899
2.76377	2.67128
2.7623	2.86095
2.76083	2.92264
2.75936	2.82157
2.75789	2.64271
2.75642	2.60831
2.75496	2.72964
2.7535	2.93593
2.75203	3.00476
2.75057	3.16522
2.74912	3.32798
2.74766	3.40546
2.7462	3.41442
2.74475	3.63338
2.7433	3.96031
2.74185	4.1128
2.7404	4.34617
2.73895	4.66241
2.7375	5.09911
2.73606	5.50968
2.73462	5.87104
2.73318	6.27771
2.73174	6.83231
2.7303	7.49372
2.72886	8.28121
2.72742	9.11694
2.72599	9.75557
2.72456	10.4658
2.72313	11.437
2.7217	12.3944
2.72027	13.5782
2.71884	14.9949
2.71742	16.4134
2.71599	17.8715
2.71457	19.3895
2.71315	20.7789
2.71173	21.9055
2.71032	23.2645
2.7089	24.9574
2.70748	26.6065
2.70607	28.1062
2.70466	29.5433
2.70325	30.9692
2.70184	32.2511
2.70043	33.666
2.69903	35.0888
2.69762	36.3942
2.69622	37.6494
2.69482	38.9446
2.69342	40.36
2.69202	42.182
2.69062	43.7208
2.68923	45.1415
2.68783	46.4735
2.68644	47.6793
2.68505	48.8593
2.68366	49.8519
2.68227	50.9803
2.68089	51.8954
2.6795	52.2748
2.67812	52.8156
2.67673	53.338
2.67535	54.2859
2.67397	55.1378
2.6726	55.6746
2.67122	55.427
2.66984	55.9939
2.66847	56.9965
2.6671	56.9253
2.66572	57.3069
2.66435	58.0667
2.66299	59.0269
2.66162	59.4255
2.66025	59.6265
2.65889	59.9384
2.65753	60.564
2.65616	60.7556
2.65481	60.9728
2.65345	61.1259
2.65209	61.3807
2.65073	61.9652
2.64938	62.2272
2.64803	62.2934
2.64667	62.2712
2.64532	62.41
2.64397	62.7884
2.64263	62.8311
2.64128	62.9803
2.63994	63.2438
2.63859	63.3991
2.63725	63.4851
2.63591	63.5235
2.63457	63.3823
2.63323	63.3658
2.6319	63.3356
2.63056	62.9383
2.62923	63.4909
2.62789	63.7157
2.62656	63.3984
2.62523	63.7943
2.6239	64.1748
2.62258	64.3168
2.62125	63.8671
2.61993	63.5408
2.6186	63.7947
2.61728	63.3953
2.61596	63.679
2.61464	64.2755
2.61332	64.2332
2.61201	64.3259
2.61069	64.3343
2.60938	64.1383
2.60807	64.0895
2.60675	63.9658
2.60544	63.7467
2.60414	64.1025
2.60283	64.4694
2.60152	64.6905
2.60022	64.9557
2.59891	65.1394
2.59761	64.9657
2.59631	64.1749
2.59501	63.3343
2.59371	64.0668
2.59242	65.1411
2.59112	65.5813
2.58983	65.5752
2.58853	65.3911
2.58724	65.2775
2.58595	65.4856
2.58466	65.3127
2.58338	65.3246
2.58209	65.8233
2.5808	65.9688
2.57952	66.2925
2.57824	66.2552
2.57695	66.0573
2.57567	66.2734
2.5744	66.2399
2.57312	66.191
2.57184	66.6653
2.57057	66.4916
2.56929	66.3308
2.56802	66.7158
2.56675	66.9073
2.56548	66.6428
2.56421	66.33
2.56294	66.351
2.56168	66.3477
2.56041	66.6075
2.55915	66.9962
2.55789	67.1071
2.55662	67.1412
2.55536	67.2262
2.5541	67.2058
2.55285	67.0905
2.55159	67.1715
2.55034	67.2246
2.54908	67.2477
2.54783	67.2482
2.54658	67.3829
2.54533	67.3188
2.54408	67.229
2.54283	67.3495
2.54159	67.5653
2.54034	67.5831
2.5391	67.5269
2.53785	67.623
2.53661	67.5484
2.53537	67.5323
2.53413	67.757
2.53289	67.782
2.53166	67.7794
2.53042	67.7962
2.52919	67.7762
2.52795	67.8232
2.52672	67.8841
2.52549	67.8041
2.52426	67.8854
2.52303	68.0909
2.52181	68.1664
2.52058	68.1142
2.51936	68.0224
2.51813	68.0468
2.51691	68.1028
2.51569	68.1483
2.51447	68.178
2.51325	68.2203
2.51203	68.3529
2.51082	68.3545
2.5096	68.2867
2.50839	68.2525
2.50717	68.3379
2.50596	68.3065
2.50475	68.2229
2.50354	68.2723
2.50233	68.4627
2.50113	68.5216
2.49992	68.4362
2.49872	68.4313
2.49751	68.4364
2.49631	68.3059
2.49511	68.2807
2.49391	68.3545
2.49271	68.3771
2.49151	68.4545
2.49031	68.4953
2.48912	68.499
2.48792	68.524
2.48673	68.5302
2.48554	68.4795
2.48435	68.4528
2.48316	68.5628
2.48197	68.6289
2.48078	68.5546
2.4796	68.5353
2.47841	68.5824
2.47723	68.4913
2.47604	68.4836
2.47486	68.5796
2.47368	68.5468
2.4725	68.4522
2.47132	68.5341
2.47014	68.6318
2.46897	68.567
2.46779	68.525
2.46662	68.5526
2.46545	68.5796
2.46427	68.5389
2.4631	68.5866
2.46193	68.6639
2.46077	68.5699
2.4596	68.4952
2.45843	68.4197
2.45727	68.4143
2.4561	68.4092
2.45494	68.4419
2.45378	68.4018
2.45262	68.4265
2.45146	68.4362
2.4503	68.3836
2.44914	68.4092
2.44799	68.4965
2.44683	68.5454
2.44568	68.6029
2.44452	68.6603
2.44337	68.6165
2.44222	68.476
2.44107	68.3969
2.43992	68.4519
2.43877	68.5969
2.43763	68.5836
2.43648	68.6424
2.43534	68.8476
2.43419	68.9495
2.43305	68.9108
2.43191	68.9759
2.43077	69.1862
2.42963	69.3381
2.42849	69.5378
2.42736	69.6204
2.42622	69.6477
2.42509	69.7991
2.42395	69.9362
2.42282	69.9314
2.42169	69.9506
2.42056	70.2241
2.41943	70.4401
2.4183	70.4462
2.41717	70.5077
2.41605	70.7828
2.41492	70.9413
2.4138	70.9753
2.41267	71.1147
2.41155	71.275
2.41043	71.2716
2.40931	71.3692
2.40819	71.4127
2.40707	71.4346
2.40595	71.5622
2.40484	71.7304
2.40372	71.6952
2.40261	71.5919
2.4015	71.6226
2.40039	71.8188
2.39928	71.9426
2.39817	72.0245
2.39706	72.1521
2.39595	72.2096
2.39484	72.1484
2.39374	72.1281
2.39263	72.181
2.39153	72.3117
2.39043	72.4393
2.38932	72.4506
2.38822	72.3483
2.38712	72.3725
2.38603	72.4533
2.38493	72.3816
2.38383	72.2921
2.38274	72.3002
2.38164	72.3549
2.38055	72.3417
2.37946	72.3767
2.37836	72.39
2.37727	72.3812
2.37618	72.3828
2.3751	72.3896
2.37401	72.4861
2.37292	72.4353
2.37184	72.4725
2.37075	72.4292
2.36967	72.2815
2.36859	72.226
2.3675	72.2168
2.36642	72.2767
2.36534	72.1828
2.36427	72.0559
2.36319	72.1143
2.36211	72.1357
2.36104	71.9862
2.35996	71.808
2.35889	71.7767
2.35781	71.8273
2.35674	71.7364
2.35567	71.6038
2.3546	71.4524
2.35353	71.2362
2.35247	71.1387
2.3514	71.1644
2.35033	71.0673
2.34927	70.943
2.3482	70.942
2.34714	71.0095
2.34608	70.9612
2.34502	70.7785
2.34396	70.7705
2.3429	70.8308
2.34184	70.932
2.34078	70.9935
2.33973	71.0199
2.33867	71.1395
2.33762	71.2694
2.33656	71.3155
2.33551	71.4945
2.33446	71.7409
2.33341	71.8776
2.33236	72.0235
2.33131	72.2255
2.33026	72.3897
2.32922	72.5955
2.32817	72.8349
2.32712	72.9976
2.32608	73.0604
2.32504	73.1453
2.324	73.2895
2.32295	73.5558
2.32191	73.7794
2.32087	73.8497
2.31984	74.0176
2.3188	74.303
2.31776	74.3948
2.31673	74.5171
2.31569	74.8178
2.31466	75.084
2.31362	75.2799
2.31259	75.5411
2.31156	75.8763
2.31053	76.2571
2.3095	76.4015
2.30847	76.5167
2.30745	76.6605
2.30642	76.7884
2.3054	76.954
2.30437	77.1961
2.30335	77.2651
2.30232	77.3357
2.3013	77.5325
2.30028	77.6798
2.29926	77.6884
2.29824	77.7594
2.29722	77.9212
2.29621	78.0113
2.29519	78.0945
2.29417	78.116
2.29316	78.1413
2.29215	78.2212
2.29113	78.3123
2.29012	78.2434
2.28911	78.2362
2.2881	78.3211
2.28709	78.3237
2.28608	78.363
2.28507	78.4461
2.28407	78.43
2.28306	78.3043
2.28206	78.3148
2.28105	78.3251
2.28005	78.3265
2.27905	78.3326
2.27805	78.249
2.27705	78.1783
2.27605	78.1442
2.27505	78.0726
2.27405	77.999
2.27305	77.8732
2.27206	77.8509
2.27106	77.8109
2.27007	77.7016
2.26907	77.5471
2.26808	77.418
2.26709	77.3174
2.2661	77.3181
2.26511	77.1631
2.26412	76.8929
2.26313	76.5963
2.26214	76.2302
2.26116	75.933
2.26017	75.7308
2.25919	75.493
2.2582	75.061
2.25722	74.7155
2.25624	74.3286
2.25526	74.2192
2.25428	74.2353
2.2533	74.1334
2.25232	74.1317
2.25134	74.1158
2.25036	74.0473
2.24939	74.0195
2.24841	74.0406
2.24744	73.9556
2.24646	73.8013
2.24549	73.7394
2.24452	73.5662
2.24355	73.3711
2.24257	73.2695
2.24161	73.1626
2.24064	73.2155
2.23967	73.1857
2.2387	72.9558
2.23774	72.8461
2.23677	72.6608
2.23581	72.473
2.23484	72.3369
2.23388	72.1015
2.23292	71.8987
2.23196	71.8314
2.231	71.6291
2.23004	71.5738
2.22908	71.4888
2.22812	71.2876
2.22716	70.9631
2.22621	70.8181
2.22525	70.8372
2.2243	70.802
2.22334	70.8546
2.22239	70.7615
2.22144	70.7615
2.22049	70.8601
2.21953	70.7703
2.21859	70.7069
2.21764	70.7688
2.21669	71.036
2.21574	71.2678
2.21479	71.2841
2.21385	71.3274
2.2129	71.3959
2.21196	71.5035
2.21102	71.5909
2.21007	71.8156
2.20913	71.9931
2.20819	72.1471
2.20725	72.2786
2.20631	72.5212
2.20537	72.8403
2.20444	72.9488
2.2035	73.0272
2.20256	73.1646
2.20163	73.3771
2.20069	73.6225
2.19976	73.8468
2.19883	74.2063
2.19789	74.4444
2.19696	74.7212
2.19603	74.9131
2.1951	75.0973
2.19417	75.3606
2.19325	75.5722
2.19232	75.7674
2.19139	75.9508
2.19047	76.094
2.18954	76.2894
2.18862	76.5598
2.18769	76.8009
2.18677	76.9844
2.18585	77.122
2.18493	77.2209
2.18401	77.3322
2.18309	77.6268
2.18217	77.7394
2.18125	77.8372
2.18033	78.0794
2.17942	78.2731
2.1785	78.4026
2.17759	78.6274
2.17667	78.8234
2.17576	78.847
2.17485	78.9159
2.17393	78.9932
2.17302	79.2788
2.17211	79.5246
2.1712	79.5336
2.17029	79.4788
2.16939	79.5789
2.16848	79.6586
2.16757	79.6835
2.16667	79.8189
2.16576	79.9024
2.16486	80.0335
2.16395	80.1071
2.16305	80.2214
2.16215	80.436
2.16125	80.4999
2.16035	80.4938
2.15945	80.5563
2.15855	80.5343
2.15765	80.5103
2.15675	80.4294
2.15586	80.4475
2.15496	80.599
2.15406	80.7952
2.15317	80.8385
2.15228	80.7781
2.15138	80.8187
2.15049	80.9204
2.1496	80.9992
2.14871	81.165
2.14782	81.1103
2.14693	80.9078
2.14604	80.8316
2.14515	80.8327
2.14427	80.6711
2.14338	80.5985
2.14249	80.7222
2.14161	80.9965
2.14072	81.2909
2.13984	81.2041
2.13896	80.8671
2.13808	80.747
2.13719	81.0099
2.13631	81.0172
2.13543	80.9309
2.13455	80.945
2.13368	80.7806
2.1328	80.6516
2.13192	80.6928
2.13105	80.7576
2.13017	80.8003
2.1293	80.8158
2.12842	80.9719
2.12755	81.0633
2.12668	81.0338
2.1258	81.1809
2.12493	81.2369
2.12406	81.0948
2.12319	80.9784
2.12232	80.9036
2.12145	80.873
2.12059	80.9594
2.11972	80.9945
2.11885	80.8708
2.11799	80.7171
2.11712	80.8105
2.11626	80.9463
2.1154	80.9139
2.11453	80.8331
2.11367	80.7076
2.11281	80.7184
2.11195	80.8079
2.11109	80.9437
2.11023	80.9693
2.10937	80.9679
2.10851	80.9462
2.10766	81.044
2.1068	81.0523
2.10594	80.9976
2.10509	80.9091
2.10423	80.819
2.10338	80.898
2.10253	81.2235
2.10168	81.3895
2.10082	81.3967
2.09997	81.2091
2.09912	81.132
2.09827	81.1457
2.09742	81.2711
2.09658	81.151
2.09573	81.1849
2.09488	81.3984
2.09404	81.3812
2.09319	81.2251
2.09235	81.2156
2.0915	81.1483
2.09066	81.4166
2.08982	81.4845
2.08897	81.3738
2.08813	81.4127
2.08729	81.2948
2.08645	81.3151
2.08561	81.4469
2.08477	81.4589
2.08394	81.5557
2.0831	81.5992
2.08226	81.5648
2.08143	81.43
2.08059	81.4151
2.07976	81.4986
2.07892	81.471
2.07809	81.6167
2.07726	81.3719
2.07643	81.2495
2.07559	81.6532
2.07476	81.9668
2.07393	82.2405
2.0731	81.9943
2.07228	81.4223
2.07145	81.291
2.07062	81.4137
2.06979	81.3723
2.06897	81.3817
2.06814	81.8891
2.06732	81.5859
2.06649	81.1177
2.06567	81.3538
2.06485	81.708
2.06403	81.5909
2.0632	81.5182
2.06238	81.8602
2.06156	81.6632
2.06074	81.2631
2.05993	81.2364
2.05911	81.3323
2.05829	81.3443
2.05747	81.5673
2.05666	81.7215
2.05584	81.5462
2.05503	81.7115
2.05421	81.7457
2.0534	81.471
2.05259	81.3251
2.05177	81.3052
2.05096	81.3256
2.05015	81.3772
2.04934	81.2822
2.04853	81.2456
2.04772	81.2528
2.04691	81.3576
2.04611	81.4279
2.0453	81.3395
2.04449	81.2619
2.04369	81.0971
2.04288	80.8945
2.04208	81.0141
2.04127	81.2364
2.04047	81.2402
2.03967	81.1141
2.03886	81.0959
2.03806	81.2267
2.03726	81.1138
2.03646	81.0689
2.03566	81.0386
2.03486	80.8993
2.03407	80.8454
2.03327	80.8782
2.03247	81.0321
2.03167	81.0567
2.03088	81.0346
2.03008	81.0488
2.02929	80.8965
2.0285	80.8407
2.0277	80.9105
2.02691	80.8105
2.02612	80.7327
2.02533	80.5392
2.02453	80.5927
2.02374	80.6351
2.02295	80.635
2.02217	80.71
2.02138	80.5471
2.02059	80.3259
2.0198	80.4201
2.01902	80.4958
2.01823	80.3419
2.01744	80.2667
2.01666	80.4676
2.01588	80.4719
2.01509	80.4018
2.01431	80.354
2.01353	80.3577
2.01275	80.2845
2.01196	80.2761
2.01118	80.2628
2.0104	80.1491
2.00963	80.1328
2.00885	80.1062
2.00807	79.8948
2.00729	79.7556
2.00651	79.9629
2.00574	80.1349
2.00496	79.9949
2.00419	80.0237
2.00341	80.0392
2.00264	79.8458
2.00187	79.8364
2.00109	79.8155
2.00032	79.6693
