Name: Columbite Fe^2+Nb_2O_6
Type: Mineral
Class: Oxides
Subclass: 
Particle Size: 0-45um
Sample No.: O-7A
Owner: JPL
Wavelength range: IR
Origin: USA, South Dakota, Pennington County, Keystone
Collected by Burminco
Description: 





Measurement: Hemispherical reflectance
First Column: X
Second Column: Y
X Units:  Wavelength (micrometers)
Y Units:  Reflectance (percent)
First X Value: 15.3853
Last X Value: 2.00032
Number of X Values: 2256
Additional information: o07aa.txt
 
15.3853	7.78028
15.3397	7.89958
15.2945	8.01412
15.2495	8.1368
15.2048	8.19582
15.1603	8.31206
15.1161	8.16916
15.0722	8.02099
15.0285	8.13384
14.9851	8.43736
14.9419	8.66888
14.8989	8.64589
14.8563	8.52694
14.8138	8.5269
14.7716	8.5381
14.7296	8.71199
14.6879	8.78232
14.6464	8.77553
14.6052	8.76945
14.5641	8.73889
14.5233	8.88675
14.4828	9.01417
14.4424	9.09407
14.4023	8.98414
14.3624	8.96393
14.3227	9.15953
14.2833	9.17787
14.244	9.1096
14.205	9.29545
14.1662	9.56017
14.1276	9.57403
14.0892	9.42583
14.051	9.25133
14.0131	9.10793
13.9753	9.21031
13.9377	9.30835
13.9004	9.22793
13.8632	9.02258
13.8262	8.97211
13.7895	8.94054
13.7529	8.61499
13.7165	8.49027
13.6803	8.32801
13.6443	8.175
13.6085	8.11697
13.5729	7.96963
13.5374	7.92415
13.5022	7.758
13.4671	7.50155
13.4322	7.27397
13.3975	7.05433
13.363	7.00697
13.3286	7.01266
13.2944	6.822
13.2604	6.5694
13.2266	6.33026
13.193	6.29005
13.1595	6.35387
13.1262	6.22269
13.093	6.06544
13.06	5.99127
13.0272	5.74927
12.9946	5.64228
12.9621	5.61904
12.9298	5.53088
12.8976	5.59688
12.8656	5.60379
12.8337	5.47894
12.8021	5.37542
12.7705	5.31432
12.7391	5.15678
12.7079	5.05952
12.6769	4.99494
12.6459	4.9553
12.6152	4.9271
12.5845	4.95371
12.5541	4.83855
12.5238	4.88439
12.4936	4.99065
12.4635	5.08311
12.4337	5.18353
12.4039	5.01042
12.3743	4.69353
12.3448	4.63156
12.3155	4.56614
12.2863	4.44641
12.2573	4.45327
12.2284	4.21659
12.1996	3.98564
12.171	4.00296
12.1425	4.03156
12.1141	4.07591
12.0859	4.03464
12.0578	3.94718
12.0298	3.88564
12.0019	3.87115
11.9742	3.91257
11.9466	3.90743
11.9192	3.82938
11.8918	3.79531
11.8646	3.8046
11.8375	3.81881
11.8106	3.82399
11.7837	3.80259
11.757	3.69558
11.7304	3.60173
11.7039	3.48247
11.6776	3.43113
11.6513	3.29755
11.6252	3.11218
11.5992	3.01726
11.5733	2.94142
11.5475	2.69604
11.5219	2.32868
11.4963	2.10692
11.4709	2.05158
11.4455	1.88402
11.4203	1.66366
11.3952	1.61444
11.3702	1.51671
11.3454	1.329
11.3206	1.17752
11.2959	1.1094
11.2714	1.11588
11.2469	0.986427
11.2226	0.799727
11.1983	0.75808
11.1742	0.800754
11.1502	0.88029
11.1263	0.884418
11.1024	0.92334
11.0787	1.05419
11.0551	1.09504
11.0316	1.15909
11.0081	1.13393
10.9848	1.09507
10.9616	1.17424
10.9385	1.21499
10.9154	1.26883
10.8925	1.42965
10.8697	1.58646
10.8469	1.65026
10.8243	1.7331
10.8017	1.82992
10.7793	1.90146
10.7569	2.00865
10.7346	2.25265
10.7125	2.3365
10.6904	2.40401
10.6684	2.59847
10.6465	2.73937
10.6247	2.86714
10.6029	3.08519
10.5813	3.44955
10.5597	3.68119
10.5383	3.73071
10.5169	3.85179
10.4956	4.08903
10.4744	4.22839
10.4533	4.24143
10.4323	4.34224
10.4113	4.64317
10.3904	4.79884
10.3697	4.83074
10.349	4.9839
10.3284	5.14204
10.3078	5.29977
10.2874	5.50165
10.267	5.75843
10.2467	5.82788
10.2265	5.90141
10.2064	6.06021
10.1863	6.19762
10.1663	6.26077
10.1464	6.49105
10.1266	6.58849
10.1069	6.63531
10.0872	6.72024
10.0676	6.79192
10.0481	6.89361
10.0287	7.06722
10.0093	7.18168
9.99005	7.2144
9.97084	7.22418
9.95169	7.31715
9.93263	7.52053
9.91364	7.64907
9.89472	7.68898
9.87587	7.73127
9.8571	7.88371
9.83839	7.9661
9.81976	7.91213
9.80119	7.90237
9.78271	8.12433
9.76428	8.39368
9.74592	8.52908
9.72764	8.56482
9.70943	8.7306
9.69128	8.90908
9.6732	8.90441
9.65518	8.83817
9.63724	8.93709
9.61935	9.05835
9.60155	9.18572
9.5838	9.38303
9.56611	9.54493
9.5485	9.76892
9.53094	9.90219
9.51345	10.0523
9.49604	10.1303
9.47867	10.1826
9.46137	10.4068
9.44414	10.5281
9.42697	10.6118
9.40986	10.8409
9.39281	11.0559
9.37583	11.2739
9.35891	11.4971
9.34204	11.5904
9.32524	11.6856
9.3085	11.8875
9.29182	12.1461
9.27519	12.2252
9.25863	12.2903
9.24213	12.4887
9.22568	12.6517
9.2093	12.7734
9.19297	12.8289
9.17669	12.9023
9.16048	13.0568
9.14433	13.3836
9.12823	13.6587
9.11218	13.6991
9.0962	13.791
9.08027	13.906
9.06439	14.0752
9.04858	14.2621
9.03281	14.3896
9.0171	14.4695
9.00145	14.6363
8.98585	14.8246
8.9703	14.848
8.9548	14.9723
8.93937	15.1621
8.92398	15.4835
8.90865	15.6997
8.89337	15.9855
8.87814	16.1095
8.86296	16.162
8.84784	16.4393
8.83277	16.6221
8.81774	16.7016
8.80277	16.8438
8.78786	17.0294
8.77298	17.1163
8.75816	17.3061
8.7434	17.5092
8.72868	17.7039
8.714	18.0804
8.69938	18.2831
8.68481	18.2122
8.67029	18.1973
8.65581	18.3244
8.64139	18.4712
8.62701	18.6752
8.61268	18.8261
8.5984	19.0017
8.58416	19.2287
8.56997	19.3989
8.55583	19.4758
8.54174	19.5805
8.52769	19.7299
8.51368	19.9442
8.49973	20.1286
8.48582	20.1663
8.47195	20.2479
8.45813	20.4266
8.44436	20.6049
8.43062	20.7747
8.41693	20.8998
8.4033	21.056
8.3897	21.229
8.37614	21.3201
8.36264	21.4328
8.34917	21.6002
8.33574	21.7326
8.32236	21.8566
8.30903	22
8.29573	22.0419
8.28248	22.1029
8.26927	22.2834
8.2561	22.5175
8.24298	22.5761
8.2299	22.6628
8.21685	22.8689
8.20385	23.0544
8.19089	23.1181
8.17797	23.1664
8.16509	23.3241
8.15225	23.4852
8.13946	23.6142
8.1267	23.7941
8.11398	23.8091
8.10131	23.7782
8.08867	23.9722
8.07606	24.0582
8.0635	24.1033
8.05099	24.2402
8.0385	24.3508
8.02606	24.4803
8.01366	24.6407
8.00129	24.7238
7.98896	24.7849
7.97667	24.8856
7.96442	24.9841
7.9522	25.0568
7.94002	25.0902
7.92788	25.2293
7.91578	25.4387
7.90371	25.5918
7.89168	25.6024
7.87969	25.6715
7.86773	25.7202
7.85581	25.7512
7.84392	25.8402
7.83207	26.0018
7.82026	26.1345
7.80849	26.2883
7.79674	26.4238
7.78503	26.5058
7.77337	26.6087
7.76173	26.6831
7.75012	26.8399
7.73856	26.9482
7.72703	27.073
7.71553	27.151
7.70406	27.1742
7.69263	27.2852
7.68123	27.3982
7.66987	27.5531
7.65855	27.6945
7.64725	27.7477
7.63598	27.8322
7.62475	27.8924
7.61356	28.005
7.60239	28.0967
7.59126	28.2078
7.58017	28.3597
7.5691	28.4778
7.55806	28.5982
7.54707	28.6766
7.5361	28.7828
7.52516	28.8731
7.51425	28.8875
7.50338	29.0248
7.49253	29.1745
7.48172	29.2594
7.47094	29.3661
7.46019	29.4931
7.44947	29.6164
7.43879	29.6948
7.42813	29.7386
7.4175	29.7908
7.4069	29.9209
7.39634	30.0832
7.3858	30.0471
7.37529	30.0997
7.36482	30.1581
7.35437	30.198
7.34396	30.363
7.33357	30.4781
7.32321	30.5316
7.31288	30.5447
7.30258	30.5576
7.29231	30.5749
7.28207	30.6415
7.27185	30.7099
7.26167	30.7053
7.25152	30.7209
7.24139	30.7313
7.23129	30.8624
7.22122	31.0072
7.21117	31.0917
7.20116	31.0404
7.19117	30.9578
7.18121	30.9834
7.17128	31.0834
7.16137	31.0624
7.1515	31.1125
7.14164	31.0812
7.13182	31.0297
7.12203	31.1186
7.11225	31.0761
7.10251	30.9263
7.0928	30.8828
7.08311	30.9268
7.07344	30.9536
7.06381	31.0139
7.0542	31.1946
7.04461	31.2632
7.03506	31.1626
7.02552	31.1972
7.01601	31.2426
7.00653	31.2526
6.99708	31.2913
6.98765	31.3205
6.97824	31.4735
6.96886	31.613
6.95951	31.7214
6.95018	31.6289
6.94087	31.61
6.9316	31.6632
6.92234	31.7468
6.91311	31.878
6.90391	31.9876
6.89473	31.978
6.88557	32.0429
6.87644	32.2385
6.86733	32.631
6.85824	32.6318
6.84918	32.3421
6.84015	32.3422
6.83114	32.5864
6.82215	32.6806
6.81319	32.556
6.80424	32.6472
6.79532	33.0042
6.78643	33.194
6.77756	33.1542
6.76871	33.1008
6.75989	33.0113
6.75109	33.045
6.74231	33.1591
6.73355	33.2363
6.72482	33.3415
6.71611	33.4521
6.70742	33.438
6.69875	33.3443
6.69011	33.5094
6.68149	33.7306
6.67289	33.5789
6.66431	33.4213
6.65576	33.461
6.64722	33.7873
6.63871	34.1956
6.63022	33.9585
6.62175	33.5688
6.61331	33.4658
6.60488	33.4525
6.59648	33.4917
6.5881	33.4857
6.57974	33.6153
6.5714	33.7848
6.56308	33.6095
6.55478	33.5707
6.54651	33.4519
6.53825	33.3156
6.53001	33.3312
6.5218	33.4789
6.51361	33.3982
6.50544	33.4877
6.49729	33.9831
6.48915	34.017
6.48104	33.7147
6.47295	33.4913
6.46488	33.3001
6.45683	33.3042
6.4488	33.3738
6.44079	33.4994
6.4328	33.6935
6.42482	33.8073
6.41687	34.2282
6.40894	34.1261
6.40103	33.6494
6.39314	33.5527
6.38526	33.5624
6.37741	33.6961
6.36957	33.8549
6.36176	33.7243
6.35396	33.7454
6.34618	34.0764
6.33843	34.0137
6.33069	33.7434
6.32297	33.7253
6.31527	33.7336
6.30758	33.7963
6.29992	33.8218
6.29227	33.8074
6.28465	33.8133
6.27704	33.8352
6.26945	33.8435
6.26188	33.8134
6.25432	33.7601
6.24679	33.7667
6.23927	33.726
6.23177	33.6424
6.22429	33.5603
6.21683	33.5285
6.20938	33.4797
6.20195	33.3809
6.19454	33.4664
6.18715	33.7618
6.17978	33.5381
6.17242	33.2405
6.16508	33.2304
6.15776	33.1544
6.15045	33.0297
6.14317	32.9858
6.1359	32.9813
6.12864	32.9706
6.12141	33.1435
6.11419	33.325
6.10699	33.091
6.0998	32.8743
6.09263	32.8265
6.08549	32.8439
6.07835	33.0861
6.07123	33.1745
6.06413	32.9329
6.05705	33.0878
6.04998	33.6578
6.04293	33.2958
6.0359	32.8052
6.02888	32.6663
6.02187	32.6379
6.01489	32.6088
6.00792	32.4167
6.00096	32.355
5.99403	32.4986
5.98711	32.4593
5.9802	32.2381
5.97331	32.2346
5.96644	32.2513
5.95958	32.0117
5.95274	31.9483
5.94591	32.1111
5.9391	32.548
5.9323	32.4593
5.92552	32.0591
5.91876	32.0086
5.91201	32.1179
5.90528	32.3242
5.89856	32.7971
5.89186	32.9281
5.88517	33.1893
5.8785	33.3548
5.87184	33.0539
5.8652	33.2365
5.85857	33.4018
5.85196	33.4681
5.84536	33.6028
5.83878	33.8538
5.83221	34.1972
5.82566	34.687
5.81912	34.9173
5.81259	34.825
5.80608	34.9297
5.79959	35.1685
5.79311	35.3144
5.78665	35.5543
5.78019	35.9005
5.77376	36.3482
5.76734	36.9133
5.76093	36.9886
5.75453	37.0787
5.74815	37.5062
5.74179	37.7623
5.73543	38.0675
5.7291	38.4282
5.72277	38.8631
5.71646	39.2885
5.71017	39.7548
5.70389	39.9662
5.69762	40.2246
5.69136	40.6089
5.68513	40.8728
5.6789	41.2848
5.67268	41.6222
5.66648	41.7813
5.6603	42.1323
5.65413	42.5585
5.64797	42.883
5.64182	43.1574
5.63569	43.1548
5.62957	43.1011
5.62347	43.2331
5.61737	43.5311
5.61129	43.7054
5.60522	43.7992
5.59917	43.8808
5.59313	43.9598
5.5871	44.1931
5.58109	44.4902
5.57509	44.5091
5.5691	44.4208
5.56312	44.5485
5.55716	44.6868
5.55121	44.7229
5.54528	44.7475
5.53935	44.8286
5.53344	44.8799
5.52754	45.0287
5.52166	45.1746
5.51578	45.2011
5.50992	45.217
5.50407	45.318
5.49823	45.3631
5.49241	45.4181
5.4866	45.514
5.4808	45.7383
5.47501	45.8361
5.46923	45.8953
5.46347	45.9648
5.45772	45.8967
5.45198	45.8311
5.44625	45.8883
5.44054	45.9876
5.43484	46.0357
5.42914	46.1383
5.42347	46.4036
5.4178	46.409
5.41214	46.258
5.4065	46.1867
5.40087	46.2172
5.39525	46.222
5.38964	46.2239
5.38404	46.2925
5.37846	46.334
5.37288	46.3348
5.36732	46.3744
5.36177	46.4249
5.35623	46.5598
5.35071	46.6879
5.34519	46.5973
5.33968	46.5823
5.33419	46.6985
5.32871	46.7136
5.32324	46.6668
5.31778	46.611
5.31233	46.6229
5.30689	46.6604
5.30147	46.714
5.29605	46.8219
5.29065	46.988
5.28525	46.9483
5.27987	46.9358
5.2745	46.9715
5.26914	46.9877
5.26379	47.044
5.25845	47.1122
5.25312	47.1518
5.24781	47.2604
5.2425	47.3217
5.23721	47.3474
5.23192	47.2791
5.22665	47.3172
5.22138	47.4293
5.21613	47.5224
5.21089	47.5184
5.20566	47.4427
5.20044	47.4941
5.19522	47.4913
5.19002	47.4993
5.18483	47.538
5.17965	47.5322
5.17448	47.528
5.16933	47.542
5.16418	47.622
5.15904	47.638
5.15391	47.5887
5.14879	47.5995
5.14368	47.5957
5.13859	47.5397
5.1335	47.5047
5.12842	47.5906
5.12335	47.7215
5.1183	47.781
5.11325	47.7248
5.10821	47.6712
5.10318	47.6886
5.09817	47.7033
5.09316	47.7072
5.08816	47.7226
5.08317	47.768
5.07819	47.7474
5.07322	47.7372
5.06826	47.7772
5.06331	47.8265
5.05837	47.8752
5.05344	47.8242
5.04852	47.7808
5.04361	47.7883
5.03871	47.7863
5.03382	47.7856
5.02894	47.8044
5.02406	47.8943
5.0192	47.9271
5.01435	47.8956
5.0095	47.878
5.00467	47.8817
4.99984	47.8332
4.99502	47.8137
4.99021	47.8588
4.98542	47.9157
4.98063	47.9253
4.97585	47.972
4.97108	47.9883
4.96632	47.9162
4.96156	47.9875
4.95682	48.0764
4.95209	48.0592
4.94736	48.0633
4.94264	48.0863
4.93794	48.1028
4.93324	48.1333
4.92855	48.1265
4.92387	48.0652
4.9192	48.1251
4.91453	48.2271
4.90988	48.2837
4.90524	48.3038
4.9006	48.3256
4.89597	48.3366
4.89135	48.3596
4.88674	48.36
4.88214	48.3611
4.87755	48.3822
4.87296	48.3631
4.86839	48.4055
4.86382	48.4582
4.85926	48.4841
4.85471	48.5322
4.85017	48.5348
4.84564	48.5153
4.84111	48.4957
4.8366	48.5509
4.83209	48.5606
4.82759	48.5301
4.8231	48.5534
4.81862	48.5841
4.81415	48.612
4.80968	48.6737
4.80522	48.7031
4.80077	48.7548
4.79633	48.7392
4.7919	48.6623
4.78747	48.6134
4.78306	48.6508
4.77865	48.7244
4.77425	48.7611
4.76986	48.7317
4.76547	48.7552
4.7611	48.8134
4.75673	48.8619
4.75237	48.8911
4.74802	48.9134
4.74367	48.8276
4.73934	48.8329
4.73501	48.9403
4.73069	48.9908
4.72638	48.9929
4.72207	48.9679
4.71777	48.9509
4.71348	48.9846
4.7092	49.0719
4.70493	49.1331
4.70066	49.1171
4.69641	49.1372
4.69216	49.1293
4.68791	49.1196
4.68368	49.1395
4.67945	49.1479
4.67523	49.185
4.67102	49.1949
4.66682	49.2517
4.66262	49.2857
4.65843	49.2586
4.65425	49.2612
4.65007	49.2601
4.64591	49.2534
4.64175	49.2537
4.6376	49.2693
4.63345	49.2731
4.62932	49.3373
4.62519	49.3527
4.62106	49.3125
4.61695	49.3497
4.61284	49.4357
4.60874	49.458
4.60465	49.4637
4.60056	49.4592
4.59648	49.4733
4.59241	49.5239
4.58835	49.5836
4.58429	49.599
4.58024	49.6234
4.5762	49.6347
4.57216	49.5568
4.56814	49.5377
4.56411	49.6101
4.5601	49.6371
4.55609	49.6522
4.55209	49.6525
4.5481	49.6964
4.54411	49.7166
4.54013	49.7603
4.53616	49.7702
4.5322	49.7518
4.52824	49.7644
4.52429	49.8432
4.52034	49.9323
4.51641	49.9373
4.51247	49.9027
4.50855	49.8622
4.50463	49.8814
4.50072	49.8922
4.49682	49.8952
4.49292	49.9213
4.48903	49.9126
4.48515	49.9356
4.48127	49.966
4.4774	49.9754
4.47354	50.0159
4.46968	50.0731
4.46584	50.1044
4.46199	50.1325
4.45815	50.124
4.45432	50.125
4.4505	50.1276
4.44668	50.1125
4.44287	50.1004
4.43907	50.1585
4.43527	50.2182
4.43148	50.2511
4.4277	50.1802
4.42392	50.1861
4.42015	50.2188
4.41638	50.2101
4.41262	50.276
4.40887	50.2968
4.40513	50.2553
4.40139	50.2542
4.39765	50.3049
4.39393	50.338
4.39021	50.3179
4.38649	50.3278
4.38278	50.3648
4.37908	50.3913
4.37539	50.3847
4.3717	50.3832
4.36801	50.3802
4.36434	50.3844
4.36067	50.4717
4.357	50.5005
4.35335	50.4642
4.34969	50.4172
4.34605	50.3483
4.34241	50.3085
4.33877	50.3974
4.33514	50.466
4.33152	50.4268
4.32791	50.3892
4.3243	50.3376
4.32069	50.2844
4.3171	50.3246
4.31351	50.3113
4.30992	50.2724
4.30634	50.2599
4.30277	50.2991
4.2992	50.3086
4.29564	50.2416
4.29208	50.1488
4.28853	50.1586
4.28499	50.1527
4.28145	50.0983
4.27792	50.1013
4.27439	50.1831
4.27087	50.2378
4.26735	50.2673
4.26384	50.2825
4.26034	50.3129
4.25684	50.446
4.25335	50.4641
4.24986	50.306
4.24638	50.1837
4.24291	50.1156
4.23944	50.0803
4.23598	50.0843
4.23252	50.0878
4.22906	50.1914
4.22562	50.2642
4.22218	50.2888
4.21874	50.3579
4.21531	50.4257
4.21189	50.5578
4.20847	50.6834
4.20506	50.6918
4.20165	50.6823
4.19825	50.6775
4.19485	50.7279
4.19146	50.7935
4.18807	50.8149
4.18469	50.8438
4.18132	50.8241
4.17795	50.8486
4.17458	50.9224
4.17123	50.9724
4.16787	50.9576
4.16453	50.9115
4.16118	50.886
4.15785	50.8978
4.15451	50.8763
4.15119	50.8753
4.14787	50.8759
4.14455	50.8671
4.14124	50.8851
4.13794	50.9332
4.13464	50.9436
4.13134	50.9633
4.12805	50.9579
4.12477	50.914
4.12149	50.9499
4.11822	50.9811
4.11495	51.047
4.11168	51.04
4.10843	50.9848
4.10517	50.9956
4.10192	50.9856
4.09868	50.9629
4.09545	50.992
4.09221	51.0248
4.08899	51.039
4.08576	50.9937
4.08255	50.9429
4.07933	50.938
4.07613	51.0197
4.07292	51.0262
4.06973	50.9835
4.06654	50.9545
4.06335	50.9517
4.06017	50.9698
4.05699	50.9949
4.05382	50.9577
4.05065	50.8965
4.04749	50.9145
4.04433	50.9333
4.04118	50.9236
4.03803	50.9735
4.03489	50.9908
4.03175	50.9428
4.02862	50.914
4.02549	50.9794
4.02237	51.0337
4.01925	51.0196
4.01614	50.9647
4.01303	50.9901
4.00993	50.9795
4.00683	50.9557
4.00373	50.9354
4.00064	50.8755
3.99756	50.8639
3.99448	50.927
3.9914	50.941
3.98833	50.9234
3.98527	50.9524
3.98221	50.9602
3.97915	50.8901
3.9761	50.8486
3.97305	50.8566
3.97001	50.8991
3.96697	50.8968
3.96394	50.8576
3.96091	50.8271
3.95789	50.8377
3.95487	50.8463
3.95186	50.8562
3.94885	50.8043
3.94584	50.7933
3.94284	50.7766
3.93984	50.761
3.93685	50.7794
3.93386	50.7919
3.93088	50.8028
3.9279	50.8471
3.92493	50.8046
3.92196	50.7145
3.919	50.6703
3.91604	50.6796
3.91308	50.7559
3.91013	50.6676
3.90718	50.5441
3.90424	50.6172
3.9013	50.644
3.89837	50.5737
3.89544	50.543
3.89252	50.6048
3.8896	50.5586
3.88668	50.4861
3.88377	50.5482
3.88086	50.6108
3.87796	50.6085
3.87506	50.5767
3.87217	50.5594
3.86928	50.5174
3.86639	50.449
3.86351	50.4664
3.86064	50.4685
3.85776	50.3763
3.8549	50.3178
3.85203	50.2902
3.84917	50.3235
3.84631	50.386
3.84346	50.3809
3.84062	50.3234
3.83777	50.2646
3.83494	50.2427
3.8321	50.2042
3.82927	50.2351
3.82644	50.2337
3.82362	50.2014
3.82081	50.1424
3.81799	50.1065
3.81518	50.1518
3.81238	50.1881
3.80958	50.1307
3.80678	50.0743
3.80399	50.0154
3.8012	49.9639
3.79841	49.9488
3.79563	49.9274
3.79286	49.9339
3.79008	49.9432
3.78731	49.9085
3.78455	49.8478
3.78179	49.8514
3.77903	49.8574
3.77628	49.8266
3.77353	49.7892
3.77079	49.701
3.76805	49.6699
3.76531	49.7609
3.76258	49.7673
3.75985	49.7081
3.75713	49.6669
3.7544	49.5568
3.75169	49.5091
3.74898	49.4936
3.74627	49.4944
3.74356	49.5086
3.74086	49.4534
3.73816	49.4218
3.73547	49.3737
3.73278	49.3457
3.7301	49.3484
3.72741	49.3412
3.72474	49.3064
3.72206	49.2294
3.71939	49.2231
3.71673	49.1771
3.71406	49.12
3.71141	49.1276
3.70875	49.1019
3.7061	49.0733
3.70345	49.0699
3.70081	49.0075
3.69817	48.9443
3.69553	48.9456
3.6929	48.896
3.69027	48.8561
3.68765	48.9005
3.68503	48.932
3.68241	48.82
3.6798	48.7261
3.67719	48.6207
3.67458	48.621
3.67198	48.68
3.66938	48.5963
3.66678	48.4958
3.66419	48.504
3.66161	48.5091
3.65902	48.4912
3.65644	48.4575
3.65387	48.4565
3.65129	48.3757
3.64872	48.2927
3.64616	48.2351
3.64359	48.2634
3.64103	48.2528
3.63848	48.1699
3.63593	48.0294
3.63338	47.9246
3.63084	47.9528
3.6283	47.9553
3.62576	47.9123
3.62322	47.9744
3.62069	47.9537
3.61817	47.895
3.61564	47.8017
3.61312	47.7566
3.61061	47.7386
3.6081	47.7051
3.60559	47.6951
3.60308	47.6349
3.60058	47.5467
3.59808	47.4589
3.59558	47.4362
3.59309	47.4511
3.59061	47.4271
3.58812	47.3526
3.58564	47.2446
3.58316	47.1939
3.58069	47.1953
3.57822	47.1968
3.57575	47.1414
3.57328	47.0392
3.57082	47.0245
3.56836	46.9779
3.56591	46.9263
3.56346	46.8769
3.56101	46.7745
3.55857	46.7857
3.55613	46.742
3.55369	46.6671
3.55126	46.6249
3.54883	46.5647
3.5464	46.4947
3.54397	46.4453
3.54155	46.4079
3.53914	46.4026
3.53672	46.3434
3.53431	46.2472
3.5319	46.1569
3.5295	46.0672
3.5271	46.0049
3.5247	45.9422
3.52231	45.9057
3.51991	45.8836
3.51753	45.7144
3.51514	45.5856
3.51276	45.5025
3.51038	45.388
3.50801	45.3321
3.50563	45.2415
3.50327	45.098
3.5009	44.9983
3.49854	44.9514
3.49618	44.9526
3.49382	44.9258
3.49147	44.9798
3.48912	45.0441
3.48677	44.988
3.48443	44.9981
3.48209	44.9689
3.47975	44.8789
3.47742	44.845
3.47509	44.752
3.47276	44.7042
3.47044	44.6815
3.46812	44.6438
3.4658	44.6259
3.46348	44.5472
3.46117	44.4958
3.45886	44.408
3.45656	44.3194
3.45425	44.3039
3.45195	44.2963
3.44966	44.2494
3.44736	44.166
3.44507	44.1003
3.44279	43.9765
3.4405	43.8466
3.43822	43.8157
3.43594	43.7431
3.43367	43.5405
3.43139	43.4101
3.42912	43.3429
3.42686	43.2262
3.42459	43.0463
3.42233	42.9401
3.42007	42.9027
3.41782	42.7351
3.41557	42.6247
3.41332	42.7478
3.41108	42.8603
3.40883	42.8527
3.40659	42.7974
3.40435	42.7388
3.40212	42.7607
3.39989	42.8018
3.39766	42.6572
3.39544	42.5725
3.39322	42.6267
3.391	42.6358
3.38878	42.5301
3.38657	42.4158
3.38436	42.3233
3.38215	42.2736
3.37994	42.2855
3.37774	42.232
3.37554	42.138
3.37335	42.0461
3.37115	42.0355
3.36896	42.0161
3.36678	41.991
3.36459	41.9339
3.36241	41.93
3.36023	41.9248
3.35805	41.8846
3.35588	41.8645
3.35371	41.7848
3.35154	41.7746
3.34938	41.7457
3.34721	41.7332
3.34505	41.664
3.3429	41.5863
3.34074	41.5874
3.33859	41.5247
3.33644	41.3859
3.3343	41.2752
3.33215	41.2321
3.33001	41.2203
3.32788	41.1696
3.32574	41.0708
3.32361	40.9498
3.32148	40.8348
3.31936	40.7789
3.31723	40.8053
3.31511	40.8527
3.31299	40.8323
3.31088	40.7247
3.30876	40.5847
3.30665	40.4218
3.30455	40.3229
3.30244	40.2808
3.30034	40.2293
3.29824	40.1506
3.29614	40.0446
3.29405	40.0385
3.29196	40.0133
3.28987	39.9759
3.28778	39.9048
3.2857	39.8807
3.28362	39.8412
3.28154	39.7235
3.27946	39.6096
3.27739	39.5196
3.27532	39.4486
3.27325	39.3474
3.27119	39.2952
3.26913	39.2423
3.26707	39.1686
3.26501	39.1122
3.26295	39.1308
3.2609	39.0705
3.25885	38.8541
3.2568	38.6779
3.25476	38.6257
3.25272	38.5674
3.25068	38.5345
3.24864	38.4517
3.24661	38.3821
3.24458	38.3392
3.24255	38.3124
3.24052	38.3201
3.2385	38.1985
3.23648	38.066
3.23446	38.0365
3.23244	38.0081
3.23043	37.9305
3.22841	37.7951
3.2264	37.6594
3.2244	37.571
3.22239	37.5915
3.22039	37.5547
3.21839	37.5101
3.2164	37.3623
3.2144	37.2829
3.21241	37.233
3.21042	37.1206
3.20844	37.0354
3.20645	36.9125
3.20447	36.8489
3.20249	36.8669
3.20051	36.758
3.19854	36.6372
3.19657	36.5664
3.1946	36.5015
3.19263	36.4139
3.19067	36.3688
3.1887	36.1952
3.18674	36.0524
3.18479	35.9811
3.18283	35.8439
3.18088	35.82
3.17893	35.7899
3.17698	35.7158
3.17504	35.6466
3.17309	35.5459
3.17115	35.3899
3.16921	35.3449
3.16728	35.3421
3.16534	35.2212
3.16341	35.1147
3.16148	35.1024
3.15956	35.0379
3.15763	34.8598
3.15571	34.7553
3.15379	34.6329
3.15187	34.4874
3.14996	34.4099
3.14805	34.3871
3.14614	34.2935
3.14423	34.2019
3.14232	34.2053
3.14042	34.1582
3.13852	34.0838
3.13662	33.9351
3.13472	33.8787
3.13283	33.7889
3.13094	33.701
3.12905	33.7082
3.12716	33.6257
3.12528	33.4677
3.12339	33.2787
3.12151	33.2146
3.11964	33.1476
3.11776	33.0466
3.11589	32.9126
3.11401	32.8394
3.11214	32.8243
3.11028	32.7475
3.10841	32.6656
3.10655	32.6449
3.10469	32.524
3.10283	32.3947
3.10098	32.412
3.09912	32.3398
3.09727	32.2246
3.09542	32.1225
3.09358	31.9815
3.09173	31.9153
3.08989	31.8372
3.08805	31.7253
3.08621	31.6484
3.08437	31.6741
3.08254	31.6364
3.08071	31.476
3.07888	31.3831
3.07705	31.2997
3.07523	31.2146
3.0734	31.2267
3.07158	31.2135
3.06977	30.9978
3.06795	30.8385
3.06613	30.8001
3.06432	30.8068
3.06251	30.7161
3.0607	30.6224
3.0589	30.5807
3.0571	30.4933
3.05529	30.3502
3.05349	30.2181
3.0517	30.1201
3.0499	30.0328
3.04811	29.9709
3.04632	29.9071
3.04453	29.7889
3.04274	29.8111
3.04096	29.7872
3.03918	29.6116
3.0374	29.4534
3.03562	29.4214
3.03384	29.3638
3.03207	29.2226
3.03029	29.0773
3.02852	29.0006
3.02676	28.9928
3.02499	28.9084
3.02323	28.8217
3.02146	28.8459
3.0197	28.8262
3.01795	28.6648
3.01619	28.4859
3.01444	28.4275
3.01269	28.3992
3.01094	28.3412
3.00919	28.2698
3.00744	28.174
3.0057	28.0998
3.00396	28.0496
3.00222	27.9999
3.00048	27.9319
2.99875	27.8754
2.99701	27.7236
2.99528	27.627
2.99355	27.5688
2.99183	27.4619
2.9901	27.3182
2.98838	27.3435
2.98666	27.3659
2.98494	27.2752
2.98322	27.1679
2.9815	27.0539
2.97979	26.9674
2.97808	26.9989
2.97637	26.9441
2.97466	26.8183
2.97295	26.8014
2.97125	26.639
2.96955	26.5972
2.96785	26.6062
2.96615	26.596
2.96446	26.5538
2.96276	26.5118
2.96107	26.4839
2.95938	26.3893
2.95769	26.4262
2.95601	26.3488
2.95432	26.2212
2.95264	26.3062
2.95096	26.3859
2.94928	26.3604
2.9476	26.4045
2.94593	26.433
2.94425	26.4447
2.94258	26.541
2.94092	26.5907
2.93925	26.5548
2.93758	26.691
2.93592	26.7918
2.93426	26.8322
2.9326	26.8954
2.93094	26.9922
2.92928	27.0807
2.92763	27.1583
2.92598	27.1414
2.92433	27.1756
2.92268	27.3892
2.92103	27.5281
2.91939	27.569
2.91775	27.6221
2.9161	27.7262
2.91447	27.9194
2.91283	28.12
2.91119	28.191
2.90956	28.3158
2.90793	28.5017
2.9063	28.6822
2.90467	28.9651
2.90304	29.1507
2.90142	29.1906
2.89979	29.2976
2.89817	29.3318
2.89656	29.3837
2.89494	29.5936
2.89332	29.901
2.89171	30.141
2.8901	30.2527
2.88849	30.3982
2.88688	30.6674
2.88527	30.9229
2.88367	31.068
2.88206	31.2269
2.88046	31.3747
2.87886	31.5704
2.87727	31.7081
2.87567	31.8477
2.87408	32.0443
2.87248	32.3381
2.87089	32.4821
2.8693	32.5681
2.86772	32.7965
2.86613	32.9853
2.86455	33.0967
2.86297	33.2245
2.86139	33.4054
2.85981	33.5729
2.85823	33.7714
2.85666	33.9118
2.85508	34.032
2.85351	34.1961
2.85194	34.338
2.85038	34.5142
2.84881	34.6822
2.84724	34.7436
2.84568	34.8154
2.84412	35.083
2.84256	35.4378
2.841	35.3976
2.83945	35.3551
2.83789	35.5619
2.83634	35.714
2.83479	35.9527
2.83324	35.9953
2.83169	36.1322
2.83015	36.472
2.82861	36.6197
2.82706	36.672
2.82552	36.7496
2.82398	36.9334
2.82245	37.1633
2.82091	37.4294
2.81938	37.6163
2.81784	37.7135
2.81631	37.9324
2.81479	38.0214
2.81326	38.0828
2.81173	38.3511
2.81021	38.5653
2.80869	38.7381
2.80716	38.9529
2.80565	39.1996
2.80413	39.4678
2.80261	39.6896
2.8011	39.7443
2.79959	39.8005
2.79808	39.9017
2.79657	40.1543
2.79506	40.4626
2.79355	40.7306
2.79205	40.8777
2.79055	40.9473
2.78904	41.0684
2.78754	41.3853
2.78605	41.537
2.78455	41.3861
2.78306	41.2962
2.78156	41.6442
2.78007	42.1166
2.77858	42.3176
2.77709	42.182
2.77561	42.2501
2.77412	42.5604
2.77264	42.674
2.77116	42.782
2.76968	42.8033
2.7682	42.7503
2.76672	42.7778
2.76524	42.8938
2.76377	43.0467
2.7623	43.0073
2.76083	42.8929
2.75936	42.8776
2.75789	43.0533
2.75642	43.6403
2.75496	43.9859
2.7535	43.7422
2.75203	43.741
2.75057	43.9504
2.74912	44.1992
2.74766	44.3926
2.7462	44.5206
2.74475	44.6205
2.7433	44.7556
2.74185	45.1845
2.7404	45.4766
2.73895	45.4241
2.7375	45.1162
2.73606	45.1657
2.73462	45.4503
2.73318	45.4273
2.73174	45.4005
2.7303	45.4646
2.72886	45.5635
2.72742	45.7391
2.72599	46.0419
2.72456	46.3187
2.72313	46.2128
2.7217	46.4164
2.72027	46.5831
2.71884	46.179
2.71742	46.018
2.71599	45.9958
2.71457	45.9233
2.71315	45.9503
2.71173	46.2452
2.71032	46.1567
2.7089	45.8384
2.70748	45.6852
2.70607	45.7388
2.70466	45.6544
2.70325	45.6741
2.70184	45.8476
2.70043	45.9761
2.69903	46.1132
2.69762	46.3231
2.69622	46.6471
2.69482	47.2739
2.69342	47.6197
2.69202	47.5272
2.69062	47.5455
2.68923	47.6312
2.68783	47.8556
2.68644	48.1264
2.68505	48.2696
2.68366	48.3025
2.68227	48.2521
2.68089	48.2728
2.6795	48.5529
2.67812	48.5593
2.67673	48.5826
2.67535	48.4737
2.67397	48.3452
2.6726	48.3952
2.67122	49.0641
2.66984	49.1529
2.66847	48.8064
2.6671	49.117
2.66572	49.2491
2.66435	49.0752
2.66299	48.7236
2.66162	48.7203
2.66025	48.7518
2.65889	48.6337
2.65753	48.412
2.65616	48.4948
2.65481	48.538
2.65345	48.6749
2.65209	48.6454
2.65073	48.4988
2.64938	48.4732
2.64803	48.5256
2.64667	48.5808
2.64532	48.6186
2.64397	48.4834
2.64263	48.4428
2.64128	48.4897
2.63994	48.4457
2.63859	48.3261
2.63725	48.4051
2.63591	48.4521
2.63457	48.5649
2.63323	48.5664
2.6319	48.6243
2.63056	48.8582
2.62923	48.608
2.62789	48.5858
2.62656	48.7463
2.62523	48.5681
2.6239	48.5038
2.62258	48.4517
2.62125	48.6776
2.61993	48.7349
2.6186	48.5333
2.61728	48.7789
2.61596	48.6851
2.61464	48.3832
2.61332	48.422
2.61201	48.467
2.61069	48.5209
2.60938	48.5651
2.60807	48.527
2.60675	48.6354
2.60544	48.6645
2.60414	48.4857
2.60283	48.5536
2.60152	48.4772
2.60022	48.2233
2.59891	48.3667
2.59761	48.563
2.59631	48.8644
2.59501	49.3699
2.59371	48.9338
2.59242	48.3974
2.59112	48.2804
2.58983	48.3241
2.58853	48.3888
2.58724	48.3637
2.58595	48.2476
2.58466	48.4246
2.58338	48.4272
2.58209	48.2703
2.5808	48.291
2.57952	48.1006
2.57824	48.2233
2.57695	48.4383
2.57567	48.2628
2.5744	48.162
2.57312	48.2431
2.57184	48.0542
2.57057	48.1685
2.56929	48.381
2.56802	48.2861
2.56675	48.012
2.56548	48.0779
2.56421	48.2492
2.56294	48.2811
2.56168	48.2364
2.56041	48.1651
2.55915	47.9688
2.55789	47.7922
2.55662	47.8581
2.55536	47.9262
2.5541	47.9662
2.55285	47.963
2.55159	47.8621
2.55034	47.9377
2.54908	47.952
2.54783	47.8929
2.54658	47.8557
2.54533	47.8471
2.54408	47.9142
2.54283	48.0119
2.54159	47.9314
2.54034	47.6845
2.5391	47.6349
2.53785	47.701
2.53661	47.7835
2.53537	47.7976
2.53413	47.7713
2.53289	47.739
2.53166	47.7429
2.53042	47.6944
2.52919	47.5868
2.52795	47.6599
2.52672	47.7225
2.52549	47.6662
2.52426	47.6111
2.52303	47.6332
2.52181	47.5658
2.52058	47.4808
2.51936	47.424
2.51813	47.4727
2.51691	47.5596
2.51569	47.5828
2.51447	47.5217
2.51325	47.4358
2.51203	47.4678
2.51082	47.5959
2.5096	47.5283
2.50839	47.416
2.50717	47.3506
2.50596	47.3008
2.50475	47.3106
2.50354	47.3998
2.50233	47.3616
2.50113	47.2747
2.49992	47.3532
2.49872	47.4237
2.49751	47.3903
2.49631	47.3294
2.49511	47.3425
2.49391	47.3115
2.49271	47.27
2.49151	47.2626
2.49031	47.2057
2.48912	47.1777
2.48792	47.1486
2.48673	47.0838
2.48554	47.1257
2.48435	47.1521
2.48316	47.0953
2.48197	47.1254
2.48078	47.1874
2.4796	47.1921
2.47841	47.1705
2.47723	47.0869
2.47604	47.038
2.47486	46.9598
2.47368	46.9357
2.4725	46.9524
2.47132	46.9677
2.47014	47.0332
2.46897	47.1135
2.46779	46.9774
2.46662	46.8688
2.46545	46.914
2.46427	46.851
2.4631	46.8178
2.46193	46.8354
2.46077	46.8609
2.4596	46.9593
2.45843	46.9008
2.45727	46.7788
2.4561	46.7962
2.45494	46.8334
2.45378	46.9014
2.45262	46.8987
2.45146	46.7492
2.4503	46.6718
2.44914	46.6713
2.44799	46.6879
2.44683	46.7064
2.44568	46.6276
2.44452	46.6824
2.44337	46.6467
2.44222	46.5961
2.44107	46.6421
2.43992	46.6532
2.43877	46.6685
2.43763	46.6305
2.43648	46.5138
2.43534	46.515
2.43419	46.5667
2.43305	46.5232
2.43191	46.4062
2.43077	46.2981
2.42963	46.3264
2.42849	46.4595
2.42736	46.5983
2.42622	46.4788
2.42509	46.2861
2.42395	46.2326
2.42282	46.269
2.42169	46.2671
2.42056	46.2288
2.41943	46.172
2.4183	46.2211
2.41717	46.2773
2.41605	46.2771
2.41492	46.2364
2.4138	46.194
2.41267	46.2153
2.41155	46.0861
2.41043	46.0469
2.40931	46.1994
2.40819	46.3098
2.40707	46.2564
2.40595	46.1471
2.40484	46.0399
2.40372	46.0371
2.40261	46.1412
2.4015	46.1691
2.40039	46.1193
2.39928	46.0162
2.39817	46.0249
2.39706	46.0539
2.39595	45.9106
2.39484	45.7585
2.39374	45.7914
2.39263	45.8424
2.39153	45.8679
2.39043	45.9329
2.38932	46.0291
2.38822	45.9717
2.38712	45.7885
2.38603	45.7844
2.38493	45.8409
2.38383	45.8042
2.38274	45.7752
2.38164	45.718
2.38055	45.7366
2.37946	45.7856
2.37836	45.7513
2.37727	45.5918
2.37618	45.4778
2.3751	45.5191
2.37401	45.6062
2.37292	45.6084
2.37184	45.5861
2.37075	45.539
2.36967	45.4725
2.36859	45.399
2.3675	45.4076
2.36642	45.5599
2.36534	45.6367
2.36427	45.6035
2.36319	45.5117
2.36211	45.4141
2.36104	45.4194
2.35996	45.3721
2.35889	45.3157
2.35781	45.3209
2.35674	45.4359
2.35567	45.3505
2.3546	45.1704
2.35353	45.1602
2.35247	45.2389
2.3514	45.3169
2.35033	45.3443
2.34927	45.353
2.3482	45.2373
2.34714	45.0646
2.34608	45.1114
2.34502	45.2688
2.34396	45.2527
2.3429	45.1654
2.34184	45.0225
2.34078	44.8693
2.33973	44.9564
2.33867	44.9955
2.33762	44.9291
2.33656	44.9267
2.33551	45.0061
2.33446	44.9841
2.33341	45.0051
2.33236	44.944
2.33131	44.7723
2.33026	44.7514
2.32922	44.8769
2.32817	44.9423
2.32712	44.9057
2.32608	44.8836
2.32504	44.8943
2.324	44.8092
2.32295	44.6994
2.32191	44.73
2.32087	44.6873
2.31984	44.6519
2.3188	44.6052
2.31776	44.5309
2.31673	44.5543
2.31569	44.5551
2.31466	44.4941
2.31362	44.4829
2.31259	44.5938
2.31156	44.5691
2.31053	44.4082
2.3095	44.3937
2.30847	44.4074
2.30745	44.3739
2.30642	44.402
2.3054	44.4805
2.30437	44.4774
2.30335	44.4303
2.30232	44.2978
2.3013	44.1122
2.30028	44.0493
2.29926	44.1181
2.29824	44.3098
2.29722	44.2985
2.29621	44.1951
2.29519	44.1832
2.29417	44.1825
2.29316	44.2138
2.29215	44.2003
2.29113	44.0292
2.29012	43.9369
2.28911	43.907
2.2881	43.8967
2.28709	44.0062
2.28608	44.1604
2.28507	44.1017
2.28407	44.04
2.28306	43.9839
2.28206	43.8727
2.28105	43.8569
2.28005	43.9031
2.27905	43.8696
2.27805	43.6984
2.27705	43.6916
2.27605	43.7907
2.27505	43.8021
2.27405	43.8426
2.27305	43.8508
2.27206	43.7152
2.27106	43.6516
2.27007	43.6781
2.26907	43.628
2.26808	43.5125
2.26709	43.517
2.2661	43.5338
2.26511	43.5612
2.26412	43.5251
2.26313	43.5641
2.26214	43.4912
2.26116	43.4233
2.26017	43.6054
2.25919	43.6071
2.2582	43.5072
2.25722	43.398
2.25624	43.3264
2.25526	43.3114
2.25428	43.3195
2.2533	43.3143
2.25232	43.35
2.25134	43.3232
2.25036	43.1094
2.24939	43.0961
2.24841	43.2529
2.24744	43.2481
2.24646	43.22
2.24549	43.2042
2.24452	43.1388
2.24355	43.0529
2.24257	42.9972
2.24161	42.9478
2.24064	42.9594
2.23967	42.9712
2.2387	42.9401
2.23774	42.856
2.23677	42.8321
2.23581	42.7327
2.23484	42.7385
2.23388	42.9272
2.23292	42.9764
2.23196	42.9172
2.231	42.9181
2.23004	42.9153
2.22908	42.9317
2.22812	42.7739
2.22716	42.6001
2.22621	42.625
2.22525	42.7355
2.2243	42.8154
2.22334	42.7444
2.22239	42.6376
2.22144	42.7158
2.22049	42.6383
2.21953	42.6826
2.21859	42.6629
2.21764	42.5346
2.21669	42.482
2.21574	42.4308
2.21479	42.398
2.21385	42.4674
2.2129	42.5802
2.21196	42.4695
2.21102	42.3463
2.21007	42.3151
2.20913	42.2619
2.20819	42.2847
2.20725	42.2694
2.20631	42.2697
2.20537	42.3335
2.20444	42.2155
2.2035	42.249
2.20256	42.2502
2.20163	42.1458
2.20069	41.9606
2.19976	41.8002
2.19883	42.0123
2.19789	42.0322
2.19696	41.9241
2.19603	41.9738
2.1951	41.9903
2.19417	41.9306
2.19325	41.8891
2.19232	41.8786
2.19139	41.9928
2.19047	42.0413
2.18954	41.945
2.18862	41.811
2.18769	41.7031
2.18677	41.6238
2.18585	41.6147
2.18493	41.5518
2.18401	41.5136
2.18309	41.6379
2.18217	41.6654
2.18125	41.4971
2.18033	41.2964
2.17942	41.4447
2.1785	41.6288
2.17759	41.5023
2.17667	41.5469
2.17576	41.5876
2.17485	41.524
2.17393	41.5266
2.17302	41.5326
2.17211	41.3875
2.1712	41.2913
2.17029	41.1401
2.16939	41.1961
2.16848	41.3624
2.16757	41.4273
2.16667	41.2452
2.16576	41.0544
2.16486	40.9162
2.16395	40.8271
2.16305	40.8837
2.16215	41.0419
2.16125	40.9625
2.16035	40.9195
2.15945	41.0637
2.15855	41.1445
2.15765	41.0713
2.15675	40.9679
2.15586	40.9242
2.15496	40.9023
2.15406	40.896
2.15317	40.9155
2.15228	40.681
2.15138	40.8156
2.15049	40.8107
2.1496	40.6711
2.14871	40.7021
2.14782	40.5535
2.14693	40.5272
2.14604	40.6316
2.14515	40.4025
2.14427	40.1862
2.14338	40.2955
2.14249	40.4154
2.14161	40.3174
2.14072	40.3997
2.13984	40.3622
2.13896	40.2916
2.13808	40.2247
2.13719	40.3628
2.13631	40.4196
2.13543	40.3261
2.13455	40.2241
2.13368	40.2106
2.1328	40.2929
2.13192	40.292
2.13105	40.2948
2.13017	40.0876
2.1293	39.8327
2.12842	39.7918
2.12755	39.8662
2.12668	39.9205
2.1258	40.0447
2.12493	40.0348
2.12406	39.881
2.12319	39.8371
2.12232	39.7394
2.12145	39.723
2.12059	39.8578
2.11972	39.7248
2.11885	39.5397
2.11799	39.6055
2.11712	39.6665
2.11626	39.5521
2.1154	39.6419
2.11453	39.6777
2.11367	39.6951
2.11281	39.4846
2.11195	39.3969
2.11109	39.5408
2.11023	39.5805
2.10937	39.2479
2.10851	39.1215
2.10766	39.176
2.1068	39.3202
2.10594	39.3002
2.10509	39.2772
2.10423	39.1008
2.10338	39.0896
2.10253	39.0957
2.10168	39.1816
2.10082	39.3627
2.09997	39.2369
2.09912	39.0458
2.09827	39.1877
2.09742	39.0801
2.09658	38.7294
2.09573	38.7821
2.09488	38.9128
2.09404	38.9154
2.09319	38.8949
2.09235	39.0308
2.0915	39.0058
2.09066	38.9832
2.08982	39.0201
2.08897	38.9284
2.08813	38.8988
2.08729	38.8429
2.08645	38.6613
2.08561	38.4815
2.08477	38.4855
2.08394	38.4351
2.0831	38.3323
2.08226	38.2925
2.08143	38.5845
2.08059	38.7991
2.07976	38.7048
2.07892	38.2265
2.07809	38.1897
2.07726	38.2109
2.07643	37.9752
2.07559	37.8823
2.07476	38.2464
2.07393	38.2822
2.0731	38.3026
2.07228	38.291
2.07145	38.1359
2.07062	37.7663
2.06979	37.7569
2.06897	37.9277
2.06814	37.7357
2.06732	37.8146
2.06649	38.0539
2.06567	38.1637
2.06485	38.0503
2.06403	37.7397
2.0632	37.4569
2.06238	37.7041
2.06156	37.8017
2.06074	37.7099
2.05993	37.846
2.05911	37.8868
2.05829	37.8546
2.05747	37.7211
2.05666	37.4012
2.05584	37.3046
2.05503	37.3907
2.05421	37.5754
2.0534	37.4978
2.05259	37.2605
2.05177	37.1808
2.05096	37.279
2.05015	37.3096
2.04934	37.2752
2.04853	37.2764
2.04772	37.2611
2.04691	37.0974
2.04611	37.0121
2.0453	37.0089
2.04449	36.8062
2.04369	36.8466
2.04288	37.0373
2.04208	37.1117
2.04127	37.0306
2.04047	36.9296
2.03967	36.8816
2.03886	36.7649
2.03806	36.801
2.03726	36.7439
2.03646	36.7697
2.03566	36.863
2.03486	36.7759
2.03407	36.6511
2.03327	36.7444
2.03247	36.6847
2.03167	36.7224
2.03088	36.8714
2.03008	36.7584
2.02929	36.7438
2.0285	36.6458
2.0277	36.4217
2.02691	36.4192
2.02612	36.248
2.02533	36.1297
2.02453	36.198
2.02374	36.3305
2.02295	36.3439
2.02217	36.1398
2.02138	36.0228
2.02059	35.9433
2.0198	36.0477
2.01902	36.293
2.01823	36.2921
2.01744	36.1241
2.01666	36.2194
2.01588	36.0404
2.01509	35.7688
2.01431	35.6775
2.01353	35.7734
2.01275	35.702
2.01196	35.7685
2.01118	35.7675
2.0104	35.6476
2.00963	35.6676
2.00885	35.6863
2.00807	35.7256
2.00729	35.5023
2.00651	35.4238
2.00574	35.4825
2.00496	35.3654
2.00419	35.3405
2.00341	35.4513
2.00264	35.645
2.00187	35.6039
2.00109	35.5165
2.00032	35.5485
