Name: Biotite K(Mg,Fe^2+)_3(Al,Fe^3+)Si_3O_10(OH,F)_2
Type: Mineral
Class: Silicates
Subclass: Phyllosilicates
Particle Size: 0-45um
Sample No.: PS-23A
Owner: JPL
Wavelength range: IR
Origin: 
Collected by JPL
Description: 





Measurement: Hemispherical reflectance
First Column: X
Second Column: Y
X Units:  Wavelength (micrometers)
Y Units:  Reflectance (percent)
First X Value: 15.3853
Last X Value: 2.00032
Number of X Values: 2256
Additional information: ps23aa.txt
 
15.3853	1.4599
15.3397	1.53045
15.2945	1.66825
15.2495	1.55083
15.2048	1.39251
15.1603	1.53402
15.1161	1.59699
15.0722	1.60479
15.0285	1.52226
14.9851	1.2454
14.9419	1.22178
14.8989	1.42619
14.8563	1.84051
14.8138	2.06674
14.7716	1.82744
14.7296	1.82823
14.6879	1.83603
14.6464	1.78958
14.6052	1.91081
14.5641	2.09233
14.5233	2.02373
14.4828	1.94263
14.4424	2.06743
14.4023	2.16615
14.3624	2.00367
14.3227	1.93271
14.2833	2.20069
14.244	2.43856
14.205	2.24048
14.1662	1.96255
14.1276	2.0327
14.0892	2.33706
14.051	2.35204
14.0131	2.09816
13.9753	1.96134
13.9377	1.99839
13.9004	2.09569
13.8632	2.00757
13.8262	1.81747
13.7895	1.93535
13.7529	1.98599
13.7165	1.82415
13.6803	1.81515
13.6443	2.10951
13.6085	2.27151
13.5729	2.12959
13.5374	2.08419
13.5022	2.35991
13.4671	2.31173
13.4322	2.24076
13.3975	2.37786
13.363	2.43872
13.3286	2.56976
13.2944	2.64266
13.2604	2.66632
13.2266	2.70686
13.193	2.66523
13.1595	2.70592
13.1262	2.86807
13.093	2.97734
13.06	3.02469
13.0272	3.27019
12.9946	3.49475
12.9621	3.65461
12.9298	3.66914
12.8976	3.64581
12.8656	3.72065
12.8337	4.03315
12.8021	4.17559
12.7705	4.21375
12.7391	4.43485
12.7079	4.55366
12.6769	4.55947
12.6459	4.79259
12.6152	5.09847
12.5845	5.36313
12.5541	5.63062
12.5238	5.90773
12.4936	6.32411
12.4635	6.67066
12.4337	6.94449
12.4039	7.18102
12.3743	7.37788
12.3448	7.73867
12.3155	8.16656
12.2863	8.5306
12.2573	8.97633
12.2284	9.32266
12.1996	9.54037
12.171	9.81901
12.1425	10.0286
12.1141	10.0632
12.0859	10.0064
12.0578	9.98958
12.0298	10.0313
12.0019	10.1326
11.9742	10.128
11.9466	9.9844
11.9192	9.87415
11.8918	9.80145
11.8646	9.6157
11.8375	9.31741
11.8106	9.19279
11.7837	9.2379
11.757	9.20898
11.7304	9.11714
11.7039	9.00738
11.6776	8.94496
11.6513	8.89449
11.6252	8.90204
11.5992	8.79077
11.5733	8.67393
11.5475	8.4772
11.5219	8.3304
11.4963	8.34344
11.4709	8.50354
11.4455	8.53898
11.4203	8.45037
11.3952	8.53435
11.3702	8.52258
11.3454	8.34061
11.3206	8.21993
11.2959	8.16623
11.2714	8.16727
11.2469	8.19137
11.2226	8.20603
11.1983	8.28979
11.1742	8.21566
11.1502	8.12185
11.1263	8.08367
11.1024	8.05171
11.0787	7.97218
11.0551	7.98213
11.0316	7.95188
11.0081	7.88869
10.9848	7.90341
10.9616	7.82364
10.9385	7.79676
10.9154	7.88441
10.8925	7.95222
10.8697	7.86071
10.8469	7.84784
10.8243	7.83825
10.8017	7.80296
10.7793	7.89419
10.7569	8.00468
10.7346	7.97694
10.7125	7.89753
10.6904	7.91888
10.6684	7.97177
10.6465	8.05575
10.6247	8.03674
10.6029	8.00584
10.5813	7.89105
10.5597	7.7572
10.5383	7.74345
10.5169	7.77721
10.4956	7.70906
10.4744	7.61476
10.4533	7.60276
10.4323	7.5459
10.4113	7.38224
10.3904	7.28021
10.3697	7.38937
10.349	7.445
10.3284	7.31395
10.3078	7.23528
10.2874	7.27797
10.267	7.35455
10.2467	7.37021
10.2265	7.33564
10.2064	7.25912
10.1863	7.23366
10.1663	7.35225
10.1464	7.45035
10.1266	7.62631
10.1069	7.9279
10.0872	8.14286
10.0676	8.29964
10.0481	8.52694
10.0287	8.91195
10.0093	9.21128
9.99005	9.48314
9.97084	9.92166
9.95169	10.2111
9.93263	10.4699
9.91364	10.7527
9.89472	11.0922
9.87587	11.3312
9.8571	11.421
9.83839	11.4486
9.81976	11.3261
9.80119	11.1219
9.78271	10.8653
9.76428	10.7184
9.74592	10.506
9.72764	10.0695
9.70943	9.71652
9.69128	9.40295
9.6732	9.13805
9.65518	8.884
9.63724	8.60922
9.61935	8.33486
9.60155	8.10198
9.5838	7.76285
9.56611	7.48761
9.5485	7.36397
9.53094	7.21651
9.51345	7.08299
9.49604	6.79059
9.47867	6.47539
9.46137	6.36772
9.44414	6.36345
9.42697	6.4035
9.40986	6.29195
9.39281	6.26346
9.37583	6.18493
9.35891	5.93472
9.34204	5.80755
9.32524	5.89508
9.3085	5.8889
9.29182	5.7302
9.27519	5.57746
9.25863	5.54608
9.24213	5.50799
9.22568	5.41869
9.2093	5.36566
9.19297	5.27256
9.17669	5.10892
9.16048	4.91097
9.14433	4.70116
9.12823	4.55968
9.11218	4.44757
9.0962	4.36268
9.08027	4.29847
9.06439	4.14891
9.04858	3.91209
9.03281	3.79641
9.0171	3.71582
9.00145	3.6223
8.98585	3.58572
8.9703	3.40797
8.9548	3.30168
8.93937	3.26276
8.92398	3.16962
8.90865	2.98428
8.89337	2.84665
8.87814	2.64489
8.86296	2.54794
8.84784	2.44861
8.83277	2.36901
8.81774	2.27017
8.80277	2.12045
8.78786	1.94543
8.77298	1.95642
8.75816	1.98436
8.7434	1.90017
8.72868	1.97401
8.714	1.93447
8.69938	1.95897
8.68481	2.05938
8.67029	1.86288
8.65581	1.7108
8.64139	1.75355
8.62701	1.80429
8.61268	1.87612
8.5984	1.96306
8.58416	2.04342
8.56997	2.25065
8.55583	2.45011
8.54174	2.50429
8.52769	2.46972
8.51368	2.62914
8.49973	2.90719
8.48582	3.11495
8.47195	3.22414
8.45813	3.37277
8.44436	3.56952
8.43062	3.65806
8.41693	3.85591
8.4033	4.10189
8.3897	4.26658
8.37614	4.54822
8.36264	4.78233
8.34917	4.9577
8.33574	5.13233
8.32236	5.28948
8.30903	5.39525
8.29573	5.62025
8.28248	5.86734
8.26927	6.18207
8.2561	6.54026
8.24298	6.66434
8.2299	6.9045
8.21685	7.30359
8.20385	7.36145
8.19089	7.39164
8.17797	7.68091
8.16509	8.00122
8.15225	8.14341
8.13946	8.28286
8.1267	8.42151
8.11398	8.65799
8.10131	8.94523
8.08867	9.14501
8.07606	9.28423
8.0635	9.3778
8.05099	9.56015
8.0385	9.73433
8.02606	10.0209
8.01366	10.2688
8.00129	10.3689
7.98896	10.4467
7.97667	10.6164
7.96442	10.9067
7.9522	11.1136
7.94002	11.2185
7.92788	11.3322
7.91578	11.4429
7.90371	11.5691
7.89168	11.7567
7.87969	11.9754
7.86773	12.1427
7.85581	12.2767
7.84392	12.3983
7.83207	12.6059
7.82026	12.7663
7.80849	12.8572
7.79674	13.0106
7.78503	13.1737
7.77337	13.199
7.76173	13.2805
7.75012	13.5267
7.73856	13.6975
7.72703	13.7893
7.71553	13.9047
7.70406	13.9556
7.69263	14.0472
7.68123	14.1989
7.66987	14.3535
7.65855	14.4486
7.64725	14.6136
7.63598	14.8534
7.62475	15.1608
7.61356	15.3867
7.60239	15.5598
7.59126	15.7493
7.58017	15.9435
7.5691	16.1598
7.55806	16.4089
7.54707	16.5955
7.5361	16.7801
7.52516	16.9652
7.51425	17.0645
7.50338	17.1679
7.49253	17.3329
7.48172	17.4489
7.47094	17.6074
7.46019	17.8105
7.44947	17.8843
7.43879	18.0313
7.42813	18.2235
7.4175	18.3687
7.4069	18.4185
7.39634	18.4801
7.3858	18.5986
7.37529	18.6942
7.36482	18.71
7.35437	18.7352
7.34396	18.8287
7.33357	19.0156
7.32321	19.1482
7.31288	19.2581
7.30258	19.3599
7.29231	19.5273
7.28207	19.8178
7.27185	20.1021
7.26167	20.3152
7.25152	20.5534
7.24139	20.7557
7.23129	20.9664
7.22122	21.2159
7.21117	21.5811
7.20116	21.81
7.19117	21.9226
7.18121	22.1505
7.17128	22.3494
7.16137	22.5297
7.1515	22.7011
7.14164	22.8504
7.13182	22.9747
7.12203	23.1379
7.11225	23.3439
7.10251	23.5175
7.0928	23.7811
7.08311	23.9673
7.07344	24.0581
7.06381	24.2233
7.0542	24.5892
7.04461	24.936
7.03506	25.0144
7.02552	25.1118
7.01601	25.2453
7.00653	25.427
6.99708	25.6627
6.98765	25.8955
6.97824	26.1855
6.96886	26.5194
6.95951	26.84
6.95018	26.7889
6.94087	26.7303
6.9316	26.821
6.92234	27.0384
6.91311	27.2645
6.90391	27.3986
6.89473	27.4479
6.88557	27.5981
6.87644	27.8453
6.86733	28.4221
6.85824	28.5547
6.84918	28.221
6.84015	28.1209
6.83114	28.2882
6.82215	28.3531
6.81319	28.3419
6.80424	28.5985
6.79532	28.9854
6.78643	29.1921
6.77756	29.2877
6.76871	29.3777
6.75989	29.5052
6.75109	29.5923
6.74231	29.6191
6.73355	29.7833
6.72482	30.0067
6.71611	30.157
6.70742	30.1404
6.69875	30.0765
6.69011	30.2032
6.68149	30.4741
6.67289	30.5118
6.66431	30.3499
6.65576	30.2214
6.64722	30.5878
6.63871	31.1484
6.63022	30.893
6.62175	30.4506
6.61331	30.3549
6.60488	30.3066
6.59648	30.3838
6.5881	30.446
6.57974	30.6133
6.5714	30.7634
6.56308	30.4302
6.55478	30.2064
6.54651	29.9671
6.53825	29.7891
6.53001	29.7723
6.5218	29.8407
6.51361	29.621
6.50544	29.6408
6.49729	30.1175
6.48915	30.0642
6.48104	29.5521
6.47295	29.2207
6.46488	28.9581
6.45683	28.8021
6.4488	28.687
6.44079	28.637
6.4328	28.7045
6.42482	28.874
6.41687	29.3571
6.40894	29.0931
6.40103	28.2924
6.39314	27.9986
6.38526	27.8683
6.37741	27.8474
6.36957	27.8215
6.36176	27.5119
6.35396	27.4471
6.34618	27.6705
6.33843	27.3494
6.33069	26.86
6.32297	26.7081
6.31527	26.6132
6.30758	26.5424
6.29992	26.3618
6.29227	26.195
6.28465	26.0378
6.27704	25.9331
6.26945	25.8525
6.26188	25.7231
6.25432	25.5385
6.24679	25.3211
6.23927	25.1957
6.23177	25.148
6.22429	25.0407
6.21683	24.9111
6.20938	24.7452
6.20195	24.5932
6.19454	24.6566
6.18715	24.836
6.17978	24.611
6.17242	24.3433
6.16508	24.3293
6.15776	24.2673
6.15045	24.1413
6.14317	24.1348
6.1359	24.1144
6.12864	24.0856
6.12141	24.3255
6.11419	24.7018
6.10699	24.4993
6.0998	24.2892
6.09263	24.4102
6.08549	24.5997
6.07835	24.8886
6.07123	25.1443
6.06413	25.1238
6.05705	25.4613
6.04998	26.2295
6.04293	26.0063
6.0359	25.4844
6.02888	25.4551
6.02187	25.6476
6.01489	25.9285
6.00792	26.0214
6.00096	26.0612
5.99403	26.3193
5.98711	26.5272
5.9802	26.4932
5.97331	26.6787
5.96644	26.8757
5.95958	26.7852
5.95274	26.8987
5.94591	27.0922
5.9391	27.5711
5.9323	27.5559
5.92552	27.2109
5.91876	27.1995
5.91201	27.2152
5.90528	27.3108
5.89856	27.7183
5.89186	27.7007
5.88517	27.859
5.8785	27.9285
5.87184	27.4315
5.8652	27.4065
5.85857	27.3998
5.85196	27.3508
5.84536	27.4215
5.83878	27.669
5.83221	28.0164
5.82566	28.3678
5.81912	28.481
5.81259	28.3216
5.80608	28.3523
5.79959	28.4724
5.79311	28.5622
5.78665	28.754
5.78019	28.9675
5.77376	29.3947
5.76734	29.9341
5.76093	29.7455
5.75453	29.5565
5.74815	29.7452
5.74179	29.7734
5.73543	29.7877
5.7291	29.9002
5.72277	30.1034
5.71646	30.3138
5.71017	30.4991
5.70389	30.4757
5.69762	30.5244
5.69136	30.6493
5.68513	30.6986
5.6789	30.915
5.67268	31.0267
5.66648	31.019
5.6603	31.2659
5.65413	31.4914
5.64797	31.7511
5.64182	32.075
5.63569	31.9832
5.62957	31.9073
5.62347	31.9883
5.61737	32.1335
5.61129	32.2419
5.60522	32.3625
5.59917	32.4997
5.59313	32.5889
5.5871	32.779
5.58109	33.0348
5.57509	33.0821
5.5691	33.0606
5.56312	33.2026
5.55716	33.3805
5.55121	33.5088
5.54528	33.5716
5.53935	33.7519
5.53344	33.9421
5.52754	34.1056
5.52166	34.2387
5.51578	34.3653
5.50992	34.5289
5.50407	34.7242
5.49823	34.9412
5.49241	35.1656
5.4866	35.4245
5.4808	35.7181
5.47501	35.8738
5.46923	36.1122
5.46347	36.3969
5.45772	36.534
5.45198	36.7271
5.44625	36.9684
5.44054	37.1905
5.43484	37.4149
5.42914	37.7713
5.42347	38.2215
5.4178	38.37
5.41214	38.4229
5.4065	38.6343
5.40087	38.8659
5.39525	38.9704
5.38964	39.0917
5.38404	39.2837
5.37846	39.5282
5.37288	39.7726
5.36732	39.9785
5.36177	40.2565
5.35623	40.5458
5.35071	40.7614
5.34519	40.8655
5.33968	40.9905
5.33419	41.1902
5.32871	41.4144
5.32324	41.6291
5.31778	41.8161
5.31233	42.0029
5.30689	42.1386
5.30147	42.2814
5.29605	42.4861
5.29065	42.6678
5.28525	42.7483
5.27987	42.9423
5.2745	43.074
5.26914	43.0846
5.26379	43.1739
5.25845	43.3641
5.25312	43.5946
5.24781	43.7536
5.2425	43.7964
5.23721	43.9169
5.23192	43.9934
5.22665	44.0285
5.22138	44.1104
5.21613	44.2198
5.21089	44.2584
5.20566	44.2954
5.20044	44.3086
5.19522	44.3052
5.19002	44.3199
5.18483	44.3762
5.17965	44.4067
5.17448	44.4399
5.16933	44.4572
5.16418	44.4365
5.15904	44.3979
5.15391	44.4342
5.14879	44.5043
5.14368	44.4566
5.13859	44.3542
5.1335	44.2896
5.12842	44.2343
5.12335	44.227
5.1183	44.2683
5.11325	44.2356
5.10821	44.121
5.10318	44.1019
5.09817	44.079
5.09316	44.0568
5.08816	43.9967
5.08317	43.9679
5.07819	43.9563
5.07322	43.91
5.06826	43.8831
5.06331	43.8735
5.05837	43.8633
5.05344	43.8704
5.04852	43.8226
5.04361	43.8557
5.03871	43.8976
5.03382	43.9351
5.02894	43.9676
5.02406	44.0101
5.0192	44.1363
5.01435	44.1417
5.0095	44.0779
5.00467	44.15
4.99984	44.2196
4.99502	44.2716
4.99021	44.3637
4.98542	44.4374
4.98063	44.4433
4.97585	44.4444
4.97108	44.4108
4.96632	44.4341
4.96156	44.5254
4.95682	44.6424
4.95209	44.6848
4.94736	44.6529
4.94264	44.6537
4.93794	44.6093
4.93324	44.61
4.92855	44.6855
4.92387	44.654
4.9192	44.5543
4.91453	44.588
4.90988	44.7206
4.90524	44.775
4.9006	44.8038
4.89597	44.861
4.89135	44.8557
4.88674	44.8855
4.88214	44.9581
4.87755	44.9992
4.87296	45.0945
4.86839	45.2151
4.86382	45.2689
4.85926	45.3165
4.85471	45.399
4.85017	45.463
4.84564	45.4668
4.84111	45.5068
4.8366	45.624
4.83209	45.7626
4.82759	45.8841
4.8231	45.984
4.81862	46.1065
4.81415	46.137
4.80968	46.2502
4.80522	46.4473
4.80077	46.5292
4.79633	46.5957
4.7919	46.6793
4.78747	46.8123
4.78306	46.9929
4.77865	47.131
4.77425	47.2975
4.76986	47.4826
4.76547	47.6004
4.7611	47.7021
4.75673	47.8271
4.75237	47.9787
4.74802	48.083
4.74367	48.2047
4.73934	48.3695
4.73501	48.5002
4.73069	48.6188
4.72638	48.7084
4.72207	48.758
4.71777	48.9033
4.71348	49.0263
4.7092	49.0645
4.70493	49.1728
4.70066	49.2537
4.69641	49.4131
4.69216	49.562
4.68791	49.6241
4.68368	49.639
4.67945	49.7321
4.67523	49.871
4.67102	49.9281
4.66682	50.0369
4.66262	50.1553
4.65843	50.263
4.65425	50.4319
4.65007	50.4935
4.64591	50.5344
4.64175	50.6158
4.6376	50.7414
4.63345	50.8729
4.62932	50.9822
4.62519	51.0671
4.62106	51.0667
4.61695	51.1733
4.61284	51.3418
4.60874	51.479
4.60465	51.5887
4.60056	51.685
4.59648	51.7035
4.59241	51.7429
4.58835	51.7786
4.58429	51.8264
4.58024	51.9798
4.5762	52.108
4.57216	52.1878
4.56814	52.2633
4.56411	52.3819
4.5601	52.4433
4.55609	52.4829
4.55209	52.5479
4.5481	52.6192
4.54411	52.674
4.54013	52.7328
4.53616	52.6801
4.5322	52.7009
4.52824	52.8078
4.52429	52.8579
4.52034	52.8417
4.51641	52.9051
4.51247	52.9756
4.50855	52.9536
4.50463	52.9312
4.50072	52.9609
4.49682	52.9808
4.49292	53.013
4.48903	53.0672
4.48515	53.092
4.48127	53.1677
4.4774	53.2193
4.47354	53.2078
4.46968	53.2206
4.46584	53.2349
4.46199	53.1924
4.45815	53.2809
4.45432	53.3649
4.4505	53.3179
4.44668	53.3044
4.44287	53.2973
4.43907	53.3527
4.43527	53.4036
4.43148	53.3798
4.4277	53.3431
4.42392	53.406
4.42015	53.4899
4.41638	53.5551
4.41262	53.5877
4.40887	53.5829
4.40513	53.5655
4.40139	53.6439
4.39765	53.6853
4.39393	53.6767
4.39021	53.6582
4.38649	53.6762
4.38278	53.6854
4.37908	53.6667
4.37539	53.7059
4.3717	53.7938
4.36801	53.7963
4.36434	53.7561
4.36067	53.7765
4.357	53.8004
4.35335	53.8465
4.34969	53.8132
4.34605	53.8015
4.34241	53.8744
4.33877	53.8758
4.33514	53.9109
4.33152	53.988
4.32791	53.9311
4.3243	53.9171
4.32069	53.9638
4.3171	53.9237
4.31351	53.9334
4.30992	53.9598
4.30634	53.9731
4.30277	53.9048
4.2992	53.8812
4.29564	53.9178
4.29208	53.9235
4.28853	53.9223
4.28499	53.9502
4.28145	53.9621
4.27792	53.892
4.27439	53.8613
4.27087	53.9028
4.26735	53.9179
4.26384	53.9977
4.26034	54.1153
4.25684	54.24
4.25335	54.2357
4.24986	54.181
4.24638	54.1093
4.24291	54.0422
4.23944	54.0348
4.23598	54.0577
4.23252	54.0916
4.22906	54.1999
4.22562	54.2275
4.22218	54.2288
4.21874	54.2838
4.21531	54.2691
4.21189	54.2296
4.20847	54.3469
4.20506	54.5058
4.20165	54.5444
4.19825	54.549
4.19485	54.4781
4.19146	54.4659
4.18807	54.5343
4.18469	54.5311
4.18132	54.5212
4.17795	54.5272
4.17458	54.5215
4.17123	54.5417
4.16787	54.5349
4.16453	54.6099
4.16118	54.6725
4.15785	54.6502
4.15451	54.611
4.15119	54.627
4.14787	54.6979
4.14455	54.7163
4.14124	54.7062
4.13794	54.705
4.13464	54.7136
4.13134	54.6454
4.12805	54.6783
4.12477	54.7381
4.12149	54.6584
4.11822	54.6587
4.11495	54.7242
4.11168	54.833
4.10843	54.8656
4.10517	54.8165
4.10192	54.8361
4.09868	54.8758
4.09545	54.9445
4.09221	54.9303
4.08899	54.8853
4.08576	54.8674
4.08255	54.8785
4.07933	54.891
4.07613	54.9158
4.07292	54.9183
4.06973	54.9891
4.06654	55.0353
4.06335	54.9886
4.06017	54.9895
4.05699	55.0049
4.05382	55.0152
4.05065	55.0512
4.04749	55.0636
4.04433	55.0576
4.04118	55.01
4.03803	55.0291
4.03489	55.0725
4.03175	55.1075
4.02862	55.1086
4.02549	55.1333
4.02237	55.1649
4.01925	55.1384
4.01614	55.1523
4.01303	55.2119
4.00993	55.1781
4.00683	55.1257
4.00373	55.1312
4.00064	55.2305
3.99756	55.3064
3.99448	55.3077
3.9914	55.2968
3.98833	55.2367
3.98527	55.1681
3.98221	55.1829
3.97915	55.2368
3.9761	55.315
3.97305	55.3842
3.97001	55.4196
3.96697	55.3869
3.96394	55.3729
3.96091	55.3611
3.95789	55.3647
3.95487	55.3863
3.95186	55.3854
3.94885	55.4035
3.94584	55.4402
3.94284	55.4682
3.93984	55.4697
3.93685	55.4642
3.93386	55.474
3.93088	55.5174
3.9279	55.4868
3.92493	55.4398
3.92196	55.4553
3.919	55.4825
3.91604	55.5319
3.91308	55.5555
3.91013	55.4805
3.90718	55.4797
3.90424	55.4759
3.9013	55.4386
3.89837	55.4869
3.89544	55.4581
3.89252	55.4461
3.8896	55.4658
3.88668	55.5233
3.88377	55.5526
3.88086	55.4973
3.87796	55.4688
3.87506	55.4557
3.87217	55.4289
3.86928	55.4894
3.86639	55.5356
3.86351	55.4609
3.86064	55.4478
3.85776	55.4736
3.8549	55.3974
3.85203	55.3791
3.84917	55.36
3.84631	55.409
3.84346	55.4569
3.84062	55.416
3.83777	55.3359
3.83494	55.3742
3.8321	55.3324
3.82927	55.2498
3.82644	55.2536
3.82362	55.2143
3.82081	55.2152
3.81799	55.2397
3.81518	55.224
3.81238	55.2127
3.80958	55.2223
3.80678	55.1903
3.80399	55.1425
3.8012	55.1606
3.79841	55.1607
3.79563	55.1227
3.79286	55.1302
3.79008	55.0928
3.78731	55.0701
3.78455	55.0321
3.78179	55.0255
3.77903	55.0451
3.77628	54.9912
3.77353	54.9525
3.77079	55.0033
3.76805	54.9697
3.76531	54.9009
3.76258	54.9071
3.75985	54.8938
3.75713	54.9083
3.7544	54.9014
3.75169	54.8368
3.74898	54.8057
3.74627	54.7616
3.74356	54.6626
3.74086	54.693
3.73816	54.7012
3.73547	54.7071
3.73278	54.6891
3.7301	54.6545
3.72741	54.6467
3.72474	54.5705
3.72206	54.4912
3.71939	54.4747
3.71673	54.498
3.71406	54.5036
3.71141	54.4987
3.70875	54.4942
3.7061	54.4729
3.70345	54.4195
3.70081	54.3665
3.69817	54.2978
3.69553	54.3324
3.6929	54.3646
3.69027	54.327
3.68765	54.2956
3.68503	54.2506
3.68241	54.2139
3.6798	54.2259
3.67719	54.1257
3.67458	54.062
3.67198	54.0316
3.66938	54.0002
3.66678	54.0026
3.66419	54.0274
3.66161	53.9787
3.65902	53.877
3.65644	53.8228
3.65387	53.8696
3.65129	53.8882
3.64872	53.8089
3.64616	53.7834
3.64359	53.7745
3.64103	53.7473
3.63848	53.7193
3.63593	53.6901
3.63338	53.6328
3.63084	53.5578
3.6283	53.5908
3.62576	53.5411
3.62322	53.499
3.62069	53.5448
3.61817	53.4726
3.61564	53.4348
3.61312	53.4127
3.61061	53.3616
3.6081	53.2974
3.60559	53.2561
3.60308	53.2363
3.60058	53.2247
3.59808	53.1405
3.59558	53.089
3.59309	53.0257
3.59061	52.901
3.58812	52.8833
3.58564	52.9234
3.58316	52.8698
3.58069	52.7784
3.57822	52.7474
3.57575	52.6814
3.57328	52.6397
3.57082	52.5922
3.56836	52.5625
3.56591	52.4673
3.56346	52.3805
3.56101	52.3518
3.55857	52.2822
3.55613	52.1535
3.55369	52.1394
3.55126	52.1098
3.54883	51.9967
3.5464	51.8986
3.54397	51.7809
3.54155	51.6806
3.53914	51.5819
3.53672	51.3671
3.53431	51.2009
3.5319	51.0585
3.5295	50.8556
3.5271	50.6336
3.5247	50.3839
3.52231	49.9558
3.51991	49.4026
3.51753	48.7669
3.51514	47.8532
3.51276	46.5789
3.51038	45.3411
3.50801	44.8083
3.50563	45.0867
3.50327	45.6465
3.5009	46.1287
3.49854	46.5909
3.49618	47.1507
3.49382	47.6317
3.49147	47.9673
3.48912	48.1659
3.48677	48.2676
3.48443	48.3274
3.48209	48.3173
3.47975	48.3424
3.47742	48.3293
3.47509	48.356
3.47276	48.3791
3.47044	48.3053
3.46812	48.315
3.4658	48.3212
3.46348	48.1744
3.46117	48.0182
3.45886	47.8007
3.45656	47.5706
3.45425	47.4337
3.45195	47.3081
3.44966	47.1441
3.44736	46.9199
3.44507	46.6215
3.44279	46.2702
3.4405	45.9476
3.43822	45.575
3.43594	45.0238
3.43367	44.1504
3.43139	42.9971
3.42912	41.86
3.42686	41.1744
3.42459	40.946
3.42233	41.0321
3.42007	41.1738
3.41782	41.3986
3.41557	41.7998
3.41332	42.3205
3.41108	42.8356
3.40883	43.3423
3.40659	43.8423
3.40435	44.2175
3.40212	44.7334
3.39989	45.2262
3.39766	45.5524
3.39544	45.8128
3.39322	46.0141
3.391	46.096
3.38878	46.0071
3.38657	45.9236
3.38436	45.7669
3.38215	45.6661
3.37994	45.676
3.37774	45.7171
3.37554	45.7859
3.37335	45.8914
3.37115	46.0727
3.36896	46.3555
3.36678	46.5976
3.36459	46.7216
3.36241	46.9454
3.36023	47.0057
3.35805	47.0902
3.35588	47.3152
3.35371	47.3942
3.35154	47.3769
3.34938	47.362
3.34721	47.3329
3.34505	47.3691
3.3429	47.4258
3.34074	47.4086
3.33859	47.4234
3.33644	47.4061
3.3343	47.4666
3.33215	47.4825
3.33001	47.3588
3.32788	47.3236
3.32574	47.3835
3.32361	47.3841
3.32148	47.3255
3.31936	47.2909
3.31723	47.3047
3.31511	47.1934
3.31299	47.08
3.31088	46.9806
3.30876	46.9203
3.30665	46.9281
3.30455	46.934
3.30244	46.8002
3.30034	46.6521
3.29824	46.6125
3.29614	46.6071
3.29405	46.5735
3.29196	46.5313
3.28987	46.4321
3.28778	46.3589
3.2857	46.2632
3.28362	46.0879
3.28154	45.9768
3.27946	45.9375
3.27739	45.9368
3.27532	45.932
3.27325	45.7902
3.27119	45.6499
3.26913	45.5948
3.26707	45.5386
3.26501	45.5018
3.26295	45.534
3.2609	45.4459
3.25885	45.258
3.2568	45.1201
3.25476	45.066
3.25272	45.0451
3.25068	44.9995
3.24864	44.9407
3.24661	44.8799
3.24458	44.8038
3.24255	44.737
3.24052	44.6756
3.2385	44.6789
3.23648	44.6644
3.23446	44.5895
3.23244	44.5351
3.23043	44.4535
3.22841	44.3853
3.2264	44.3698
3.2244	44.2993
3.22239	44.1878
3.22039	44.1499
3.21839	44.0948
3.2164	43.9457
3.2144	43.8225
3.21241	43.8368
3.21042	43.8927
3.20844	43.872
3.20645	43.8353
3.20447	43.8018
3.20249	43.8203
3.20051	43.7123
3.19854	43.5021
3.19657	43.4401
3.1946	43.4754
3.19263	43.4192
3.19067	43.3219
3.1887	43.2319
3.18674	43.2079
3.18479	43.2064
3.18283	43.1929
3.18088	43.1028
3.17893	42.9788
3.17698	43.0365
3.17504	43.0403
3.17309	42.8837
3.17115	42.6965
3.16921	42.6112
3.16728	42.5559
3.16534	42.5654
3.16341	42.4914
3.16148	42.373
3.15956	42.4038
3.15763	42.3943
3.15571	42.2479
3.15379	42.1482
3.15187	42.0193
3.14996	41.8725
3.14805	41.8168
3.14614	41.7632
3.14423	41.7269
3.14232	41.7657
3.14042	41.6923
3.13852	41.5763
3.13662	41.4891
3.13472	41.4238
3.13283	41.3854
3.13094	41.3443
3.12905	41.2623
3.12716	41.1593
3.12528	41.1242
3.12339	41.1446
3.12151	41.0903
3.11964	40.941
3.11776	40.7931
3.11589	40.8061
3.11401	40.793
3.11214	40.6981
3.11028	40.6535
3.10841	40.6069
3.10655	40.6046
3.10469	40.599
3.10283	40.541
3.10098	40.4189
3.09912	40.282
3.09727	40.2139
3.09542	40.0946
3.09358	40.002
3.09173	40.0446
3.08989	40.0528
3.08805	39.9634
3.08621	39.8395
3.08437	39.7823
3.08254	39.896
3.08071	39.9218
3.07888	39.8459
3.07705	39.78
3.07523	39.704
3.0734	39.6434
3.07158	39.5911
3.06977	39.6166
3.06795	39.5776
3.06613	39.4445
3.06432	39.3454
3.06251	39.3416
3.0607	39.4055
3.0589	39.3553
3.0571	39.2903
3.05529	39.1923
3.05349	39.1321
3.0517	39.0808
3.0499	39.0774
3.04811	39.0248
3.04632	38.8926
3.04453	38.8369
3.04274	38.8453
3.04096	38.767
3.03918	38.6851
3.0374	38.6847
3.03562	38.7302
3.03384	38.7447
3.03207	38.637
3.03029	38.5508
3.02852	38.4827
3.02676	38.4005
3.02499	38.4661
3.02323	38.4366
3.02146	38.3792
3.0197	38.3327
3.01795	38.2755
3.01619	38.1507
3.01444	38.1016
3.01269	38.1367
3.01094	38.1551
3.00919	38.0865
3.00744	37.986
3.0057	37.8833
3.00396	37.8479
3.00222	37.826
3.00048	37.7772
2.99875	37.7911
2.99701	37.6758
2.99528	37.4919
2.99355	37.4204
2.99183	37.4582
2.9901	37.4372
2.98838	37.4525
2.98666	37.4593
2.98494	37.3518
2.98322	37.305
2.9815	37.2407
2.97979	37.2148
2.97808	37.2073
2.97637	37.0983
2.97466	36.9978
2.97295	36.8758
2.97125	36.8069
2.96955	36.8024
2.96785	36.7724
2.96615	36.7584
2.96446	36.7415
2.96276	36.743
2.96107	36.7658
2.95938	36.6537
2.95769	36.5975
2.95601	36.6103
2.95432	36.5159
2.95264	36.3495
2.95096	36.339
2.94928	36.3699
2.9476	36.3271
2.94593	36.3478
2.94425	36.3739
2.94258	36.2633
2.94092	36.1641
2.93925	36.1731
2.93758	36.077
2.93592	36.023
2.93426	36.1159
2.9326	36.1341
2.93094	36.1199
2.92928	36.1748
2.92763	36.0437
2.92598	35.8823
2.92433	35.8911
2.92268	35.8902
2.92103	35.8867
2.91939	35.842
2.91775	35.8543
2.9161	35.8372
2.91447	35.8451
2.91283	35.827
2.91119	35.8458
2.90956	36.0367
2.90793	36.1369
2.9063	36.167
2.90467	36.1456
2.90304	35.9975
2.90142	35.8166
2.89979	35.6791
2.89817	35.6864
2.89656	35.8536
2.89494	35.8533
2.89332	35.6984
2.89171	35.7132
2.8901	35.7611
2.88849	35.6682
2.88688	35.5616
2.88527	35.5678
2.88367	35.5177
2.88206	35.3988
2.88046	35.3877
2.87886	35.3406
2.87727	35.3383
2.87567	35.3363
2.87408	35.29
2.87248	35.1421
2.87089	34.9602
2.8693	34.8197
2.86772	34.5979
2.86613	34.3708
2.86455	34.2169
2.86297	34.0363
2.86139	33.9041
2.85981	33.8406
2.85823	33.6594
2.85666	33.3437
2.85508	33.0738
2.85351	32.8358
2.85194	32.456
2.85038	32.2209
2.84881	32.0713
2.84724	31.6878
2.84568	31.3511
2.84412	30.9917
2.84256	30.625
2.841	30.5032
2.83945	30.1968
2.83789	29.7316
2.83634	29.3633
2.83479	28.9566
2.83324	28.4373
2.83169	27.8948
2.83015	27.4956
2.82861	27.1116
2.82706	26.5046
2.82552	25.9847
2.82398	25.5065
2.82245	25.0614
2.82091	24.5999
2.81938	24.1597
2.81784	23.6986
2.81631	23.3612
2.81479	23.1448
2.81326	22.9462
2.81173	22.8072
2.81021	22.7845
2.80869	22.8092
2.80716	22.8651
2.80565	22.8728
2.80413	22.9472
2.80261	23.0231
2.8011	23.0539
2.79959	23.0341
2.79808	22.8987
2.79657	22.8391
2.79506	22.9756
2.79355	22.893
2.79205	22.6844
2.79055	22.4655
2.78904	22.2231
2.78754	22.3661
2.78605	22.3742
2.78455	22.2947
2.78306	22.2646
2.78156	22.3913
2.78007	22.8155
2.77858	23.3532
2.77709	23.7015
2.77561	24.0894
2.77412	24.7619
2.77264	25.2261
2.77116	25.2741
2.76968	25.4283
2.7682	25.7227
2.76672	25.9955
2.76524	26.3538
2.76377	26.7799
2.7623	27.0275
2.76083	27.1855
2.75936	27.4673
2.75789	27.697
2.75642	28.1994
2.75496	28.6384
2.7535	28.4899
2.75203	28.5788
2.75057	28.7192
2.74912	28.7606
2.74766	28.6018
2.7462	28.2618
2.74475	27.9219
2.7433	27.6464
2.74185	27.4844
2.7404	27.34
2.73895	26.9714
2.7375	26.4513
2.73606	26.2336
2.73462	25.9755
2.73318	25.636
2.73174	25.3421
2.7303	24.9846
2.72886	24.8264
2.72742	24.817
2.72599	24.9279
2.72456	25.0497
2.72313	24.8035
2.7217	24.7023
2.72027	24.8036
2.71884	24.5559
2.71742	24.4612
2.71599	24.6524
2.71457	24.9338
2.71315	25.2295
2.71173	25.8784
2.71032	26.47
2.7089	26.6744
2.70748	26.8449
2.70607	27.2363
2.70466	27.8205
2.70325	28.5206
2.70184	29.5065
2.70043	30.4277
2.69903	31.4061
2.69762	32.6402
2.69622	34.1302
2.69482	35.8816
2.69342	37.4538
2.69202	38.8175
2.69062	40.6678
2.68923	42.9779
2.68783	45.3424
2.68644	47.8252
2.68505	50.1076
2.68366	51.9425
2.68227	53.0978
2.68089	53.9022
2.6795	54.7204
2.67812	55.2434
2.67673	55.6227
2.67535	55.3891
2.67397	55.1233
2.6726	55.4126
2.67122	56.3236
2.66984	56.4124
2.66847	55.8726
2.6671	56.3107
2.66572	56.4766
2.66435	55.9619
2.66299	55.3279
2.66162	55.4374
2.66025	55.5365
2.65889	55.453
2.65753	55.2783
2.65616	55.2627
2.65481	55.2624
2.65345	55.4492
2.65209	55.5029
2.65073	55.3565
2.64938	55.2536
2.64803	55.1803
2.64667	55.3558
2.64532	55.3348
2.64397	55.1411
2.64263	55.256
2.64128	55.2174
2.63994	55.1968
2.63859	55.1877
2.63725	55.2074
2.63591	55.2723
2.63457	55.4984
2.63323	55.514
2.6319	55.7431
2.63056	56.1931
2.62923	55.8732
2.62789	55.6591
2.62656	55.7864
2.62523	55.4665
2.6239	55.4238
2.62258	55.656
2.62125	56.1907
2.61993	56.3016
2.6186	55.985
2.61728	56.2904
2.61596	56.244
2.61464	55.8044
2.61332	55.7983
2.61201	55.8562
2.61069	55.9995
2.60938	56.0282
2.60807	56.1457
2.60675	56.6004
2.60544	56.6691
2.60414	56.2725
2.60283	56.1433
2.60152	56.064
2.60022	55.8455
2.59891	55.8358
2.59761	56.1631
2.59631	56.8396
2.59501	57.7551
2.59371	57.1345
2.59242	56.1673
2.59112	55.9591
2.58983	56.033
2.58853	56.1424
2.58724	56.2745
2.58595	56.0749
2.58466	56.3641
2.58338	56.4318
2.58209	56.0251
2.5808	56.0465
2.57952	55.907
2.57824	55.8996
2.57695	56.1264
2.57567	56.0541
2.5744	56.1076
2.57312	56.2892
2.57184	56.0362
2.57057	56.0549
2.56929	55.9781
2.56802	55.7155
2.56675	55.7767
2.56548	56.0891
2.56421	56.2253
2.56294	56.3172
2.56168	56.4712
2.56041	56.2706
2.55915	55.9186
2.55789	55.7848
2.55662	55.7233
2.55536	55.7096
2.5541	55.7976
2.55285	55.8556
2.55159	55.8437
2.55034	55.7101
2.54908	55.6437
2.54783	55.6431
2.54658	55.4747
2.54533	55.4206
2.54408	55.5735
2.54283	55.7027
2.54159	55.6264
2.54034	55.5315
2.5391	55.5432
2.53785	55.5737
2.53661	55.5661
2.53537	55.3916
2.53413	55.4536
2.53289	55.4682
2.53166	55.4501
2.53042	55.3698
2.52919	55.2261
2.52795	55.1806
2.52672	55.3085
2.52549	55.29
2.52426	55.2596
2.52303	55.3253
2.52181	55.2524
2.52058	55.2174
2.51936	55.2268
2.51813	55.1551
2.51691	55.177
2.51569	55.2418
2.51447	55.0606
2.51325	54.9519
2.51203	55.0276
2.51082	55.0808
2.5096	55.0796
2.50839	55.1307
2.50717	55.1244
2.50596	55.054
2.50475	55.0269
2.50354	55.0501
2.50233	55.0593
2.50113	55.085
2.49992	55.0584
2.49872	54.859
2.49751	54.857
2.49631	54.8634
2.49511	54.7561
2.49391	54.8677
2.49271	54.9536
2.49151	54.9724
2.49031	54.9536
2.48912	54.8569
2.48792	54.7714
2.48673	54.7131
2.48554	54.7139
2.48435	54.7415
2.48316	54.829
2.48197	54.8249
2.48078	54.6525
2.4796	54.5368
2.47841	54.5877
2.47723	54.5915
2.47604	54.5685
2.47486	54.5707
2.47368	54.5815
2.4725	54.5734
2.47132	54.5778
2.47014	54.6038
2.46897	54.4908
2.46779	54.4031
2.46662	54.2933
2.46545	54.3221
2.46427	54.3671
2.4631	54.3175
2.46193	54.3115
2.46077	54.1748
2.4596	54.1409
2.45843	54.1903
2.45727	54.1857
2.4561	54.1135
2.45494	54.0602
2.45378	53.9557
2.45262	54.0444
2.45146	54.088
2.4503	53.9384
2.44914	53.8545
2.44799	53.9006
2.44683	53.9195
2.44568	53.8142
2.44452	53.8404
2.44337	53.8424
2.44222	53.856
2.44107	53.8073
2.43992	53.8159
2.43877	53.8408
2.43763	53.7131
2.43648	53.6887
2.43534	53.7751
2.43419	53.6966
2.43305	53.5344
2.43191	53.4697
2.43077	53.4934
2.42963	53.4401
2.42849	53.4045
2.42736	53.5231
2.42622	53.4724
2.42509	53.3025
2.42395	53.138
2.42282	53.1854
2.42169	53.1473
2.42056	53.1121
2.41943	53.0435
2.4183	52.8904
2.41717	52.7926
2.41605	52.9028
2.41492	52.8411
2.4138	52.6049
2.41267	52.7522
2.41155	52.7816
2.41043	52.5844
2.40931	52.5412
2.40819	52.4499
2.40707	52.3455
2.40595	52.2932
2.40484	52.2889
2.40372	52.2929
2.40261	52.238
2.4015	52.3268
2.40039	52.3578
2.39928	52.1971
2.39817	52.0998
2.39706	51.991
2.39595	51.9754
2.39484	52.0564
2.39374	52.0286
2.39263	51.9676
2.39153	51.9441
2.39043	52.0144
2.38932	52.1634
2.38822	52.2255
2.38712	52.1007
2.38603	51.987
2.38493	51.95
2.38383	52.0038
2.38274	52.0577
2.38164	52.0517
2.38055	52.1258
2.37946	52.2285
2.37836	52.2387
2.37727	52.1825
2.37618	52.1603
2.3751	52.1751
2.37401	52.1372
2.37292	52.1871
2.37184	52.1419
2.37075	52.2014
2.36967	52.272
2.36859	52.1964
2.3675	52.1826
2.36642	52.1787
2.36534	52.0568
2.36427	51.9624
2.36319	52.0754
2.36211	52.0387
2.36104	51.889
2.35996	51.6031
2.35889	51.5861
2.35781	51.6473
2.35674	51.5356
2.35567	51.4678
2.3546	51.3539
2.35353	51.2829
2.35247	51.2937
2.3514	51.2507
2.35033	51.2307
2.34927	51.1898
2.3482	51.1088
2.34714	51.0132
2.34608	50.9329
2.34502	50.7993
2.34396	50.8166
2.3429	50.8253
2.34184	50.7375
2.34078	50.6076
2.33973	50.591
2.33867	50.8371
2.33762	50.9551
2.33656	50.7501
2.33551	50.6693
2.33446	50.6079
2.33341	50.6634
2.33236	50.6384
2.33131	50.5384
2.33026	50.5872
2.32922	50.6902
2.32817	50.8271
2.32712	50.8337
2.32608	50.787
2.32504	50.8642
2.324	51.0296
2.32295	51.0737
2.32191	51.1157
2.32087	51.1879
2.31984	51.3466
2.3188	51.3477
2.31776	51.2129
2.31673	51.3325
2.31569	51.5935
2.31466	51.5328
2.31362	51.46
2.31259	51.5665
2.31156	51.6501
2.31053	51.893
2.3095	51.9665
2.30847	51.8844
2.30745	51.8287
2.30642	51.9545
2.3054	52.0725
2.30437	52.1369
2.30335	52.1092
2.30232	52.1557
2.3013	52.2623
2.30028	52.3448
2.29926	52.3235
2.29824	52.1704
2.29722	52.2658
2.29621	52.2612
2.29519	52.2698
2.29417	52.4651
2.29316	52.6101
2.29215	52.6058
2.29113	52.7294
2.29012	52.5919
2.28911	52.5248
2.2881	52.5298
2.28709	52.4861
2.28608	52.5872
2.28507	52.6175
2.28407	52.6452
2.28306	52.6257
2.28206	52.5423
2.28105	52.4744
2.28005	52.5707
2.27905	52.6815
2.27805	52.5498
2.27705	52.5135
2.27605	52.5328
2.27505	52.4088
2.27405	52.346
2.27305	52.2963
2.27206	52.3212
2.27106	52.3853
2.27007	52.3001
2.26907	52.2729
2.26808	52.3356
2.26709	52.2344
2.2661	52.2554
2.26511	52.3239
2.26412	52.1795
2.26313	52.0475
2.26214	51.9936
2.26116	51.8933
2.26017	51.9116
2.25919	51.9663
2.2582	51.8724
2.25722	51.8691
2.25624	51.7709
2.25526	51.6793
2.25428	51.6666
2.2533	51.5937
2.25232	51.6557
2.25134	51.703
2.25036	51.7174
2.24939	51.6652
2.24841	51.7168
2.24744	51.7606
2.24646	51.8276
2.24549	51.8336
2.24452	51.8546
2.24355	51.9481
2.24257	51.9354
2.24161	52.029
2.24064	52.1114
2.23967	52.1303
2.2387	52.103
2.23774	52.2028
2.23677	52.299
2.23581	52.2252
2.23484	52.2761
2.23388	52.3563
2.23292	52.2061
2.23196	52.1297
2.231	52.0577
2.23004	52.1413
2.22908	52.4062
2.22812	52.3825
2.22716	52.316
2.22621	52.2602
2.22525	52.3049
2.2243	52.1496
2.22334	52.1784
2.22239	52.3189
2.22144	52.2757
2.22049	52.206
2.21953	52.168
2.21859	52.0934
2.21764	52.0394
2.21669	52.0771
2.21574	51.9935
2.21479	51.8627
2.21385	51.9772
2.2129	52.1269
2.21196	52.1074
2.21102	51.9895
2.21007	52.0233
2.20913	51.9137
2.20819	51.9278
2.20725	51.8803
2.20631	51.8765
2.20537	51.8984
2.20444	51.8873
2.2035	51.916
2.20256	51.94
2.20163	51.8536
2.20069	51.7631
2.19976	51.6314
2.19883	51.6752
2.19789	51.7484
2.19696	51.8269
2.19603	51.8752
2.1951	51.7401
2.19417	51.645
2.19325	51.6195
2.19232	51.586
2.19139	51.6379
2.19047	51.601
2.18954	51.4312
2.18862	51.3748
2.18769	51.4407
2.18677	51.5275
2.18585	51.5457
2.18493	51.5031
2.18401	51.4089
2.18309	51.3667
2.18217	51.2705
2.18125	51.2123
2.18033	51.2076
2.17942	51.2467
2.1785	51.2991
2.17759	51.3377
2.17667	51.2987
2.17576	51.3138
2.17485	51.3046
2.17393	51.2632
2.17302	51.2171
2.17211	51.1376
2.1712	51.0802
2.17029	50.9947
2.16939	50.8916
2.16848	50.8786
2.16757	50.8851
2.16667	50.9109
2.16576	50.8105
2.16486	50.8069
2.16395	50.8252
2.16305	50.7471
2.16215	50.7322
2.16125	50.6854
2.16035	50.7448
2.15945	50.7064
2.15855	50.6026
2.15765	50.7041
2.15675	50.7457
2.15586	50.5544
2.15496	50.5549
2.15406	50.7141
2.15317	50.6659
2.15228	50.5218
2.15138	50.4852
2.15049	50.5598
2.1496	50.6781
2.14871	50.5682
2.14782	50.4787
2.14693	50.4191
2.14604	50.3524
2.14515	50.3754
2.14427	50.1548
2.14338	50.0723
2.14249	50.1457
2.14161	50.3227
2.14072	50.4907
2.13984	50.3237
2.13896	50.0957
2.13808	49.867
2.13719	49.9031
2.13631	50.0077
2.13543	49.9586
2.13455	50.08
2.13368	50.1803
2.1328	50.0174
2.13192	49.9554
2.13105	50.0108
2.13017	50.061
2.1293	49.9907
2.12842	49.9978
2.12755	49.9308
2.12668	49.8465
2.1258	49.8602
2.12493	49.744
2.12406	49.7494
2.12319	49.7263
2.12232	49.7909
2.12145	49.7441
2.12059	49.7207
2.11972	49.5921
2.11885	49.5485
2.11799	49.7263
2.11712	49.7242
2.11626	49.6185
2.1154	49.4396
2.11453	49.3591
2.11367	49.5843
2.11281	49.4486
2.11195	49.1791
2.11109	49.2906
2.11023	49.4479
2.10937	49.4427
2.10851	49.3632
2.10766	49.3295
2.1068	49.4316
2.10594	49.3354
2.10509	49.0723
2.10423	49.0394
2.10338	49.1832
2.10253	49.2097
2.10168	49.1115
2.10082	48.9136
2.09997	48.6968
2.09912	48.6549
2.09827	48.6921
2.09742	48.7122
2.09658	48.9827
2.09573	49.0746
2.09488	49.3178
2.09404	49.4889
2.09319	49.0864
2.09235	48.5606
2.0915	48.4011
2.09066	48.6133
2.08982	48.6927
2.08897	48.769
2.08813	48.8976
2.08729	48.9831
2.08645	48.9219
2.08561	48.7533
2.08477	48.6139
2.08394	48.3833
2.0831	48.4756
2.08226	48.5128
2.08143	48.4495
2.08059	48.4275
2.07976	48.4983
2.07892	48.4406
2.07809	48.3905
2.07726	48.4712
2.07643	48.488
2.07559	48.7245
2.07476	48.8763
2.07393	48.6999
2.0731	48.5072
2.07228	48.2052
2.07145	48.1339
2.07062	48.0939
2.06979	48.2189
2.06897	48.3847
2.06814	48.1271
2.06732	48.2755
2.06649	48.4484
2.06567	48.1301
2.06485	48.2422
2.06403	48.3983
2.0632	48.112
2.06238	47.6737
2.06156	47.7118
2.06074	48.0485
2.05993	47.8817
2.05911	47.8471
2.05829	47.8095
2.05747	47.9973
2.05666	48.0822
2.05584	47.8772
2.05503	47.7626
2.05421	47.888
2.0534	47.8069
2.05259	47.6648
2.05177	47.4999
2.05096	47.5337
2.05015	47.6399
2.04934	47.4705
2.04853	47.2935
2.04772	47.4679
2.04691	47.5884
2.04611	47.4715
2.0453	47.4721
2.04449	47.584
2.04369	47.425
2.04288	47.2527
2.04208	47.4243
2.04127	47.519
2.04047	47.2599
2.03967	47.2183
2.03886	47.1545
2.03806	47.0618
2.03726	47.0057
2.03646	47.1838
2.03566	47.3356
2.03486	47.1745
2.03407	46.9675
2.03327	46.9524
2.03247	46.911
2.03167	46.9631
2.03088	47.0772
2.03008	46.9558
2.02929	46.7364
2.0285	46.975
2.0277	47.0583
2.02691	46.6706
2.02612	46.7255
2.02533	46.832
2.02453	46.7657
2.02374	46.7682
2.02295	46.6919
2.02217	46.5608
2.02138	46.7694
2.02059	46.8338
2.0198	46.6156
2.01902	46.52
2.01823	46.4409
2.01744	46.2232
2.01666	46.2094
2.01588	46.2834
2.01509	46.3691
2.01431	46.4277
2.01353	46.5266
2.01275	46.4856
2.01196	46.3415
2.01118	46.3296
2.0104	46.3413
2.00963	46.2545
2.00885	46.1668
2.00807	46.052
2.00729	46.1057
2.00651	46.2807
2.00574	46.0428
2.00496	45.8734
2.00419	46.0187
2.00341	46.0384
2.00264	46.0226
2.00187	46.0195
2.00109	45.8448
2.00032	45.8085
