Name: Brass plate
Type: Manmade materials
Class: Reflectance target
Subclass: 
Particle Size: Solid
Sample No.: SN: ILF-17464-2-2
Owner: JPL
Wavelength range: IR
Origin: Labsphere, P.O. Box 70, Shaker Street, North Sutton, NH 03260
(603) 927-4266
Description: Measurement made at bottom center. Field Brass 1.
Measured Oct. 29 1997.




Measurement: Hemispherical Reflectance
First Column: X
Second Column: Y
X Units: Wavelength (micrometers)
Y Units: Reflectence (percent)
First X Value: 15.3853
Last X Value: 2.00032
Number of X Values: 2256
Additional information: None.
 
15.3853	84.5717
15.3397	84.6497
15.2945	84.6241
15.2495	84.5226
15.2048	84.591
15.1603	84.6459
15.1161	84.6663
15.0722	84.677
15.0285	84.397
14.9851	83.9858
14.9419	84.3119
14.8989	84.6207
14.8563	84.5233
14.8138	84.4876
14.7716	84.4633
14.7296	84.4959
14.6879	84.5239
14.6464	84.5027
14.6052	84.5626
14.5641	84.7206
14.5233	84.6475
14.4828	84.4192
14.4424	84.2855
14.4023	84.381
14.3624	84.4428
14.3227	84.3846
14.2833	84.488
14.244	84.6214
14.205	84.5484
14.1662	84.4402
14.1276	84.3179
14.0892	84.1531
14.051	84.0662
14.0131	84.0517
13.9753	84.1064
13.9377	84.2311
13.9004	84.3109
13.8632	84.3084
13.8262	84.4003
13.7895	84.4583
13.7529	84.3965
13.7165	84.376
13.6803	84.4166
13.6443	84.4096
13.6085	84.4646
13.5729	84.6515
13.5374	84.6102
13.5022	84.4786
13.4671	84.5619
13.4322	84.5791
13.3975	84.605
13.363	84.6386
13.3286	84.6143
13.2944	84.5764
13.2604	84.529
13.2266	84.4807
13.193	84.4379
13.1595	84.4802
13.1262	84.4911
13.093	84.4156
13.06	84.2816
13.0272	84.235
12.9946	84.1668
12.9621	84.1407
12.9298	84.0294
12.8976	83.889
12.8656	83.9489
12.8337	84.1055
12.8021	84.0719
12.7705	83.9164
12.7391	83.9375
12.7079	83.9843
12.6769	83.9831
12.6459	84.0211
12.6152	83.9366
12.5845	83.8013
12.5541	83.9366
12.5238	83.9892
12.4936	83.923
12.4635	83.95
12.4337	84.0438
12.4039	84.0916
12.3743	84.2553
12.3448	84.3935
12.3155	84.3359
12.2863	84.3948
12.2573	84.4152
12.2284	84.4643
12.1996	84.5313
12.171	84.5135
12.1425	84.5187
12.1141	84.5867
12.0859	84.5593
12.0578	84.5266
12.0298	84.4725
12.0019	84.4524
11.9742	84.5194
11.9466	84.5554
11.9192	84.5086
11.8918	84.416
11.8646	84.4582
11.8375	84.4603
11.8106	84.2952
11.7837	84.2622
11.757	84.4212
11.7304	84.5082
11.7039	84.5301
11.6776	84.46
11.6513	84.3546
11.6252	84.2356
11.5992	84.1313
11.5733	84.0191
11.5475	83.9288
11.5219	83.745
11.4963	83.372
11.4709	83.1763
11.4455	83.2484
11.4203	83.3258
11.3952	83.3993
11.3702	83.4702
11.3454	83.6584
11.3206	83.8207
11.2959	83.863
11.2714	83.9126
11.2469	83.8761
11.2226	83.8302
11.1983	83.8556
11.1742	83.8317
11.1502	83.777
11.1263	83.6597
11.1024	83.6019
11.0787	83.5826
11.0551	83.6016
11.0316	83.5757
11.0081	83.5043
10.9848	83.3935
10.9616	83.2862
10.9385	83.2803
10.9154	83.3026
10.8925	83.2354
10.8697	83.1631
10.8469	83.1435
10.8243	83.2063
10.8017	83.2276
10.7793	83.2192
10.7569	83.1818
10.7346	83.0861
10.7125	83.1181
10.6904	83.0987
10.6684	83.0422
10.6465	83.0322
10.6247	82.9699
10.6029	82.8277
10.5813	82.7699
10.5597	82.7242
10.5383	82.7339
10.5169	82.7108
10.4956	82.6313
10.4744	82.5887
10.4533	82.5531
10.4323	82.5373
10.4113	82.4517
10.3904	82.3636
10.3697	82.3499
10.349	82.2932
10.3284	82.2735
10.3078	82.3082
10.2874	82.207
10.267	82.1389
10.2467	82.1373
10.2265	82.0449
10.2064	82.0644
10.1863	82.0575
10.1663	81.9337
10.1464	81.8666
10.1266	81.8512
10.1069	81.8879
10.0872	81.8872
10.0676	81.7928
10.0481	81.8101
10.0287	81.7522
10.0093	81.6647
9.99005	81.6999
9.97084	81.6735
9.95169	81.6286
9.93263	81.6033
9.91364	81.6509
9.89472	81.5888
9.87587	81.5484
9.8571	81.5849
9.83839	81.5233
9.81976	81.5282
9.80119	81.5684
9.78271	81.5917
9.76428	81.6613
9.74592	81.7448
9.72764	81.663
9.70943	81.6167
9.69128	81.6945
9.6732	81.5993
9.65518	81.5856
9.63724	81.6857
9.61935	81.6051
9.60155	81.6203
9.5838	81.7808
9.56611	81.7933
9.5485	81.8242
9.53094	81.8594
9.51345	81.8316
9.49604	81.7918
9.47867	81.7519
9.46137	81.8934
9.44414	81.9899
9.42697	81.9041
9.40986	81.8757
9.39281	81.9728
9.37583	82.0608
9.35891	82.1568
9.34204	82.245
9.32524	82.2923
9.3085	82.2919
9.29182	82.3849
9.27519	82.4082
9.25863	82.3266
9.24213	82.3358
9.22568	82.3595
9.2093	82.2994
9.19297	82.3925
9.17669	82.5095
9.16048	82.531
9.14433	82.5765
9.12823	82.6449
9.11218	82.6989
9.0962	82.6605
9.08027	82.6433
9.06439	82.7419
9.04858	82.7959
9.03281	82.7975
9.0171	82.8785
9.00145	82.9897
8.98585	83.0026
8.9703	82.9645
8.9548	82.9848
8.93937	82.9471
8.92398	82.9181
8.90865	82.9914
8.89337	83.0765
8.87814	83.0467
8.86296	83.1082
8.84784	83.1383
8.83277	83.136
8.81774	83.1379
8.80277	83.0862
8.78786	83.14
8.77298	83.2222
8.75816	83.2889
8.7434	83.1231
8.72868	82.9882
8.714	83.1061
8.69938	83.2319
8.68481	83.2891
8.67029	83.2774
8.65581	83.256
8.64139	83.218
8.62701	83.3418
8.61268	83.3602
8.5984	83.2953
8.58416	83.3212
8.56997	83.3733
8.55583	83.5266
8.54174	83.6175
8.52769	83.6012
8.51368	83.6144
8.49973	83.662
8.48582	83.7312
8.47195	83.7738
8.45813	83.7952
8.44436	83.7999
8.43062	83.8868
8.41693	83.9427
8.4033	83.9031
8.3897	84.0008
8.37614	84.1459
8.36264	84.115
8.34917	84.1171
8.33574	84.1546
8.32236	84.2276
8.30903	84.3329
8.29573	84.3288
8.28248	84.2406
8.26927	84.3009
8.2561	84.3428
8.24298	84.37
8.2299	84.5353
8.21685	84.6025
8.20385	84.5927
8.19089	84.5874
8.17797	84.6066
8.16509	84.7029
8.15225	84.7548
8.13946	84.7514
8.1267	84.7866
8.11398	84.8913
8.10131	84.9183
8.08867	84.8282
8.07606	84.8509
8.0635	84.8986
8.05099	84.8847
8.0385	84.8221
8.02606	84.8806
8.01366	85.0593
8.00129	85.0177
7.98896	84.9923
7.97667	85.1311
7.96442	85.2475
7.9522	85.3477
7.94002	85.3665
7.92788	85.3174
7.91578	85.3884
7.90371	85.4675
7.89168	85.5899
7.87969	85.7179
7.86773	85.7796
7.85581	85.7684
7.84392	85.7916
7.83207	85.8257
7.82026	85.9102
7.80849	85.95
7.79674	85.9949
7.78503	86.0112
7.77337	86.0334
7.76173	86.1052
7.75012	86.137
7.73856	86.1066
7.72703	86.0289
7.71553	86.0312
7.70406	86.0923
7.69263	86.1837
7.68123	86.1524
7.66987	86.0923
7.65855	86.0921
7.64725	86.0663
7.63598	86.0947
7.62475	86.1487
7.61356	86.1574
7.60239	86.1318
7.59126	86.165
7.58017	86.1262
7.5691	86.1538
7.55806	86.1806
7.54707	86.1072
7.5361	86.1066
7.52516	86.1473
7.51425	86.1095
7.50338	86.0766
7.49253	86.0689
7.48172	86.1807
7.47094	86.2278
7.46019	86.1217
7.44947	85.9777
7.43879	85.9422
7.42813	85.9278
7.4175	85.8987
7.4069	85.841
7.39634	85.7557
7.3858	85.7078
7.37529	85.6694
7.36482	85.6691
7.35437	85.6451
7.34396	85.6511
7.33357	85.5785
7.32321	85.4114
7.31288	85.3965
7.30258	85.379
7.29231	85.3391
7.28207	85.3593
7.27185	85.3134
7.26167	85.2558
7.25152	85.182
7.24139	85.101
7.23129	85.0942
7.22122	85.1067
7.21117	85.1473
7.20116	85.0512
7.19117	84.9852
7.18121	85.0992
7.17128	85.207
7.16137	85.1424
7.1515	85.1221
7.14164	85.0745
7.13182	85.0206
7.12203	85.0571
7.11225	85.0736
7.10251	84.9983
7.0928	84.9048
7.08311	84.8816
7.07344	84.9683
7.06381	85.0151
7.0542	85.1931
7.04461	85.3752
7.03506	85.2239
7.02552	85.1554
7.01601	85.1091
7.00653	85.0337
6.99708	85.0483
6.98765	84.9963
6.97824	85.0135
6.96886	85.1847
6.95951	85.3257
6.95018	85.1147
6.94087	85.0039
6.9316	85.0014
6.92234	85.0385
6.91311	85.0881
6.90391	85.0942
6.89473	84.9569
6.88557	84.9619
6.87644	85.1342
6.86733	85.5143
6.85824	85.5389
6.84918	85.1444
6.84015	85.0116
6.83114	85.1763
6.82215	85.2226
6.81319	85.0714
6.80424	85.0893
6.79532	85.3352
6.78643	85.407
6.77756	85.2419
6.76871	85.1289
6.75989	85.0707
6.75109	85.1063
6.74231	85.1577
6.73355	85.1844
6.72482	85.312
6.71611	85.4499
6.70742	85.4601
6.69875	85.3214
6.69011	85.4609
6.68149	85.6859
6.67289	85.631
6.66431	85.5332
6.65576	85.5243
6.64722	85.9026
6.63871	86.3931
6.63022	86.199
6.62175	85.9347
6.61331	85.9155
6.60488	85.8888
6.59648	86.0582
6.5881	86.2158
6.57974	86.3785
6.5714	86.5309
6.56308	86.3393
6.55478	86.2718
6.54651	86.1565
6.53825	86.0914
6.53001	86.2229
6.5218	86.4802
6.51361	86.3917
6.50544	86.4783
6.49729	86.9889
6.48915	87.0429
6.48104	86.7351
6.47295	86.5453
6.46488	86.4379
6.45683	86.4367
6.4488	86.5065
6.44079	86.5644
6.4328	86.7194
6.42482	86.931
6.41687	87.3796
6.40894	87.1425
6.40103	86.5012
6.39314	86.3429
6.38526	86.3626
6.37741	86.4553
6.36957	86.5314
6.36176	86.4196
6.35396	86.4499
6.34618	86.6723
6.33843	86.5
6.33069	86.2463
6.32297	86.1628
6.31527	86.1211
6.30758	86.0896
6.29992	86.0591
6.29227	86.0658
6.28465	86.0135
6.27704	85.9947
6.26945	85.9407
6.26188	85.9265
6.25432	85.9901
6.24679	85.9961
6.23927	85.9595
6.23177	85.9497
6.22429	86.0126
6.21683	86.0517
6.20938	86.0236
6.20195	86.0101
6.19454	86.1276
6.18715	86.4186
6.17978	86.2123
6.17242	85.8916
6.16508	85.9614
6.15776	85.9695
6.15045	85.8442
6.14317	85.873
6.1359	85.8986
6.12864	85.9475
6.12141	86.2674
6.11419	86.628
6.10699	86.4948
6.0998	86.3104
6.09263	86.2538
6.08549	86.2759
6.07835	86.6056
6.07123	86.7916
6.06413	86.5697
6.05705	86.8153
6.04998	87.4356
6.04293	87.1129
6.0359	86.6303
6.02888	86.4868
6.02187	86.5452
6.01489	86.7333
6.00792	86.7071
6.00096	86.6761
5.99403	86.8529
5.98711	86.8959
5.9802	86.8271
5.97331	86.9554
5.96644	86.8883
5.95958	86.6064
5.95274	86.6476
5.94591	86.8091
5.9391	87.2165
5.9323	87.066
5.92552	86.6617
5.91876	86.6579
5.91201	86.6919
5.90528	86.7987
5.89856	87.19
5.89186	87.1807
5.88517	87.3217
5.8785	87.4142
5.87184	87.0506
5.8652	87.0424
5.85857	86.9396
5.85196	86.8444
5.84536	86.7835
5.83878	86.7873
5.83221	86.947
5.82566	87.206
5.81912	87.173
5.81259	86.9017
5.80608	86.8563
5.79959	86.8417
5.79311	86.8022
5.78665	86.8795
5.78019	86.9592
5.77376	87.2011
5.76734	87.5259
5.76093	87.2702
5.75453	86.9871
5.74815	87.0732
5.74179	87.0687
5.73543	87.0793
5.7291	87.0896
5.72277	87.1164
5.71646	87.212
5.71017	87.2404
5.70389	87.0489
5.69762	87.0377
5.69136	87.1611
5.68513	87.1165
5.6789	87.1248
5.67268	87.1082
5.66648	87.0101
5.6603	87.0784
5.65413	87.1594
5.64797	87.2583
5.64182	87.3799
5.63569	87.2481
5.62957	87.0969
5.62347	87.0633
5.61737	87.058
5.61129	87.009
5.60522	86.9761
5.59917	86.8916
5.59313	86.7769
5.5871	86.7532
5.58109	86.7771
5.57509	86.6509
5.5691	86.5027
5.56312	86.5107
5.55716	86.5599
5.55121	86.6449
5.54528	86.7203
5.53935	86.8692
5.53344	87.0179
5.52754	87.0409
5.52166	87.0373
5.51578	87.0437
5.50992	87.0248
5.50407	87.0001
5.49823	86.9818
5.49241	87.0507
5.4866	87.0765
5.4808	87.1222
5.47501	87.1273
5.46923	87.1548
5.46347	87.1969
5.45772	87.2031
5.45198	87.1827
5.44625	87.153
5.44054	87.1918
5.43484	87.2156
5.42914	87.2263
5.42347	87.3377
5.4178	87.2723
5.41214	87.1343
5.4065	87.1031
5.40087	87.0755
5.39525	87.0771
5.38964	87.1167
5.38404	87.0947
5.37846	87.0711
5.37288	87.069
5.36732	87.0503
5.36177	87.0618
5.35623	87.1325
5.35071	87.1958
5.34519	87.1144
5.33968	87.0825
5.33419	87.0716
5.32871	87.0822
5.32324	87.1188
5.31778	87.1078
5.31233	87.0801
5.30689	87.1125
5.30147	87.0992
5.29605	87.1015
5.29065	87.1514
5.28525	87.1534
5.27987	87.1702
5.2745	87.1794
5.26914	87.1943
5.26379	87.2541
5.25845	87.2422
5.25312	87.171
5.24781	87.2013
5.2425	87.2068
5.23721	87.2417
5.23192	87.2608
5.22665	87.2811
5.22138	87.2752
5.21613	87.3203
5.21089	87.3502
5.20566	87.3369
5.20044	87.3758
5.19522	87.3303
5.19002	87.2834
5.18483	87.2926
5.17965	87.2905
5.17448	87.2455
5.16933	87.2876
5.16418	87.3286
5.15904	87.3
5.15391	87.267
5.14879	87.256
5.14368	87.2708
5.13859	87.2795
5.1335	87.2764
5.12842	87.2916
5.12335	87.3332
5.1183	87.3531
5.11325	87.3277
5.10821	87.2864
5.10318	87.2941
5.09817	87.288
5.09316	87.3169
5.08816	87.3452
5.08317	87.3361
5.07819	87.3241
5.07322	87.3559
5.06826	87.3778
5.06331	87.3581
5.05837	87.3317
5.05344	87.3387
5.04852	87.3283
5.04361	87.2809
5.03871	87.258
5.03382	87.3045
5.02894	87.362
5.02406	87.3468
5.0192	87.362
5.01435	87.3611
5.0095	87.2788
5.00467	87.2507
4.99984	87.3106
4.99502	87.3707
4.99021	87.3715
4.98542	87.3766
4.98063	87.3952
4.97585	87.3795
4.97108	87.3408
4.96632	87.2682
4.96156	87.2666
4.95682	87.3734
4.95209	87.4303
4.94736	87.3997
4.94264	87.3896
4.93794	87.3745
4.93324	87.4044
4.92855	87.4314
4.92387	87.3938
4.9192	87.3675
4.91453	87.3575
4.90988	87.366
4.90524	87.4358
4.9006	87.4618
4.89597	87.4217
4.89135	87.4216
4.88674	87.4419
4.88214	87.4672
4.87755	87.4548
4.87296	87.4125
4.86839	87.4059
4.86382	87.4285
4.85926	87.4784
4.85471	87.4888
4.85017	87.4989
4.84564	87.5232
4.84111	87.5497
4.8366	87.5021
4.83209	87.4287
4.82759	87.4557
4.8231	87.4865
4.81862	87.5011
4.81415	87.5101
4.80968	87.5471
4.80522	87.5032
4.80077	87.487
4.79633	87.5073
4.7919	87.437
4.78747	87.4239
4.78306	87.4678
4.77865	87.4553
4.77425	87.4324
4.76986	87.4398
4.76547	87.4694
4.7611	87.4917
4.75673	87.5155
4.75237	87.5202
4.74802	87.5353
4.74367	87.5038
4.73934	87.4742
4.73501	87.4777
4.73069	87.4673
4.72638	87.5093
4.72207	87.4774
4.71777	87.4448
4.71348	87.4786
4.7092	87.4576
4.70493	87.4243
4.70066	87.4478
4.69641	87.4735
4.69216	87.4632
4.68791	87.4536
4.68368	87.4495
4.67945	87.469
4.67523	87.5006
4.67102	87.5121
4.66682	87.4626
4.66262	87.4427
4.65843	87.4032
4.65425	87.4414
4.65007	87.486
4.64591	87.4909
4.64175	87.5392
4.6376	87.5398
4.63345	87.4985
4.62932	87.4772
4.62519	87.4752
4.62106	87.4834
4.61695	87.4534
4.61284	87.4441
4.60874	87.4649
4.60465	87.4275
4.60056	87.4335
4.59648	87.4673
4.59241	87.451
4.58835	87.4494
4.58429	87.4842
4.58024	87.5299
4.5762	87.5083
4.57216	87.4941
4.56814	87.476
4.56411	87.4357
4.5601	87.4529
4.55609	87.4541
4.55209	87.4909
4.5481	87.5333
4.54411	87.4976
4.54013	87.5167
4.53616	87.525
4.5322	87.4621
4.52824	87.456
4.52429	87.5352
4.52034	87.5479
4.51641	87.5351
4.51247	87.5288
4.50855	87.4529
4.50463	87.4208
4.50072	87.408
4.49682	87.3809
4.49292	87.3744
4.48903	87.4294
4.48515	87.4994
4.48127	87.4616
4.4774	87.4785
4.47354	87.4949
4.46968	87.4606
4.46584	87.4919
4.46199	87.48
4.45815	87.4588
4.45432	87.4732
4.4505	87.4688
4.44668	87.4408
4.44287	87.457
4.43907	87.5016
4.43527	87.4915
4.43148	87.4432
4.4277	87.4429
4.42392	87.4648
4.42015	87.4603
4.41638	87.4614
4.41262	87.4766
4.40887	87.4223
4.40513	87.3961
4.40139	87.4121
4.39765	87.4616
4.39393	87.5204
4.39021	87.5037
4.38649	87.5257
4.38278	87.5009
4.37908	87.3867
4.37539	87.3635
4.3717	87.4319
4.36801	87.3955
4.36434	87.3519
4.36067	87.3676
4.357	87.4185
4.35335	87.419
4.34969	87.42
4.34605	87.3733
4.34241	87.3603
4.33877	87.3643
4.33514	87.3623
4.33152	87.3741
4.32791	87.2781
4.3243	87.1841
4.32069	87.1342
4.3171	87.0896
4.31351	86.9811
4.30992	86.8267
4.30634	86.7482
4.30277	86.6786
4.2992	86.5923
4.29564	86.4932
4.29208	86.4275
4.28853	86.3685
4.28499	86.3616
4.28145	86.3857
4.27792	86.3188
4.27439	86.3311
4.27087	86.425
4.26735	86.4991
4.26384	86.6392
4.26034	86.9136
4.25684	87.1298
4.25335	86.9429
4.24986	86.6331
4.24638	86.3826
4.24291	86.1647
4.23944	86.0019
4.23598	85.9206
4.23252	85.9133
4.22906	85.9223
4.22562	86.0625
4.22218	86.2661
4.21874	86.4466
4.21531	86.6096
4.21189	86.8045
4.20847	87.0168
4.20506	87.1775
4.20165	87.2458
4.19825	87.2949
4.19485	87.3848
4.19146	87.4144
4.18807	87.4406
4.18469	87.4354
4.18132	87.3997
4.17795	87.3674
4.17458	87.3939
4.17123	87.3653
4.16787	87.3782
4.16453	87.3929
4.16118	87.3921
4.15785	87.3677
4.15451	87.3636
4.15119	87.3697
4.14787	87.3796
4.14455	87.3985
4.14124	87.3625
4.13794	87.3038
4.13464	87.3663
4.13134	87.4032
4.12805	87.3623
4.12477	87.3432
4.12149	87.3633
4.11822	87.3269
4.11495	87.2896
4.11168	87.308
4.10843	87.3751
4.10517	87.3981
4.10192	87.3928
4.09868	87.4112
4.09545	87.358
4.09221	87.3605
4.08899	87.3987
4.08576	87.3148
4.08255	87.2544
4.07933	87.2632
4.07613	87.2917
4.07292	87.3475
4.06973	87.338
4.06654	87.3102
4.06335	87.299
4.06017	87.3137
4.05699	87.3366
4.05382	87.314
4.05065	87.277
4.04749	87.2112
4.04433	87.2251
4.04118	87.2263
4.03803	87.238
4.03489	87.1813
4.03175	87.184
4.02862	87.1795
4.02549	87.1304
4.02237	87.1312
4.01925	87.1265
4.01614	87.084
4.01303	87.0238
4.00993	86.98
4.00683	86.9117
4.00373	86.9023
4.00064	86.9213
3.99756	86.8588
3.99448	86.8038
3.9914	86.8018
3.98833	86.7542
3.98527	86.6984
3.98221	86.7417
3.97915	86.7356
3.9761	86.7021
3.97305	86.6637
3.97001	86.6526
3.96697	86.6702
3.96394	86.6557
3.96091	86.6648
3.95789	86.738
3.95487	86.7314
3.95186	86.7253
3.94885	86.7267
3.94584	86.7927
3.94284	86.8552
3.93984	86.857
3.93685	86.8155
3.93386	86.9007
3.93088	86.9422
3.9279	86.9124
3.92493	86.9606
3.92196	86.9476
3.919	86.8948
3.91604	86.9411
3.91308	86.9994
3.91013	86.9508
3.90718	86.9249
3.90424	87.0172
3.9013	86.982
3.89837	86.9594
3.89544	87.0162
3.89252	86.9804
3.8896	86.9842
3.88668	87.0184
3.88377	87.0244
3.88086	87.035
3.87796	87.0078
3.87506	87.06
3.87217	87.0274
3.86928	86.9562
3.86639	86.9709
3.86351	87.0102
3.86064	86.9781
3.85776	86.8947
3.8549	86.9105
3.85203	86.8979
3.84917	86.9086
3.84631	86.9359
3.84346	87.0446
3.84062	87.1273
3.83777	87.1318
3.83494	87.1129
3.8321	87.054
3.82927	87.0181
3.82644	86.9734
3.82362	87.0214
3.82081	87.0311
3.81799	87.0686
3.81518	87.0555
3.81238	87.0434
3.80958	87.0289
3.80678	87.0231
3.80399	87.0542
3.8012	87.0789
3.79841	87.1099
3.79563	87.0625
3.79286	87.0612
3.79008	87.1534
3.78731	87.1298
3.78455	87.0545
3.78179	87.0343
3.77903	87.1202
3.77628	87.1602
3.77353	87.0912
3.77079	87.0903
3.76805	87.152
3.76531	87.1575
3.76258	87.1229
3.75985	87.1115
3.75713	87.1182
3.7544	87.1245
3.75169	87.1641
3.74898	87.1562
3.74627	87.0828
3.74356	87.0375
3.74086	87.0926
3.73816	87.1552
3.73547	87.1071
3.73278	86.9947
3.7301	87.0265
3.72741	87.0584
3.72474	87.0957
3.72206	87.0998
3.71939	87.0979
3.71673	87.1035
3.71406	87.072
3.71141	87.0805
3.70875	87.1244
3.7061	87.1615
3.70345	87.1051
3.70081	87.0171
3.69817	87.0378
3.69553	87.0536
3.6929	87.0976
3.69027	87.1225
3.68765	87.1112
3.68503	87.1447
3.68241	87.1548
3.6798	87.1035
3.67719	87.0871
3.67458	87.0945
3.67198	87.0335
3.66938	86.9571
3.66678	86.9599
3.66419	86.9863
3.66161	86.9996
3.65902	87.0226
3.65644	87.0794
3.65387	87.1089
3.65129	87.0883
3.64872	87.0816
3.64616	87.051
3.64359	87.0801
3.64103	87.0312
3.63848	86.9725
3.63593	87.0416
3.63338	87.0811
3.63084	87.0626
3.6283	87.0654
3.62576	87.0004
3.62322	86.9379
3.62069	86.9214
3.61817	86.9042
3.61564	86.9134
3.61312	86.9581
3.61061	86.9351
3.6081	86.923
3.60559	86.91
3.60308	86.9306
3.60058	87.0413
3.59808	87.0875
3.59558	87.0363
3.59309	86.9774
3.59061	86.9898
3.58812	87.0002
3.58564	86.9383
3.58316	86.896
3.58069	86.909
3.57822	86.9228
3.57575	86.9227
3.57328	86.8948
3.57082	86.9056
3.56836	86.8886
3.56591	86.8772
3.56346	86.8682
3.56101	86.8536
3.55857	86.9116
3.55613	86.9581
3.55369	86.985
3.55126	86.8831
3.54883	86.8118
3.5464	86.8579
3.54397	86.8848
3.54155	86.8435
3.53914	86.7933
3.53672	86.7546
3.53431	86.7122
3.5319	86.7529
3.5295	86.7842
3.5271	86.8044
3.5247	86.845
3.52231	86.7564
3.51991	86.6018
3.51753	86.5728
3.51514	86.6259
3.51276	86.5965
3.51038	86.5576
3.50801	86.5285
3.50563	86.4812
3.50327	86.3645
3.5009	86.3653
3.49854	86.4064
3.49618	86.3623
3.49382	86.3284
3.49147	86.3388
3.48912	86.3604
3.48677	86.3604
3.48443	86.3335
3.48209	86.3646
3.47975	86.3985
3.47742	86.403
3.47509	86.3686
3.47276	86.3309
3.47044	86.299
3.46812	86.2925
3.4658	86.3491
3.46348	86.3683
3.46117	86.352
3.45886	86.3805
3.45656	86.3716
3.45425	86.3154
3.45195	86.3281
3.44966	86.3893
3.44736	86.3833
3.44507	86.3139
3.44279	86.2926
3.4405	86.3067
3.43822	86.2191
3.43594	86.2305
3.43367	86.3302
3.43139	86.3149
3.42912	86.2246
3.42686	86.2091
3.42459	86.2567
3.42233	86.25
3.42007	86.1377
3.41782	86.1056
3.41557	86.1461
3.41332	86.1451
3.41108	86.0687
3.40883	86.0508
3.40659	86.0821
3.40435	86.1063
3.40212	86.1611
3.39989	86.1764
3.39766	86.2745
3.39544	86.3438
3.39322	86.3089
3.391	86.3181
3.38878	86.3371
3.38657	86.2424
3.38436	86.181
3.38215	86.1191
3.37994	86.1223
3.37774	86.1721
3.37554	86.2164
3.37335	86.2475
3.37115	86.2445
3.36896	86.2696
3.36678	86.3444
3.36459	86.3062
3.36241	86.256
3.36023	86.3127
3.35805	86.3244
3.35588	86.3211
3.35371	86.3244
3.35154	86.3765
3.34938	86.3574
3.34721	86.2659
3.34505	86.2821
3.3429	86.3776
3.34074	86.4905
3.33859	86.494
3.33644	86.4381
3.3343	86.4961
3.33215	86.4877
3.33001	86.4857
3.32788	86.5011
3.32574	86.4857
3.32361	86.5271
3.32148	86.5652
3.31936	86.5276
3.31723	86.4932
3.31511	86.4886
3.31299	86.5563
3.31088	86.5496
3.30876	86.4865
3.30665	86.5682
3.30455	86.5743
3.30244	86.5492
3.30034	86.5649
3.29824	86.529
3.29614	86.5079
3.29405	86.4941
3.29196	86.5069
3.28987	86.5134
3.28778	86.5163
3.2857	86.574
3.28362	86.5112
3.28154	86.4197
3.27946	86.4019
3.27739	86.4664
3.27532	86.5331
3.27325	86.5132
3.27119	86.5005
3.26913	86.5474
3.26707	86.5254
3.26501	86.5575
3.26295	86.5857
3.2609	86.525
3.25885	86.3674
3.2568	86.2818
3.25476	86.4158
3.25272	86.4835
3.25068	86.4388
3.24864	86.47
3.24661	86.4414
3.24458	86.3938
3.24255	86.3735
3.24052	86.4138
3.2385	86.3921
3.23648	86.3326
3.23446	86.4014
3.23244	86.527
3.23043	86.5598
3.22841	86.5372
3.2264	86.4476
3.2244	86.3868
3.22239	86.3903
3.22039	86.4108
3.21839	86.4202
3.2164	86.3922
3.2144	86.315
3.21241	86.3088
3.21042	86.3214
3.20844	86.3519
3.20645	86.4247
3.20447	86.4276
3.20249	86.3806
3.20051	86.3176
3.19854	86.2939
3.19657	86.2345
3.1946	86.3214
3.19263	86.434
3.19067	86.4738
3.1887	86.3747
3.18674	86.3225
3.18479	86.3636
3.18283	86.2626
3.18088	86.1748
3.17893	86.1951
3.17698	86.2284
3.17504	86.3129
3.17309	86.2798
3.17115	86.2448
3.16921	86.271
3.16728	86.2572
3.16534	86.2008
3.16341	86.2369
3.16148	86.3354
3.15956	86.2523
3.15763	86.1765
3.15571	86.2699
3.15379	86.315
3.15187	86.1743
3.14996	86.1093
3.14805	86.1659
3.14614	86.2384
3.14423	86.2752
3.14232	86.2641
3.14042	86.2062
3.13852	86.133
3.13662	86.1231
3.13472	86.1348
3.13283	86.1163
3.13094	86.1353
3.12905	86.1456
3.12716	86.1167
3.12528	86.1465
3.12339	86.1797
3.12151	86.1643
3.11964	86.2023
3.11776	86.1997
3.11589	86.0736
3.11401	86.0595
3.11214	86.1706
3.11028	86.1923
3.10841	86.1435
3.10655	86.0474
3.10469	85.9879
3.10283	86.0445
3.10098	86.142
3.09912	86.1353
3.09727	86.0503
3.09542	85.9999
3.09358	85.9493
3.09173	86.0165
3.08989	86.0201
3.08805	86.0917
3.08621	86.1822
3.08437	86.1438
3.08254	86.079
3.08071	86.0306
3.07888	86.0333
3.07705	85.973
3.07523	85.8589
3.0734	85.8078
3.07158	85.9388
3.06977	85.9876
3.06795	85.9746
3.06613	85.9008
3.06432	85.8998
3.06251	85.8871
3.0607	85.8217
3.0589	85.8484
3.0571	85.9465
3.05529	86.0577
3.05349	86.1599
3.0517	86.1365
3.0499	86.0389
3.04811	85.9629
3.04632	85.9343
3.04453	85.9436
3.04274	85.9593
3.04096	85.9224
3.03918	85.9641
3.0374	85.9155
3.03562	85.8097
3.03384	85.8874
3.03207	85.8584
3.03029	85.9065
3.02852	86.0289
3.02676	85.8914
3.02499	85.7853
3.02323	85.8314
3.02146	85.7812
3.0197	85.8294
3.01795	85.9286
3.01619	85.9267
3.01444	85.9291
3.01269	86.0026
3.01094	85.9803
3.00919	85.9122
3.00744	85.8342
3.0057	85.8637
3.00396	85.9179
3.00222	85.8154
3.00048	85.7273
2.99875	85.8472
2.99701	85.9983
2.99528	86.0465
2.99355	85.9478
2.99183	85.843
2.9901	85.883
2.98838	85.9475
2.98666	85.9358
2.98494	85.8236
2.98322	85.8595
2.9815	85.9218
2.97979	85.8293
2.97808	85.752
2.97637	85.7796
2.97466	85.8824
2.97295	85.9523
2.97125	85.8939
2.96955	85.9587
2.96785	85.9645
2.96615	85.7927
2.96446	85.7741
2.96276	85.757
2.96107	85.8439
2.95938	85.8667
2.95769	85.6684
2.95601	85.6871
2.95432	85.7517
2.95264	85.7577
2.95096	85.7845
2.94928	85.7575
2.9476	85.6989
2.94593	85.7103
2.94425	85.7948
2.94258	85.7444
2.94092	85.7914
2.93925	85.9491
2.93758	85.9255
2.93592	85.8174
2.93426	85.6856
2.9326	85.6202
2.93094	85.6989
2.92928	85.7805
2.92763	85.7848
2.92598	85.8834
2.92433	85.9499
2.92268	85.8626
2.92103	85.7573
2.91939	85.8234
2.91775	85.8081
2.9161	85.8295
2.91447	85.8894
2.91283	85.8679
2.91119	85.8615
2.90956	85.8763
2.90793	85.9097
2.9063	85.8986
2.90467	85.8222
2.90304	85.7667
2.90142	85.8522
2.89979	85.8354
2.89817	85.6858
2.89656	85.6625
2.89494	85.6746
2.89332	85.7611
2.89171	85.8095
2.8901	85.8247
2.88849	85.9241
2.88688	85.992
2.88527	85.8834
2.88367	85.8164
2.88206	85.724
2.88046	85.6343
2.87886	85.7647
2.87727	85.9172
2.87567	85.8192
2.87408	85.8512
2.87248	85.9044
2.87089	85.9008
2.8693	85.8819
2.86772	85.8368
2.86613	85.7414
2.86455	85.7655
2.86297	85.7979
2.86139	85.7098
2.85981	85.7426
2.85823	85.8339
2.85666	85.9062
2.85508	85.9291
2.85351	85.8125
2.85194	85.7259
2.85038	85.7094
2.84881	85.8201
2.84724	85.896
2.84568	85.8207
2.84412	85.7149
2.84256	85.6449
2.841	85.5865
2.83945	85.7568
2.83789	85.9741
2.83634	85.8808
2.83479	85.839
2.83324	85.7266
2.83169	85.7875
2.83015	85.7421
2.82861	85.6661
2.82706	85.6755
2.82552	85.6246
2.82398	85.632
2.82245	85.5703
2.82091	85.5978
2.81938	85.6854
2.81784	85.6663
2.81631	85.7131
2.81479	85.7794
2.81326	85.7229
2.81173	85.6475
2.81021	85.5692
2.80869	85.6366
2.80716	85.7959
2.80565	85.7846
2.80413	85.813
2.80261	85.73
2.8011	85.457
2.79959	85.402
2.79808	85.4719
2.79657	85.3805
2.79506	85.3963
2.79355	85.4243
2.79205	85.6432
2.79055	85.8421
2.78904	85.8045
2.78754	85.8259
2.78605	85.5671
2.78455	85.3263
2.78306	85.385
2.78156	85.4805
2.78007	85.6114
2.77858	85.7276
2.77709	85.6818
2.77561	85.1648
2.77412	85.3322
2.77264	85.5762
2.77116	85.5518
2.76968	85.6015
2.7682	85.6258
2.76672	85.5168
2.76524	85.3856
2.76377	85.3114
2.7623	85.277
2.76083	85.4151
2.75936	85.4673
2.75789	85.5219
2.75642	85.7954
2.75496	85.936
2.7535	85.786
2.75203	85.5585
2.75057	85.4859
2.74912	85.5449
2.74766	85.638
2.7462	85.5302
2.74475	85.6613
2.7433	85.8378
2.74185	85.9832
2.7404	86.1564
2.73895	86.1451
2.7375	85.894
2.73606	85.8645
2.73462	85.8731
2.73318	85.8781
2.73174	85.9181
2.7303	86.0232
2.72886	86.0103
2.72742	86.1068
2.72599	86.265
2.72456	86.3783
2.72313	86.2717
2.7217	86.4446
2.72027	86.7117
2.71884	86.4828
2.71742	86.3264
2.71599	86.212
2.71457	86.1512
2.71315	86.2548
2.71173	86.5436
2.71032	86.5651
2.7089	86.4119
2.70748	86.3253
2.70607	86.2812
2.70466	86.3235
2.70325	86.3319
2.70184	86.4572
2.70043	86.5084
2.69903	86.4583
2.69762	86.5179
2.69622	86.7439
2.69482	86.9267
2.69342	86.9224
2.69202	86.7345
2.69062	86.6818
2.68923	86.7201
2.68783	86.7699
2.68644	86.8143
2.68505	86.8429
2.68366	86.8692
2.68227	86.8674
2.68089	86.8187
2.6795	86.9571
2.67812	87.0776
2.67673	87.2508
2.67535	87.1284
2.67397	86.8653
2.6726	87.0173
2.67122	87.536
2.66984	87.4816
2.66847	87.082
2.6671	87.2286
2.66572	87.3661
2.66435	87.1295
2.66299	86.9899
2.66162	87.0749
2.66025	86.9813
2.65889	86.8762
2.65753	86.8021
2.65616	86.8623
2.65481	86.7366
2.65345	86.7565
2.65209	86.9452
2.65073	86.8083
2.64938	86.7944
2.64803	86.8219
2.64667	86.8614
2.64532	86.86
2.64397	86.7016
2.64263	86.7447
2.64128	86.9013
2.63994	86.9332
2.63859	86.9001
2.63725	86.9015
2.63591	86.9344
2.63457	86.921
2.63323	86.9322
2.6319	87.0773
2.63056	87.142
2.62923	86.8602
2.62789	86.8642
2.62656	87.0082
2.62523	86.91
2.6239	86.7378
2.62258	86.6506
2.62125	86.991
2.61993	87.2234
2.6186	87.0971
2.61728	87.1607
2.61596	87.0429
2.61464	86.8689
2.61332	86.9072
2.61201	86.9581
2.61069	87.048
2.60938	87.0595
2.60807	86.8989
2.60675	86.971
2.60544	87.2229
2.60414	87.1904
2.60283	87.0725
2.60152	86.9648
2.60022	86.9013
2.59891	86.8816
2.59761	86.8477
2.59631	87.1483
2.59501	87.5991
2.59371	87.2972
2.59242	86.8078
2.59112	86.7256
2.58983	86.8847
2.58853	86.9827
2.58724	87.0282
2.58595	86.936
2.58466	87.0191
2.58338	87.0461
2.58209	86.9259
2.5808	87.007
2.57952	86.9113
2.57824	86.9282
2.57695	87.0199
2.57567	87.0055
2.5744	86.9806
2.57312	86.9506
2.57184	86.794
2.57057	86.8875
2.56929	86.8756
2.56802	86.731
2.56675	86.8016
2.56548	86.8866
2.56421	87.0014
2.56294	87.1339
2.56168	87.1447
2.56041	86.9655
2.55915	86.8277
2.55789	86.7295
2.55662	86.7207
2.55536	86.7644
2.5541	86.8633
2.55285	86.8059
2.55159	86.6836
2.55034	86.7049
2.54908	86.7874
2.54783	86.8411
2.54658	86.7886
2.54533	86.7991
2.54408	86.8442
2.54283	86.8609
2.54159	86.7435
2.54034	86.6597
2.5391	86.6779
2.53785	86.8063
2.53661	86.8487
2.53537	86.7221
2.53413	86.6919
2.53289	86.7623
2.53166	86.8115
2.53042	86.914
2.52919	86.8928
2.52795	86.8071
2.52672	86.8344
2.52549	86.7717
2.52426	86.5775
2.52303	86.5866
2.52181	86.6703
2.52058	86.751
2.51936	86.7632
2.51813	86.6794
2.51691	86.7429
2.51569	86.731
2.51447	86.7097
2.51325	86.7184
2.51203	86.6546
2.51082	86.5351
2.5096	86.5303
2.50839	86.6345
2.50717	86.7888
2.50596	86.7624
2.50475	86.6358
2.50354	86.6697
2.50233	86.7788
2.50113	86.8022
2.49992	86.8225
2.49872	86.7348
2.49751	86.6174
2.49631	86.7203
2.49511	86.7181
2.49391	86.5791
2.49271	86.5852
2.49151	86.6342
2.49031	86.6866
2.48912	86.6424
2.48792	86.6321
2.48673	86.755
2.48554	86.8103
2.48435	86.7475
2.48316	86.5655
2.48197	86.6464
2.48078	86.6849
2.4796	86.6136
2.47841	86.6798
2.47723	86.7498
2.47604	86.6485
2.47486	86.584
2.47368	86.6287
2.4725	86.669
2.47132	86.6992
2.47014	86.733
2.46897	86.6919
2.46779	86.6656
2.46662	86.6452
2.46545	86.5629
2.46427	86.5907
2.4631	86.6825
2.46193	86.7607
2.46077	86.6735
2.4596	86.5316
2.45843	86.5013
2.45727	86.4287
2.4561	86.4876
2.45494	86.5767
2.45378	86.4497
2.45262	86.3756
2.45146	86.483
2.4503	86.6733
2.44914	86.7416
2.44799	86.7915
2.44683	86.8207
2.44568	86.6972
2.44452	86.5891
2.44337	86.4786
2.44222	86.453
2.44107	86.5072
2.43992	86.5286
2.43877	86.7159
2.43763	86.8089
2.43648	86.7114
2.43534	86.7871
2.43419	86.8261
2.43305	86.8444
2.43191	86.7126
2.43077	86.6675
2.42963	86.7583
2.42849	86.7088
2.42736	86.6789
2.42622	86.7767
2.42509	86.6694
2.42395	86.513
2.42282	86.4583
2.42169	86.5132
2.42056	86.6307
2.41943	86.6433
2.4183	86.4645
2.41717	86.5073
2.41605	86.6824
2.41492	86.7357
2.4138	86.6125
2.41267	86.5555
2.41155	86.6903
2.41043	86.6388
2.40931	86.5908
2.40819	86.5562
2.40707	86.6081
2.40595	86.6681
2.40484	86.6288
2.40372	86.6177
2.40261	86.679
2.4015	86.6649
2.40039	86.6072
2.39928	86.5812
2.39817	86.5912
2.39706	86.6309
2.39595	86.7137
2.39484	86.7651
2.39374	86.6321
2.39263	86.544
2.39153	86.5211
2.39043	86.5664
2.38932	86.5793
2.38822	86.58
2.38712	86.6112
2.38603	86.603
2.38493	86.6254
2.38383	86.6263
2.38274	86.5735
2.38164	86.6197
2.38055	86.577
2.37946	86.5841
2.37836	86.6762
2.37727	86.6892
2.37618	86.6302
2.3751	86.4978
2.37401	86.4218
2.37292	86.509
2.37184	86.5418
2.37075	86.485
2.36967	86.5776
2.36859	86.659
2.3675	86.6982
2.36642	86.6827
2.36534	86.5694
2.36427	86.4642
2.36319	86.4063
2.36211	86.538
2.36104	86.6215
2.35996	86.6464
2.35889	86.6555
2.35781	86.6524
2.35674	86.4606
2.35567	86.4181
2.3546	86.4945
2.35353	86.5051
2.35247	86.5346
2.3514	86.4749
2.35033	86.4089
2.34927	86.4809
2.3482	86.5373
2.34714	86.5835
2.34608	86.5565
2.34502	86.5703
2.34396	86.6973
2.3429	86.6441
2.34184	86.5419
2.34078	86.5059
2.33973	86.5308
2.33867	86.4617
2.33762	86.4526
2.33656	86.4518
2.33551	86.4017
2.33446	86.4764
2.33341	86.5203
2.33236	86.4018
2.33131	86.4312
2.33026	86.5838
2.32922	86.6517
2.32817	86.6767
2.32712	86.684
2.32608	86.6065
2.32504	86.4488
2.324	86.3638
2.32295	86.4397
2.32191	86.5633
2.32087	86.5508
2.31984	86.4254
2.3188	86.377
2.31776	86.4882
2.31673	86.5036
2.31569	86.3998
2.31466	86.3774
2.31362	86.5093
2.31259	86.5265
2.31156	86.4703
2.31053	86.5949
2.3095	86.5761
2.30847	86.3418
2.30745	86.4111
2.30642	86.5641
2.3054	86.5244
2.30437	86.454
2.30335	86.457
2.30232	86.5008
2.3013	86.5374
2.30028	86.4744
2.29926	86.4404
2.29824	86.482
2.29722	86.5949
2.29621	86.6329
2.29519	86.6165
2.29417	86.5835
2.29316	86.6212
2.29215	86.481
2.29113	86.3893
2.29012	86.3734
2.28911	86.3605
2.2881	86.2975
2.28709	86.3545
2.28608	86.4565
2.28507	86.5077
2.28407	86.5246
2.28306	86.3346
2.28206	86.3425
2.28105	86.3694
2.28005	86.1651
2.27905	86.147
2.27805	86.3596
2.27705	86.4886
2.27605	86.6149
2.27505	86.5328
2.27405	86.3893
2.27305	86.3822
2.27206	86.4176
2.27106	86.3051
2.27007	86.3312
2.26907	86.4026
2.26808	86.4618
2.26709	86.4345
2.2661	86.4691
2.26511	86.36
2.26412	86.2942
2.26313	86.4762
2.26214	86.6145
2.26116	86.4703
2.26017	86.3297
2.25919	86.3535
2.2582	86.3922
2.25722	86.5359
2.25624	86.6908
2.25526	86.4903
2.25428	86.3068
2.2533	86.3743
2.25232	86.469
2.25134	86.3915
2.25036	86.4522
2.24939	86.4106
2.24841	86.4516
2.24744	86.4796
2.24646	86.3123
2.24549	86.3354
2.24452	86.507
2.24355	86.4846
2.24257	86.3276
2.24161	86.2958
2.24064	86.3578
2.23967	86.4434
2.2387	86.54
2.23774	86.5041
2.23677	86.2664
2.23581	86.1279
2.23484	86.2253
2.23388	86.4035
2.23292	86.425
2.23196	86.2731
2.231	86.3326
2.23004	86.5074
2.22908	86.4898
2.22812	86.3698
2.22716	86.3212
2.22621	86.4759
2.22525	86.5242
2.2243	86.3454
2.22334	86.1919
2.22239	86.1894
2.22144	86.368
2.22049	86.4491
2.21953	86.4123
2.21859	86.4582
2.21764	86.6018
2.21669	86.5127
2.21574	86.2481
2.21479	86.1445
2.21385	86.3148
2.2129	86.468
2.21196	86.4502
2.21102	86.3098
2.21007	86.287
2.20913	86.2951
2.20819	86.3575
2.20725	86.3324
2.20631	86.354
2.20537	86.3284
2.20444	86.4034
2.2035	86.4559
2.20256	86.3931
2.20163	86.4216
2.20069	86.4311
2.19976	86.3844
2.19883	86.34
2.19789	86.2308
2.19696	86.1374
2.19603	86.1566
2.1951	86.3203
2.19417	86.5874
2.19325	86.5039
2.19232	86.4526
2.19139	86.4469
2.19047	86.3473
2.18954	86.2776
2.18862	86.1732
2.18769	86.159
2.18677	86.1768
2.18585	86.2037
2.18493	86.262
2.18401	86.2751
2.18309	86.3533
2.18217	86.2562
2.18125	86.1779
2.18033	86.3451
2.17942	86.5103
2.1785	86.4632
2.17759	86.4302
2.17667	86.3706
2.17576	86.2007
2.17485	86.1758
2.17393	86.1373
2.17302	86.3263
2.17211	86.4114
2.1712	86.3037
2.17029	86.2177
2.16939	86.1227
2.16848	86.0922
2.16757	86.1131
2.16667	86.0798
2.16576	86.155
2.16486	86.2537
2.16395	86.1716
2.16305	86.2729
2.16215	86.3638
2.16125	86.2883
2.16035	86.1672
2.15945	86.1897
2.15855	86.3036
2.15765	86.2652
2.15675	86.2517
2.15586	86.2952
2.15496	86.3173
2.15406	86.2356
2.15317	86.2999
2.15228	86.3244
2.15138	86.2587
2.15049	86.2102
2.1496	86.1104
2.14871	86.1618
2.14782	86.1938
2.14693	86.1721
2.14604	86.3686
2.14515	86.4055
2.14427	86.2154
2.14338	86.3676
2.14249	86.4375
2.14161	86.3424
2.14072	86.4574
2.13984	86.5764
2.13896	86.3264
2.13808	86.2314
2.13719	86.263
2.13631	86.2574
2.13543	86.131
2.13455	86.1689
2.13368	86.3006
2.1328	86.2186
2.13192	86.0899
2.13105	86.0941
2.13017	86.178
2.1293	86.1919
2.12842	86.2139
2.12755	86.1894
2.12668	86.0905
2.1258	86.122
2.12493	86.1204
2.12406	86.0082
2.12319	86.2565
2.12232	86.345
2.12145	86.151
2.12059	86.287
2.11972	86.3735
2.11885	86.3263
2.11799	86.1454
2.11712	86.0084
2.11626	86.1806
2.1154	86.1205
2.11453	86.0014
2.11367	85.8069
2.11281	85.8183
2.11195	86.074
2.11109	86.2063
2.11023	86.3537
2.10937	86.2939
2.10851	86.283
2.10766	86.2004
2.1068	86.1203
2.10594	86.1192
2.10509	86.1073
2.10423	86.1302
2.10338	86.2053
2.10253	86.3067
2.10168	86.2342
2.10082	86.2698
2.09997	86.2343
2.09912	86.0138
2.09827	86.0454
2.09742	86.063
2.09658	86.0488
2.09573	86.2079
2.09488	86.3194
2.09404	86.2778
2.09319	86.305
2.09235	86.3246
2.0915	86.2681
2.09066	86.2418
2.08982	86.1311
2.08897	85.9459
2.08813	85.9488
2.08729	85.9876
2.08645	86.0296
2.08561	86.0361
2.08477	85.9814
2.08394	86.0305
2.0831	86.0256
2.08226	86.1901
2.08143	86.2176
2.08059	86.0756
2.07976	85.8947
2.07892	85.9367
2.07809	86.1487
2.07726	86.3023
2.07643	86.044
2.07559	85.8212
2.07476	85.9058
2.07393	86.0475
2.0731	86.1294
2.07228	86.2547
2.07145	86.2107
2.07062	86.1281
2.06979	86.1739
2.06897	86.1289
2.06814	86.1513
2.06732	86.3095
2.06649	86.4489
2.06567	86.2311
2.06485	86.0712
2.06403	85.7832
2.0632	85.625
2.06238	85.8294
2.06156	85.9063
2.06074	85.946
2.05993	86.2163
2.05911	86.218
2.05829	86.1156
2.05747	85.9662
2.05666	85.8742
2.05584	86.109
2.05503	86.2069
2.05421	86.1213
2.0534	86.168
2.05259	86.1179
2.05177	86.0056
2.05096	86.0787
2.05015	86.1039
2.04934	86.1139
2.04853	86.1701
2.04772	86.2395
2.04691	86.1086
2.04611	85.9515
2.0453	86.0924
2.04449	86.0797
2.04369	85.9055
2.04288	85.9476
2.04208	86.014
2.04127	85.9005
2.04047	85.7747
2.03967	85.8187
2.03886	86.0795
2.03806	86.2707
2.03726	86.2773
2.03646	86.3677
2.03566	86.2463
2.03486	85.9829
2.03407	85.9721
2.03327	85.9528
2.03247	86.1632
2.03167	86.3341
2.03088	86.1475
2.03008	85.8515
2.02929	85.9153
2.0285	86.0637
2.0277	85.9848
2.02691	85.9218
2.02612	86.0015
2.02533	86.1095
2.02453	85.8923
2.02374	85.7274
2.02295	85.9935
2.02217	86.415
2.02138	86.3188
2.02059	86.1333
2.0198	86.1984
2.01902	86.1403
2.01823	86.1456
2.01744	86.2987
2.01666	86.1153
2.01588	85.9972
2.01509	85.9102
2.01431	85.9684
2.01353	86.0946
2.01275	86.2175
2.01196	86.2358
2.01118	86.1537
2.0104	85.9031
2.00963	85.873
2.00885	86.0688
2.00807	86.1027
2.00729	86.1905
2.00651	86.1818
2.00574	86.0958
2.00496	85.9715
2.00419	85.8717
2.00341	86.1008
2.00264	86.2427
2.00187	86.1405
2.00109	85.878
2.00032	85.4311
