Name: Orthoclase (Feldspar) (K,Na)AlSi_3O_8
Type: Mineral
Class: Silicates
Subclass: Tectosilicates
Particle Size: 45-125um
Sample No.: TS-12A
Owner: JPL
Wavelength range: IR
Origin: India
Collected by Burminco
Description:   





Measurement: Hemispherical reflectance
First Column: X
Second Column: Y
X Units:  Wavelength (micrometers)
Y Units:  Reflectance (percent)
First X Value: 15.3853
Last X Value: 2.00032
Number of X Values: 2256
Additional information: ts12aa.txt
 
15.3853	2.42477
15.3397	2.22619
15.2945	2.34273
15.2495	2.18268
15.2048	1.88251
15.1603	1.44647
15.1161	1.2193
15.0722	1.4621
15.0285	1.70438
14.9851	1.8109
14.9419	1.7624
14.8989	1.69694
14.8563	1.72775
14.8138	1.95228
14.7716	1.98139
14.7296	1.92742
14.6879	1.93409
14.6464	1.9806
14.6052	2.19974
14.5641	2.25667
14.5233	2.28825
14.4828	2.2591
14.4424	2.18639
14.4023	2.33291
14.3624	2.53507
14.3227	2.5893
14.2833	2.64564
14.244	2.78458
14.205	2.95228
14.1662	2.98634
14.1276	3.05079
14.0892	3.18511
14.051	2.98706
14.0131	2.96349
13.9753	2.96555
13.9377	2.98342
13.9004	2.9614
13.8632	2.90508
13.8262	2.79805
13.7895	2.8142
13.7529	2.84827
13.7165	2.85601
13.6803	2.80512
13.6443	2.75894
13.6085	2.70246
13.5729	2.5539
13.5374	2.54869
13.5022	2.5599
13.4671	2.5032
13.4322	2.50043
13.3975	2.5497
13.363	2.51141
13.3286	2.50727
13.2944	2.64813
13.2604	2.53488
13.2266	2.50309
13.193	2.50537
13.1595	2.48763
13.1262	2.49934
13.093	2.43641
13.06	2.405
13.0272	2.39652
12.9946	2.37142
12.9621	2.34652
12.9298	2.40127
12.8976	2.31544
12.8656	2.25531
12.8337	2.25949
12.8021	2.28449
12.7705	2.28668
12.7391	2.27998
12.7079	2.20044
12.6769	2.01166
12.6459	1.96868
12.6152	1.98015
12.5845	1.91677
12.5541	1.93898
12.5238	1.95576
12.4936	1.98878
12.4635	1.97666
12.4337	1.96993
12.4039	2.28896
12.3743	2.47155
12.3448	2.5521
12.3155	2.62235
12.2863	2.77012
12.2573	3.05969
12.2284	3.39201
12.1996	3.61489
12.171	3.56887
12.1425	3.66941
12.1141	4.08062
12.0859	4.29803
12.0578	4.3958
12.0298	4.54014
12.0019	4.65128
11.9742	4.68879
11.9466	4.69635
11.9192	4.77895
11.8918	4.73435
11.8646	4.76891
11.8375	4.91353
11.8106	4.90706
11.7837	4.76865
11.757	4.89319
11.7304	4.97322
11.7039	4.93308
11.6776	4.97245
11.6513	4.93567
11.6252	4.94042
11.5992	4.95906
11.5733	4.94169
11.5475	4.9623
11.5219	4.93648
11.4963	4.99364
11.4709	5.04032
11.4455	5.04536
11.4203	5.04768
11.3952	5.10176
11.3702	5.08518
11.3454	5.13924
11.3206	5.12477
11.2959	5.12619
11.2714	5.18943
11.2469	5.19038
11.2226	5.24311
11.1983	5.31244
11.1742	5.15046
11.1502	4.9684
11.1263	4.98438
11.1024	5.14228
11.0787	5.25037
11.0551	5.35146
11.0316	5.42117
11.0081	5.41618
10.9848	5.41895
10.9616	5.45062
10.9385	5.54463
10.9154	5.55035
10.8925	5.6672
10.8697	5.70795
10.8469	5.73049
10.8243	5.90569
10.8017	5.97944
10.7793	5.99233
10.7569	6.15404
10.7346	6.24492
10.7125	6.29755
10.6904	6.44621
10.6684	6.51751
10.6465	6.58027
10.6247	6.75131
10.6029	6.84832
10.5813	6.96201
10.5597	7.21999
10.5383	7.39926
10.5169	7.47748
10.4956	7.61225
10.4744	7.85652
10.4533	8.02053
10.4323	8.24158
10.4113	8.47305
10.3904	8.65086
10.3697	8.8424
10.349	9.06769
10.3284	9.47925
10.3078	9.84612
10.2874	10.1789
10.267	10.4799
10.2467	10.6175
10.2265	10.8486
10.2064	11.2412
10.1863	11.6643
10.1663	12.0629
10.1464	12.4076
10.1266	12.6429
10.1069	12.9457
10.0872	13.3535
10.0676	13.7127
10.0481	14.0379
10.0287	14.3814
10.0093	14.8842
9.99005	15.3185
9.97084	15.589
9.95169	15.8403
9.93263	16.0874
9.91364	16.3905
9.89472	16.6802
9.87587	16.8565
9.8571	16.9548
9.83839	17.1661
9.81976	17.3838
9.80119	17.3806
9.78271	17.4367
9.76428	17.6169
9.74592	17.7473
9.72764	18.0074
9.70943	18.2035
9.69128	18.5633
9.6732	19.0449
9.65518	19.4202
9.63724	19.6784
9.61935	19.8791
9.60155	20.0049
9.5838	20.1301
9.56611	20.1972
9.5485	20.277
9.53094	20.2894
9.51345	20.0873
9.49604	19.8746
9.47867	19.7621
9.46137	19.4689
9.44414	18.9714
9.42697	18.1937
9.40986	17.2265
9.39281	16.3258
9.37583	15.6372
9.35891	14.828
9.34204	13.983
9.32524	13.4914
9.3085	13.0856
9.29182	12.6574
9.27519	12.2132
9.25863	12.0075
9.24213	11.9965
9.22568	12.0061
9.2093	11.9655
9.19297	11.984
9.17669	12.067
9.16048	12.0448
9.14433	11.9367
9.12823	11.8612
9.11218	11.7902
9.0962	11.6663
9.08027	11.4135
9.06439	11.3673
9.04858	11.4268
9.03281	11.5074
9.0171	11.5725
9.00145	11.4609
8.98585	11.438
8.9703	11.5574
8.9548	11.6342
8.93937	11.7831
8.92398	11.9838
8.90865	12.29
8.89337	12.5736
8.87814	12.946
8.86296	13.3612
8.84784	13.6234
8.83277	13.8908
8.81774	14.1384
8.80277	14.3967
8.78786	14.6838
8.77298	14.8789
8.75816	14.9776
8.7434	15.1307
8.72868	15.1657
8.714	15.0345
8.69938	15.0217
8.68481	14.9778
8.67029	14.9466
8.65581	14.9141
8.64139	14.776
8.62701	14.8167
8.61268	14.9157
8.5984	14.6726
8.58416	14.4973
8.56997	14.6618
8.55583	14.6644
8.54174	14.5415
8.52769	14.2823
8.51368	14.0241
8.49973	13.894
8.48582	13.8588
8.47195	13.6426
8.45813	13.2465
8.44436	12.8674
8.43062	12.6214
8.41693	12.3014
8.4033	11.9302
8.3897	11.4467
8.37614	10.9308
8.36264	10.4771
8.34917	10.0496
8.33574	9.5336
8.32236	8.8465
8.30903	8.19823
8.29573	7.54624
8.28248	6.82826
8.26927	6.29913
8.2561	5.79569
8.24298	5.18105
8.2299	4.56637
8.21685	3.97874
8.20385	3.51341
8.19089	3.20894
8.17797	2.96864
8.16509	2.51677
8.15225	2.13077
8.13946	1.88119
8.1267	1.62856
8.11398	1.42227
8.10131	1.20957
8.08867	0.973312
8.07606	0.789388
8.0635	0.768234
8.05099	0.668038
8.0385	0.498265
8.02606	0.506793
8.01366	0.502728
8.00129	0.416233
7.98896	0.387044
7.97667	0.330777
7.96442	0.351759
7.9522	0.324888
7.94002	0.2585
7.92788	0.230493
7.91578	0.207042
7.90371	0.156987
7.89168	0.130522
7.87969	0.173808
7.86773	0.102508
7.85581	0.0626271
7.84392	0.109837
7.83207	0.103584
7.82026	0.0993487
7.80849	0.0974697
7.79674	0.111849
7.78503	0.0695341
7.77337	0.121808
7.76173	0.252539
7.75012	0.265727
7.73856	0.1532
7.72703	0.120249
7.71553	0.24972
7.70406	0.263965
7.69263	0.171333
7.68123	0.218262
7.66987	0.233206
7.65855	0.225543
7.64725	0.298535
7.63598	0.26264
7.62475	0.170662
7.61356	0.201065
7.60239	0.344891
7.59126	0.423071
7.58017	0.338965
7.5691	0.343775
7.55806	0.444373
7.54707	0.425006
7.5361	0.463739
7.52516	0.414954
7.51425	0.39694
7.50338	0.39811
7.49253	0.472479
7.48172	0.519964
7.47094	0.458238
7.46019	0.478147
7.44947	0.575605
7.43879	0.659206
7.42813	0.700067
7.4175	0.676255
7.4069	0.711114
7.39634	0.762232
7.3858	0.751655
7.37529	0.738577
7.36482	0.758459
7.35437	0.872501
7.34396	0.938996
7.33357	0.961254
7.32321	0.993399
7.31288	1.04572
7.30258	1.06144
7.29231	1.05024
7.28207	1.07426
7.27185	1.09894
7.26167	1.12852
7.25152	1.17107
7.24139	1.2387
7.23129	1.31655
7.22122	1.36328
7.21117	1.41586
7.20116	1.49151
7.19117	1.51764
7.18121	1.54443
7.17128	1.55774
7.16137	1.65472
7.1515	1.7911
7.14164	1.86575
7.13182	1.82918
7.12203	1.89488
7.11225	1.94115
7.10251	1.94986
7.0928	1.95215
7.08311	2.02881
7.07344	2.14779
7.06381	2.29733
7.0542	2.46177
7.04461	2.5024
7.03506	2.40226
7.02552	2.38669
7.01601	2.42509
7.00653	2.45664
6.99708	2.53902
6.98765	2.6001
6.97824	2.58583
6.96886	2.65394
6.95951	2.7916
6.95018	2.73046
6.94087	2.72109
6.9316	2.70779
6.92234	2.73742
6.91311	2.79838
6.90391	2.81952
6.89473	2.84538
6.88557	2.9641
6.87644	3.06535
6.86733	3.1563
6.85824	3.17881
6.84918	3.17077
6.84015	3.13518
6.83114	3.13156
6.82215	3.17332
6.81319	3.13132
6.80424	3.1111
6.79532	3.23321
6.78643	3.29018
6.77756	3.26313
6.76871	3.29735
6.75989	3.26854
6.75109	3.23358
6.74231	3.26735
6.73355	3.38688
6.72482	3.50212
6.71611	3.58329
6.70742	3.61932
6.69875	3.60432
6.69011	3.70513
6.68149	3.79085
6.67289	3.76324
6.66431	3.74687
6.65576	3.7127
6.64722	3.78869
6.63871	3.98468
6.63022	3.94864
6.62175	3.83739
6.61331	3.85071
6.60488	3.93305
6.59648	4.06332
6.5881	4.07213
6.57974	4.14556
6.5714	4.21445
6.56308	4.1085
6.55478	4.0737
6.54651	4.12309
6.53825	4.12343
6.53001	4.109
6.5218	4.17604
6.51361	4.18936
6.50544	4.19799
6.49729	4.35286
6.48915	4.36694
6.48104	4.26765
6.47295	4.21427
6.46488	4.17051
6.45683	4.09916
6.4488	4.14632
6.44079	4.1878
6.4328	4.25399
6.42482	4.33486
6.41687	4.44744
6.40894	4.30331
6.40103	3.99435
6.39314	3.92314
6.38526	3.81313
6.37741	3.8142
6.36957	3.84855
6.36176	3.75835
6.35396	3.82834
6.34618	3.93299
6.33843	3.787
6.33069	3.63892
6.32297	3.62803
6.31527	3.6177
6.30758	3.60008
6.29992	3.60829
6.29227	3.58547
6.28465	3.53284
6.27704	3.47404
6.26945	3.44066
6.26188	3.48985
6.25432	3.62207
6.24679	3.6415
6.23927	3.61463
6.23177	3.67265
6.22429	3.69055
6.21683	3.71311
6.20938	3.7375
6.20195	3.75783
6.19454	3.78671
6.18715	3.85473
6.17978	3.81237
6.17242	3.86716
6.16508	3.98464
6.15776	3.92435
6.15045	3.88455
6.14317	4.01162
6.1359	4.01048
6.12864	4.03478
6.12141	4.19991
6.11419	4.42468
6.10699	4.37791
6.0998	4.30227
6.09263	4.33671
6.08549	4.32831
6.07835	4.4253
6.07123	4.50451
6.06413	4.50738
6.05705	4.67313
6.04998	4.99454
6.04293	4.9318
6.0359	4.73383
6.02888	4.71096
6.02187	4.72778
6.01489	4.78429
6.00792	4.84478
6.00096	4.93451
5.99403	5.02743
5.98711	5.01586
5.9802	4.9151
5.97331	4.95771
5.96644	4.98904
5.95958	4.91295
5.95274	4.93303
5.94591	5.04985
5.9391	5.21275
5.9323	5.11673
5.92552	4.98249
5.91876	4.94229
5.91201	4.86608
5.90528	4.92149
5.89856	5.17224
5.89186	5.13389
5.88517	5.11128
5.8785	5.05208
5.87184	4.79471
5.8652	4.88049
5.85857	4.86912
5.85196	4.73376
5.84536	4.63204
5.83878	4.58314
5.83221	4.63377
5.82566	4.75966
5.81912	4.7639
5.81259	4.56069
5.80608	4.42645
5.79959	4.39723
5.79311	4.36179
5.78665	4.31834
5.78019	4.36511
5.77376	4.42806
5.76734	4.51704
5.76093	4.40377
5.75453	4.32858
5.74815	4.3453
5.74179	4.23924
5.73543	4.16164
5.7291	4.14621
5.72277	4.17199
5.71646	4.15565
5.71017	4.09357
5.70389	4.02244
5.69762	4.01725
5.69136	4.04562
5.68513	4.03738
5.6789	4.03542
5.67268	4.07311
5.66648	4.06145
5.6603	3.99668
5.65413	3.92352
5.64797	3.97734
5.64182	4.08323
5.63569	4.10252
5.62957	4.04742
5.62347	3.99982
5.61737	4.02863
5.61129	4.08943
5.60522	4.09049
5.59917	4.06171
5.59313	4.10276
5.5871	4.22182
5.58109	4.32586
5.57509	4.42307
5.5691	4.45154
5.56312	4.51571
5.55716	4.57451
5.55121	4.68948
5.54528	4.79083
5.53935	4.88582
5.53344	4.95865
5.52754	5.0982
5.52166	5.32971
5.51578	5.43809
5.50992	5.52315
5.50407	5.60049
5.49823	5.73028
5.49241	5.88564
5.4866	6.0085
5.4808	6.08885
5.47501	6.10556
5.46923	6.24421
5.46347	6.44548
5.45772	6.54174
5.45198	6.65794
5.44625	6.78008
5.44054	6.83453
5.43484	6.95061
5.42914	7.09642
5.42347	7.30359
5.4178	7.31141
5.41214	7.30611
5.4065	7.46133
5.40087	7.59678
5.39525	7.69612
5.38964	7.80061
5.38404	7.79783
5.37846	7.90676
5.37288	8.07267
5.36732	8.11348
5.36177	8.17615
5.35623	8.34462
5.35071	8.45765
5.34519	8.50203
5.33968	8.58484
5.33419	8.63141
5.32871	8.63758
5.32324	8.69854
5.31778	8.79154
5.31233	8.95234
5.30689	8.96445
5.30147	8.96961
5.29605	9.13433
5.29065	9.28408
5.28525	9.38895
5.27987	9.53275
5.2745	9.68936
5.26914	9.79651
5.26379	9.9241
5.25845	10.1207
5.25312	10.2719
5.24781	10.4349
5.2425	10.6652
5.23721	10.8129
5.23192	10.9843
5.22665	11.2419
5.22138	11.5104
5.21613	11.8438
5.21089	12.0812
5.20566	12.2602
5.20044	12.5217
5.19522	12.7867
5.19002	13.0559
5.18483	13.3065
5.17965	13.5613
5.17448	13.8527
5.16933	14.1435
5.16418	14.4588
5.15904	14.8016
5.15391	15.1417
5.14879	15.5003
5.14368	15.7887
5.13859	15.9962
5.1335	16.3189
5.12842	16.657
5.12335	16.9869
5.1183	17.3802
5.11325	17.7919
5.10821	18.1284
5.10318	18.5328
5.09817	18.867
5.09316	19.3127
5.08816	19.7377
5.08317	19.9919
5.07819	20.2303
5.07322	20.6145
5.06826	21.0301
5.06331	21.3306
5.05837	21.6288
5.05344	21.9057
5.04852	22.1353
5.04361	22.4356
5.03871	22.6597
5.03382	22.9258
5.02894	23.2059
5.02406	23.4443
5.0192	23.6283
5.01435	23.7248
5.0095	23.8981
5.00467	24.0118
4.99984	24.0953
4.99502	24.2536
4.99021	24.3927
4.98542	24.5137
4.98063	24.6135
4.97585	24.6784
4.97108	24.7534
4.96632	24.7924
4.96156	24.7781
4.95682	24.7888
4.95209	24.7813
4.94736	24.764
4.94264	24.5895
4.93794	24.4038
4.93324	24.2687
4.92855	24.1922
4.92387	24.0791
4.9192	23.9083
4.91453	23.809
4.90988	23.8194
4.90524	23.7245
4.9006	23.6784
4.89597	23.6572
4.89135	23.7005
4.88674	23.7556
4.88214	23.7779
4.87755	23.7743
4.87296	23.8002
4.86839	23.8067
4.86382	23.7834
4.85926	23.6955
4.85471	23.697
4.85017	23.8816
4.84564	24.0188
4.84111	24.0009
4.8366	24.0077
4.83209	23.9696
4.82759	23.9261
4.8231	23.96
4.81862	24.0081
4.81415	24.0141
4.80968	24.0262
4.80522	23.9838
4.80077	23.8686
4.79633	23.8417
4.7919	23.9063
4.78747	23.9744
4.78306	24.0108
4.77865	23.9995
4.77425	23.9641
4.76986	24.0257
4.76547	24.1513
4.7611	24.2266
4.75673	24.2442
4.75237	24.2343
4.74802	24.2464
4.74367	24.3114
4.73934	24.4444
4.73501	24.554
4.73069	24.5685
4.72638	24.575
4.72207	24.6357
4.71777	24.6615
4.71348	24.6487
4.7092	24.6634
4.70493	24.7192
4.70066	24.7763
4.69641	24.8391
4.69216	24.8665
4.68791	24.8768
4.68368	24.94
4.67945	25.0682
4.67523	25.1316
4.67102	25.1901
4.66682	25.2604
4.66262	25.3232
4.65843	25.4499
4.65425	25.6061
4.65007	25.7871
4.64591	25.9267
4.64175	26.0576
4.6376	26.2665
4.63345	26.4453
4.62932	26.6224
4.62519	26.8524
4.62106	27.1064
4.61695	27.3463
4.61284	27.5534
4.60874	27.7816
4.60465	28.0516
4.60056	28.276
4.59648	28.5307
4.59241	28.8049
4.58835	29.0619
4.58429	29.3514
4.58024	29.6224
4.5762	29.9198
4.57216	30.2546
4.56814	30.5383
4.56411	30.8453
4.5601	31.2161
4.55609	31.5509
4.55209	31.8385
4.5481	32.1846
4.54411	32.5691
4.54013	32.9866
4.53616	33.3404
4.5322	33.6461
4.52824	34.002
4.52429	34.3867
4.52034	34.7073
4.51641	35.0596
4.51247	35.4671
4.50855	35.8154
4.50463	36.1365
4.50072	36.4506
4.49682	36.8118
4.49292	37.2316
4.48903	37.5592
4.48515	37.8384
4.48127	38.1372
4.4774	38.5347
4.47354	38.9371
4.46968	39.3033
4.46584	39.647
4.46199	39.9448
4.45815	40.3005
4.45432	40.7144
4.4505	41.0784
4.44668	41.4334
4.44287	41.8188
4.43907	42.1439
4.43527	42.4549
4.43148	42.8223
4.4277	43.1603
4.42392	43.4958
4.42015	43.8144
4.41638	44.1294
4.41262	44.5046
4.40887	44.9221
4.40513	45.2662
4.40139	45.5288
4.39765	45.8245
4.39393	46.1867
4.39021	46.5457
4.38649	46.9254
4.38278	47.3321
4.37908	47.7128
4.37539	48.0714
4.3717	48.5098
4.36801	48.9197
4.36434	49.2724
4.36067	49.6524
4.357	50.0127
4.35335	50.3454
4.34969	50.7502
4.34605	51.1993
4.34241	51.6352
4.33877	52.0015
4.33514	52.4947
4.33152	52.9223
4.32791	53.3794
4.3243	53.8243
4.32069	54.2329
4.3171	54.6658
4.31351	55.0997
4.30992	55.5043
4.30634	55.9621
4.30277	56.4186
4.2992	56.913
4.29564	57.3676
4.29208	57.7771
4.28853	58.1313
4.28499	58.517
4.28145	58.9162
4.27792	59.3043
4.27439	59.6246
4.27087	59.9643
4.26735	60.2371
4.26384	60.419
4.26034	60.5809
4.25684	60.8676
4.25335	61.3159
4.24986	61.7834
4.24638	62.148
4.24291	62.5311
4.23944	62.9216
4.23598	63.2306
4.23252	63.4743
4.22906	63.7136
4.22562	63.915
4.22218	64.0831
4.21874	64.2359
4.21531	64.382
4.21189	64.444
4.20847	64.5053
4.20506	64.6652
4.20165	64.8649
4.19825	64.965
4.19485	65.0783
4.19146	65.2798
4.18807	65.4424
4.18469	65.546
4.18132	65.7089
4.17795	65.7989
4.17458	65.8962
4.17123	66.0843
4.16787	66.1991
4.16453	66.2882
4.16118	66.4724
4.15785	66.6072
4.15451	66.6561
4.15119	66.7101
4.14787	66.8074
4.14455	66.8644
4.14124	66.9385
4.13794	67.0469
4.13464	67.1849
4.13134	67.2223
4.12805	67.3011
4.12477	67.4
4.12149	67.473
4.11822	67.5479
4.11495	67.6598
4.11168	67.7355
4.10843	67.6998
4.10517	67.6974
4.10192	67.6781
4.09868	67.7735
4.09545	67.944
4.09221	67.9378
4.08899	67.9387
4.08576	68.0047
4.08255	68.0385
4.07933	68.1021
4.07613	68.1722
4.07292	68.1088
4.06973	68.1288
4.06654	68.2113
4.06335	68.2581
4.06017	68.3216
4.05699	68.3916
4.05382	68.3619
4.05065	68.3528
4.04749	68.3583
4.04433	68.3698
4.04118	68.3502
4.03803	68.3165
4.03489	68.3596
4.03175	68.401
4.02862	68.3871
4.02549	68.4097
4.02237	68.4818
4.01925	68.4781
4.01614	68.436
4.01303	68.4627
4.00993	68.4257
4.00683	68.4853
4.00373	68.5753
4.00064	68.5932
3.99756	68.5737
3.99448	68.5295
3.9914	68.5612
3.98833	68.6663
3.98527	68.724
3.98221	68.6732
3.97915	68.6223
3.9761	68.687
3.97305	68.7664
3.97001	68.8377
3.96697	68.8551
3.96394	68.9167
3.96091	69.0277
3.95789	69.0938
3.95487	69.1829
3.95186	69.3546
3.94885	69.3353
3.94584	69.2797
3.94284	69.3241
3.93984	69.4083
3.93685	69.4919
3.93386	69.5423
3.93088	69.5403
3.9279	69.6548
3.92493	69.7679
3.92196	69.795
3.919	69.8341
3.91604	69.8864
3.91308	69.9755
3.91013	70.0776
3.90718	70.0854
3.90424	70.1116
3.9013	70.2012
3.89837	70.2924
3.89544	70.3562
3.89252	70.4301
3.8896	70.4849
3.88668	70.5309
3.88377	70.586
3.88086	70.6918
3.87796	70.753
3.87506	70.807
3.87217	70.8778
3.86928	70.937
3.86639	70.9944
3.86351	71.0787
3.86064	71.1932
3.85776	71.2828
3.8549	71.3375
3.85203	71.3938
3.84917	71.4425
3.84631	71.4967
3.84346	71.6455
3.84062	71.8443
3.83777	71.9281
3.83494	71.972
3.8321	72.0104
3.82927	72.1343
3.82644	72.2863
3.82362	72.414
3.82081	72.4492
3.81799	72.5395
3.81518	72.6703
3.81238	72.7214
3.80958	72.8105
3.80678	72.9296
3.80399	73.0049
3.8012	73.074
3.79841	73.1874
3.79563	73.3071
3.79286	73.376
3.79008	73.4575
3.78731	73.5352
3.78455	73.6352
3.78179	73.7883
3.77903	73.8679
3.77628	73.901
3.77353	73.919
3.77079	74.0159
3.76805	74.0971
3.76531	74.1017
3.76258	74.1346
3.75985	74.164
3.75713	74.2356
3.7544	74.3714
3.75169	74.4617
3.74898	74.5299
3.74627	74.6186
3.74356	74.6309
3.74086	74.7211
3.73816	74.8036
3.73547	74.7844
3.73278	74.8652
3.7301	74.9909
3.72741	75.0567
3.72474	75.0851
3.72206	75.1144
3.71939	75.1296
3.71673	75.1732
3.71406	75.265
3.71141	75.3254
3.70875	75.3597
3.7061	75.3545
3.70345	75.3416
3.70081	75.4035
3.69817	75.5093
3.69553	75.5752
3.6929	75.604
3.69027	75.6186
3.68765	75.6937
3.68503	75.7487
3.68241	75.7464
3.6798	75.7799
3.67719	75.8333
3.67458	75.9058
3.67198	76.0012
3.66938	76.0311
3.66678	76.017
3.66419	76.0166
3.66161	76.0431
3.65902	76.0748
3.65644	76.1196
3.65387	76.1316
3.65129	76.1623
3.64872	76.2359
3.64616	76.282
3.64359	76.315
3.64103	76.3539
3.63848	76.3285
3.63593	76.3107
3.63338	76.3259
3.63084	76.3172
3.6283	76.3285
3.62576	76.3901
3.62322	76.4661
3.62069	76.4743
3.61817	76.4811
3.61564	76.4403
3.61312	76.4049
3.61061	76.439
3.6081	76.4389
3.60559	76.4085
3.60308	76.4493
3.60058	76.5026
3.59808	76.4467
3.59558	76.4108
3.59309	76.4125
3.59061	76.4566
3.58812	76.4531
3.58564	76.3917
3.58316	76.3448
3.58069	76.2798
3.57822	76.2171
3.57575	76.2117
3.57328	76.208
3.57082	76.2241
3.56836	76.1944
3.56591	76.1777
3.56346	76.1979
3.56101	76.1728
3.55857	76.1277
3.55613	76.0917
3.55369	76.0077
3.55126	75.9801
3.54883	75.9656
3.5464	75.8783
3.54397	75.7635
3.54155	75.6458
3.53914	75.6137
3.53672	75.6497
3.53431	75.6157
3.5319	75.4623
3.5295	75.3471
3.5271	75.2834
3.5247	75.0917
3.52231	74.8861
3.51991	74.7018
3.51753	74.4803
3.51514	74.2517
3.51276	73.9913
3.51038	73.6794
3.50801	73.3582
3.50563	73.0525
3.50327	72.8985
3.5009	72.884
3.49854	72.8606
3.49618	72.9326
3.49382	72.9675
3.49147	72.9818
3.48912	72.9421
3.48677	72.9194
3.48443	72.9511
3.48209	72.9396
3.47975	72.8899
3.47742	72.8765
3.47509	72.8944
3.47276	72.8122
3.47044	72.8272
3.46812	72.8886
3.4658	72.905
3.46348	72.8822
3.46117	72.8813
3.45886	72.797
3.45656	72.6832
3.45425	72.5592
3.45195	72.4578
3.44966	72.355
3.44736	72.1836
3.44507	72.0396
3.44279	71.9224
3.4405	71.7194
3.43822	71.541
3.43594	71.3924
3.43367	71.2226
3.43139	71.0149
3.42912	70.7486
3.42686	70.4329
3.42459	70.1687
3.42233	69.9402
3.42007	69.7291
3.41782	69.5547
3.41557	69.4779
3.41332	69.4883
3.41108	69.6165
3.40883	69.7428
3.40659	69.8187
3.40435	69.9439
3.40212	70.0454
3.39989	70.0739
3.39766	70.1789
3.39544	70.2536
3.39322	70.2906
3.391	70.3479
3.38878	70.3566
3.38657	70.3325
3.38436	70.2701
3.38215	70.1357
3.37994	70.0268
3.37774	69.9667
3.37554	69.9902
3.37335	70.034
3.37115	70.0813
3.36896	70.1337
3.36678	70.2501
3.36459	70.3012
3.36241	70.3479
3.36023	70.4642
3.35805	70.5369
3.35588	70.6093
3.35371	70.5796
3.35154	70.5702
3.34938	70.6405
3.34721	70.7219
3.34505	70.7064
3.3429	70.6361
3.34074	70.6799
3.33859	70.7001
3.33644	70.7371
3.3343	70.7353
3.33215	70.6865
3.33001	70.6233
3.32788	70.5576
3.32574	70.5077
3.32361	70.556
3.32148	70.5362
3.31936	70.5022
3.31723	70.5475
3.31511	70.5305
3.31299	70.4193
3.31088	70.2327
3.30876	70.1207
3.30665	70.0972
3.30455	70.0926
3.30244	70.1016
3.30034	69.9578
3.29824	69.853
3.29614	69.8193
3.29405	69.7556
3.29196	69.6832
3.28987	69.6093
3.28778	69.4928
3.2857	69.4334
3.28362	69.419
3.28154	69.399
3.27946	69.3679
3.27739	69.2095
3.27532	69.0944
3.27325	69.0548
3.27119	69.0361
3.26913	68.9698
3.26707	68.8896
3.26501	68.818
3.26295	68.7534
3.2609	68.7205
3.25885	68.6369
3.2568	68.5575
3.25476	68.4421
3.25272	68.3684
3.25068	68.3093
3.24864	68.3049
3.24661	68.2742
3.24458	68.2692
3.24255	68.223
3.24052	68.1909
3.2385	68.1194
3.23648	67.993
3.23446	67.8856
3.23244	67.8525
3.23043	67.8729
3.22841	67.7864
3.2264	67.6673
3.2244	67.6216
3.22239	67.5829
3.22039	67.4874
3.21839	67.3932
3.2164	67.4131
3.2144	67.4065
3.21241	67.3564
3.21042	67.3017
3.20844	67.2335
3.20645	67.1637
3.20447	67.1272
3.20249	67.1092
3.20051	67.0864
3.19854	67.0247
3.19657	66.9418
3.1946	66.8925
3.19263	66.8409
3.19067	66.7442
3.1887	66.7438
3.18674	66.7893
3.18479	66.7206
3.18283	66.606
3.18088	66.4979
3.17893	66.4355
3.17698	66.364
3.17504	66.3533
3.17309	66.4246
3.17115	66.3562
3.16921	66.1994
3.16728	66.1077
3.16534	66.1106
3.16341	66.1435
3.16148	66.1197
3.15956	66.0685
3.15763	65.9828
3.15571	65.9243
3.15379	65.8745
3.15187	65.8106
3.14996	65.783
3.14805	65.7331
3.14614	65.6948
3.14423	65.6014
3.14232	65.5423
3.14042	65.5566
3.13852	65.5617
3.13662	65.4544
3.13472	65.3307
3.13283	65.2908
3.13094	65.3088
3.12905	65.2996
3.12716	65.2629
3.12528	65.2206
3.12339	65.1717
3.12151	65.1151
3.11964	65.1088
3.11776	65.0949
3.11589	64.9958
3.11401	64.9354
3.11214	64.9804
3.11028	64.9042
3.10841	64.8079
3.10655	64.7559
3.10469	64.7138
3.10283	64.6811
3.10098	64.6256
3.09912	64.5701
3.09727	64.5475
3.09542	64.4837
3.09358	64.4931
3.09173	64.5475
3.08989	64.5108
3.08805	64.4689
3.08621	64.4246
3.08437	64.4063
3.08254	64.3431
3.08071	64.3126
3.07888	64.3485
3.07705	64.2888
3.07523	64.2658
3.0734	64.2627
3.07158	64.2408
3.06977	64.2397
3.06795	64.1454
3.06613	64.0729
3.06432	64.181
3.06251	64.1498
3.0607	64.0217
3.0589	63.8955
3.0571	63.9162
3.05529	63.9582
3.05349	63.9779
3.0517	63.9822
3.0499	63.9769
3.04811	63.935
3.04632	63.8859
3.04453	63.8705
3.04274	63.925
3.04096	63.9563
3.03918	63.8623
3.0374	63.8288
3.03562	63.9073
3.03384	63.9325
3.03207	63.8608
3.03029	63.875
3.02852	63.9454
3.02676	63.9194
3.02499	63.766
3.02323	63.6401
3.02146	63.6982
3.0197	63.7481
3.01795	63.6993
3.01619	63.6174
3.01444	63.6757
3.01269	63.6683
3.01094	63.5766
3.00919	63.5902
3.00744	63.6739
3.0057	63.6463
3.00396	63.5672
3.00222	63.4334
3.00048	63.3537
2.99875	63.3641
2.99701	63.2822
2.99528	63.2349
2.99355	63.3117
2.99183	63.2781
2.9901	63.1577
2.98838	63.147
2.98666	63.1572
2.98494	63.1004
2.98322	63.1095
2.9815	63.1187
2.97979	63.0254
2.97808	62.9956
2.97637	62.9465
2.97466	62.8558
2.97295	62.8208
2.97125	62.8495
2.96955	62.8761
2.96785	62.8887
2.96615	62.8558
2.96446	62.7647
2.96276	62.7629
2.96107	62.7649
2.95938	62.726
2.95769	62.744
2.95601	62.7397
2.95432	62.6719
2.95264	62.6228
2.95096	62.6159
2.94928	62.6182
2.9476	62.6543
2.94593	62.6381
2.94425	62.623
2.94258	62.4989
2.94092	62.43
2.93925	62.4101
2.93758	62.3461
2.93592	62.346
2.93426	62.3058
2.9326	62.3941
2.93094	62.4265
2.92928	62.4283
2.92763	62.3751
2.92598	62.3016
2.92433	62.3665
2.92268	62.4648
2.92103	62.4265
2.91939	62.3788
2.91775	62.3426
2.9161	62.3662
2.91447	62.3603
2.91283	62.4001
2.91119	62.3847
2.90956	62.2751
2.90793	62.3123
2.9063	62.4136
2.90467	62.4674
2.90304	62.4419
2.90142	62.4362
2.89979	62.497
2.89817	62.5491
2.89656	62.5441
2.89494	62.5759
2.89332	62.5959
2.89171	62.5593
2.8901	62.4968
2.88849	62.5914
2.88688	62.6914
2.88527	62.7766
2.88367	62.853
2.88206	62.7852
2.88046	62.7842
2.87886	62.8709
2.87727	63.0593
2.87567	63.1311
2.87408	63.2675
2.87248	63.4396
2.87089	63.4637
2.8693	63.4766
2.86772	63.4735
2.86613	63.4879
2.86455	63.5535
2.86297	63.5967
2.86139	63.6426
2.85981	63.7715
2.85823	63.8595
2.85666	63.873
2.85508	63.9961
2.85351	64.143
2.85194	64.2052
2.85038	64.2901
2.84881	64.3486
2.84724	64.2404
2.84568	64.3295
2.84412	64.5313
2.84256	64.5906
2.841	64.5985
2.83945	64.7119
2.83789	64.9372
2.83634	64.9885
2.83479	64.9062
2.83324	65.0257
2.83169	65.0346
2.83015	64.9735
2.82861	65.0598
2.82706	65.1939
2.82552	65.225
2.82398	65.1939
2.82245	65.3134
2.82091	65.6317
2.81938	65.8536
2.81784	65.7073
2.81631	65.7382
2.81479	65.8648
2.81326	65.7848
2.81173	65.7964
2.81021	65.9936
2.80869	66.0955
2.80716	66.1734
2.80565	66.4407
2.80413	66.8595
2.80261	67.0385
2.8011	66.6531
2.79959	66.422
2.79808	66.5238
2.79657	66.4997
2.79506	66.4389
2.79355	66.5134
2.79205	66.6156
2.79055	66.6939
2.78904	67.0474
2.78754	67.5178
2.78605	67.1984
2.78455	66.804
2.78306	66.9358
2.78156	66.9341
2.78007	66.8433
2.77858	66.9356
2.77709	67.1068
2.77561	67.1771
2.77412	67.3904
2.77264	67.8855
2.77116	68.3513
2.76968	68.1537
2.7682	68.1481
2.76672	68.0422
2.76524	67.7115
2.76377	67.9309
2.7623	67.8883
2.76083	67.564
2.75936	67.8877
2.75789	68.7652
2.75642	70.5629
2.75496	71.4087
2.7535	70.4117
2.75203	70.3166
2.75057	70.4735
2.74912	70.7368
2.74766	71.0133
2.7462	71.2505
2.74475	71.3779
2.7433	71.8598
2.74185	73.2467
2.7404	74.2984
2.73895	73.9523
2.7375	72.9125
2.73606	73.2318
2.73462	73.8672
2.73318	73.5616
2.73174	73.6273
2.7303	73.8584
2.72886	74.0678
2.72742	74.5125
2.72599	75.7733
2.72456	77.0293
2.72313	76.6504
2.7217	77.4004
2.72027	78.558
2.71884	77.3233
2.71742	76.7976
2.71599	76.5518
2.71457	76.4788
2.71315	76.722
2.71173	77.892
2.71032	77.9808
2.7089	76.6369
2.70748	75.3805
2.70607	74.7818
2.70466	74.5048
2.70325	74.7044
2.70184	75.837
2.70043	76.7001
2.69903	77.4299
2.69762	78.6498
2.69622	80.239
2.69482	81.9253
2.69342	82.7983
2.69202	82.3729
2.69062	82.4483
2.68923	83.0515
2.68783	83.6923
2.68644	84.2954
2.68505	84.5427
2.68366	84.7869
2.68227	84.7764
2.68089	85.1379
2.6795	86.4228
2.67812	87.0795
2.67673	87.5915
2.67535	86.8325
2.67397	86.1106
2.6726	86.6212
2.67122	88.9768
2.66984	89.5751
2.66847	88.3986
2.6671	89.676
2.66572	90.1846
2.66435	89.1997
2.66299	87.8782
2.66162	87.954
2.66025	88.1491
2.65889	88.0134
2.65753	87.592
2.65616	88.0121
2.65481	88.0663
2.65345	88.2462
2.65209	88.4236
2.65073	87.9098
2.64938	87.717
2.64803	87.9368
2.64667	88.2658
2.64532	88.4265
2.64397	87.9948
2.64263	88.1099
2.64128	88.1413
2.63994	87.9888
2.63859	87.9199
2.63725	88.0087
2.63591	88.0982
2.63457	88.6547
2.63323	88.7213
2.6319	89.0832
2.63056	90.3122
2.62923	89.4142
2.62789	89.0073
2.62656	89.7695
2.62523	88.7241
2.6239	88.0772
2.62258	88.2683
2.62125	89.5732
2.61993	90.005
2.6186	89.4679
2.61728	90.4799
2.61596	89.9996
2.61464	88.8216
2.61332	88.8991
2.61201	88.6306
2.61069	88.8076
2.60938	89.1349
2.60807	89.1826
2.60675	89.9047
2.60544	90.6786
2.60414	89.9725
2.60283	89.2111
2.60152	88.9368
2.60022	88.6122
2.59891	88.3436
2.59761	88.8492
2.59631	90.7
2.59501	92.9009
2.59371	91.1855
2.59242	88.973
2.59112	88.595
2.58983	88.8774
2.58853	89.3687
2.58724	89.6857
2.58595	89.1961
2.58466	89.9362
2.58338	90.1203
2.58209	89.2791
2.5808	89.1511
2.57952	88.5952
2.57824	88.8779
2.57695	89.4766
2.57567	89.027
2.5744	89.1387
2.57312	89.6314
2.57184	88.9398
2.57057	89.1332
2.56929	89.2732
2.56802	88.6669
2.56675	88.5693
2.56548	89.1296
2.56421	89.7058
2.56294	89.8655
2.56168	89.9915
2.56041	89.5384
2.55915	88.721
2.55789	88.3251
2.55662	88.3125
2.55536	88.3571
2.5541	88.664
2.55285	89.0539
2.55159	88.9755
2.55034	88.7685
2.54908	88.6268
2.54783	88.772
2.54658	88.6013
2.54533	88.5533
2.54408	88.6845
2.54283	88.7897
2.54159	88.6839
2.54034	88.4461
2.5391	88.3614
2.53785	88.4381
2.53661	88.7595
2.53537	88.7815
2.53413	88.5287
2.53289	88.6359
2.53166	88.6363
2.53042	88.5163
2.52919	88.4215
2.52795	88.4654
2.52672	88.5068
2.52549	88.4919
2.52426	88.5851
2.52303	88.6132
2.52181	88.5398
2.52058	88.5131
2.51936	88.5552
2.51813	88.5742
2.51691	88.5762
2.51569	88.6431
2.51447	88.6815
2.51325	88.64
2.51203	88.6133
2.51082	88.5422
2.5096	88.4097
2.50839	88.3855
2.50717	88.4897
2.50596	88.5788
2.50475	88.5501
2.50354	88.4853
2.50233	88.5943
2.50113	88.7664
2.49992	88.7607
2.49872	88.5747
2.49751	88.5039
2.49631	88.6743
2.49511	88.8122
2.49391	88.7304
2.49271	88.6097
2.49151	88.6813
2.49031	88.7152
2.48912	88.7875
2.48792	88.7659
2.48673	88.6767
2.48554	88.7268
2.48435	88.7431
2.48316	88.8109
2.48197	88.7754
2.48078	88.6538
2.4796	88.7273
2.47841	88.7999
2.47723	88.8252
2.47604	88.8391
2.47486	88.8844
2.47368	88.9258
2.4725	88.902
2.47132	88.8628
2.47014	88.8647
2.46897	88.8982
2.46779	88.9181
2.46662	88.9103
2.46545	88.8753
2.46427	88.931
2.4631	88.958
2.46193	88.9376
2.46077	88.9108
2.4596	88.9458
2.45843	88.9951
2.45727	89.0189
2.4561	89.0109
2.45494	89.0082
2.45378	88.9826
2.45262	89.0318
2.45146	89.0589
2.4503	89.1267
2.44914	89.1665
2.44799	89.1438
2.44683	89.1631
2.44568	89.1869
2.44452	89.143
2.44337	89.1199
2.44222	89.2898
2.44107	89.3416
2.43992	89.1686
2.43877	89.1383
2.43763	89.098
2.43648	89.1581
2.43534	89.3422
2.43419	89.3691
2.43305	89.2711
2.43191	89.2267
2.43077	89.258
2.42963	89.3701
2.42849	89.4375
2.42736	89.4422
2.42622	89.2922
2.42509	89.2795
2.42395	89.4034
2.42282	89.4948
2.42169	89.516
2.42056	89.4463
2.41943	89.4125
2.4183	89.4742
2.41717	89.4863
2.41605	89.3869
2.41492	89.3675
2.4138	89.4357
2.41267	89.5095
2.41155	89.5675
2.41043	89.5952
2.40931	89.5344
2.40819	89.5403
2.40707	89.6223
2.40595	89.6878
2.40484	89.6296
2.40372	89.5637
2.40261	89.5687
2.4015	89.629
2.40039	89.6491
2.39928	89.5971
2.39817	89.5735
2.39706	89.6748
2.39595	89.6695
2.39484	89.6673
2.39374	89.6265
2.39263	89.4973
2.39153	89.4697
2.39043	89.5135
2.38932	89.6258
2.38822	89.6506
2.38712	89.6788
2.38603	89.8125
2.38493	89.8366
2.38383	89.6442
2.38274	89.5051
2.38164	89.5691
2.38055	89.777
2.37946	89.8263
2.37836	89.6964
2.37727	89.6329
2.37618	89.6818
2.3751	89.8806
2.37401	89.9566
2.37292	89.7853
2.37184	89.7148
2.37075	89.7565
2.36967	89.759
2.36859	89.7169
2.3675	89.7547
2.36642	89.7507
2.36534	89.7687
2.36427	89.9049
2.36319	89.9498
2.36211	89.8989
2.36104	89.7947
2.35996	89.7739
2.35889	89.6989
2.35781	89.6092
2.35674	89.6142
2.35567	89.6254
2.3546	89.7161
2.35353	89.7956
2.35247	89.7685
2.3514	89.7897
2.35033	89.7411
2.34927	89.6688
2.3482	89.6863
2.34714	89.7153
2.34608	89.6757
2.34502	89.6609
2.34396	89.6637
2.3429	89.6166
2.34184	89.4964
2.34078	89.5286
2.33973	89.6606
2.33867	89.726
2.33762	89.805
2.33656	89.9033
2.33551	89.9163
2.33446	89.8062
2.33341	89.7518
2.33236	89.7107
2.33131	89.7998
2.33026	89.8806
2.32922	89.9179
2.32817	89.8991
2.32712	89.8289
2.32608	89.7489
2.32504	89.7139
2.324	89.7344
2.32295	89.7787
2.32191	89.8394
2.32087	89.8427
2.31984	89.8186
2.3188	89.7599
2.31776	89.6544
2.31673	89.645
2.31569	89.6826
2.31466	89.7793
2.31362	89.8755
2.31259	89.8474
2.31156	89.7602
2.31053	89.7237
2.3095	89.7528
2.30847	89.8447
2.30745	89.8343
2.30642	89.7817
2.3054	89.6822
2.30437	89.7429
2.30335	89.7879
2.30232	89.8218
2.3013	89.8641
2.30028	89.778
2.29926	89.8305
2.29824	89.8482
2.29722	89.7335
2.29621	89.6989
2.29519	89.7609
2.29417	89.8047
2.29316	89.7808
2.29215	89.8293
2.29113	89.9258
2.29012	89.9068
2.28911	89.7796
2.2881	89.6941
2.28709	89.7155
2.28608	89.7545
2.28507	89.7022
2.28407	89.6519
2.28306	89.7331
2.28206	89.7412
2.28105	89.8438
2.28005	89.8194
2.27905	89.7277
2.27805	89.8664
2.27705	89.8902
2.27605	89.8972
2.27505	89.7651
2.27405	89.6521
2.27305	89.7238
2.27206	89.8035
2.27106	89.7687
2.27007	89.7633
2.26907	89.8624
2.26808	89.8739
2.26709	89.7593
2.2661	89.7879
2.26511	89.8298
2.26412	89.8075
2.26313	89.7866
2.26214	89.8702
2.26116	89.878
2.26017	89.9429
2.25919	89.9798
2.2582	89.8337
2.25722	89.7948
2.25624	89.7547
2.25526	89.7066
2.25428	89.8306
2.2533	89.8736
2.25232	89.8869
2.25134	89.8226
2.25036	89.78
2.24939	89.88
2.24841	89.9853
2.24744	89.913
2.24646	89.881
2.24549	89.9478
2.24452	89.9028
2.24355	89.8684
2.24257	89.9268
2.24161	90.0325
2.24064	89.9935
2.23967	89.8541
2.2387	89.9788
2.23774	90.0526
2.23677	89.951
2.23581	89.8931
2.23484	89.929
2.23388	90.0059
2.23292	90.1221
2.23196	90.0177
2.231	89.8928
2.23004	89.9534
2.22908	89.9371
2.22812	89.8609
2.22716	89.838
2.22621	89.742
2.22525	89.6658
2.2243	89.7379
2.22334	89.8344
2.22239	89.9046
2.22144	89.9318
2.22049	89.8789
2.21953	89.8113
2.21859	89.8602
2.21764	89.8741
2.21669	89.8379
2.21574	89.993
2.21479	89.9933
2.21385	89.9906
2.2129	89.9377
2.21196	89.9314
2.21102	89.9354
2.21007	89.8003
2.20913	89.7486
2.20819	89.775
2.20725	89.8363
2.20631	89.8059
2.20537	89.7488
2.20444	89.7909
2.2035	89.6834
2.20256	89.7144
2.20163	89.8275
2.20069	89.8234
2.19976	89.8107
2.19883	89.8674
2.19789	89.9603
2.19696	90.0776
2.19603	90.0295
2.1951	89.9111
2.19417	89.787
2.19325	89.7537
2.19232	89.8667
2.19139	89.9643
2.19047	89.9921
2.18954	89.9483
2.18862	89.8037
2.18769	89.8478
2.18677	89.9848
2.18585	90.012
2.18493	89.9701
2.18401	89.9865
2.18309	89.9659
2.18217	89.9399
2.18125	89.9864
2.18033	89.9512
2.17942	89.9512
2.1785	89.9131
2.17759	89.8388
2.17667	89.9946
2.17576	90.1506
2.17485	90.1055
2.17393	89.9993
2.17302	89.9214
2.17211	89.9249
2.1712	90.0007
2.17029	90.0113
2.16939	90.003
2.16848	90.0481
2.16757	90.1007
2.16667	90.1065
2.16576	90.0221
2.16486	89.953
2.16395	90.0465
2.16305	90.1875
2.16215	90.1536
2.16125	90.1612
2.16035	90.227
2.15945	90.1694
2.15855	90.1449
2.15765	90.2259
2.15675	90.2272
2.15586	90.1122
2.15496	90.2172
2.15406	90.2915
2.15317	90.1672
2.15228	90.0492
2.15138	90.1252
2.15049	90.1845
2.1496	90.1163
2.14871	90.1282
2.14782	90.2971
2.14693	90.2678
2.14604	90.1928
2.14515	90.0445
2.14427	89.8391
2.14338	89.8673
2.14249	90.1369
2.14161	90.2772
2.14072	90.278
2.13984	90.3423
2.13896	90.4798
2.13808	90.5641
2.13719	90.3663
2.13631	90.2733
2.13543	90.1992
2.13455	90.0414
2.13368	90.265
2.1328	90.3357
2.13192	90.2492
2.13105	90.2391
2.13017	90.2625
2.1293	90.4278
2.12842	90.4827
2.12755	90.419
2.12668	90.3792
2.1258	90.3091
2.12493	90.1955
2.12406	90.2525
2.12319	90.3492
2.12232	90.2812
2.12145	90.2754
2.12059	90.2629
2.11972	90.2894
2.11885	90.2616
2.11799	90.2253
2.11712	90.2657
2.11626	90.401
2.1154	90.444
2.11453	90.4096
2.11367	90.3056
2.11281	90.3531
2.11195	90.4128
2.11109	90.4808
2.11023	90.369
2.10937	90.1301
2.10851	90.1969
2.10766	90.207
2.1068	90.0809
2.10594	90.0607
2.10509	90.1852
2.10423	90.4058
2.10338	90.3638
2.10253	90.2609
2.10168	90.3031
2.10082	90.5741
2.09997	90.4468
2.09912	90.245
2.09827	90.365
2.09742	90.3866
2.09658	90.2023
2.09573	90.2276
2.09488	90.3718
2.09404	90.2296
2.09319	90.1782
2.09235	90.1351
2.0915	90.0253
2.09066	90.2126
2.08982	90.3518
2.08897	90.439
2.08813	90.5368
2.08729	90.5229
2.08645	90.3766
2.08561	90.4583
2.08477	90.5096
2.08394	90.2764
2.0831	90.2369
2.08226	90.2448
2.08143	90.1537
2.08059	90.2859
2.07976	90.3061
2.07892	90.2356
2.07809	90.3933
2.07726	90.5182
2.07643	90.3781
2.07559	90.1666
2.07476	90.0964
2.07393	90.0279
2.0731	90.0249
2.07228	90.2496
2.07145	90.4698
2.07062	90.4214
2.06979	90.5209
2.06897	90.5734
2.06814	90.3084
2.06732	90.1893
2.06649	90.3138
2.06567	90.4027
2.06485	90.4578
2.06403	90.4494
2.0632	90.1944
2.06238	90.1827
2.06156	90.3926
2.06074	90.371
2.05993	90.3956
2.05911	90.413
2.05829	90.3769
2.05747	90.1783
2.05666	89.9715
2.05584	90.0694
2.05503	90.284
2.05421	90.2298
2.0534	90.2919
2.05259	90.5308
2.05177	90.6096
2.05096	90.4519
2.05015	90.2428
2.04934	90.2941
2.04853	90.2617
2.04772	90.2626
2.04691	90.2369
2.04611	90.2109
2.0453	90.3204
2.04449	90.4298
2.04369	90.4192
2.04288	90.2881
2.04208	90.2113
2.04127	90.2173
2.04047	90.3797
2.03967	90.4604
2.03886	90.3805
2.03806	90.3267
2.03726	90.1864
2.03646	90.2698
2.03566	90.3304
2.03486	90.2882
2.03407	90.2048
2.03327	90.2289
2.03247	90.2218
2.03167	90.3061
2.03088	90.203
2.03008	90.188
2.02929	90.359
2.0285	90.5242
2.0277	90.4535
2.02691	90.4514
2.02612	90.4541
2.02533	90.2594
2.02453	90.2774
2.02374	90.3854
2.02295	90.3987
2.02217	90.4119
2.02138	90.1847
2.02059	90.0947
2.0198	90.2787
2.01902	90.412
2.01823	90.4045
2.01744	90.4119
2.01666	90.223
2.01588	90.0836
2.01509	90.2616
2.01431	90.4045
2.01353	90.3672
2.01275	90.3369
2.01196	90.3062
2.01118	90.317
2.0104	90.3267
2.00963	90.4872
2.00885	90.5778
2.00807	90.2974
2.00729	90.1417
2.00651	90.2864
2.00574	90.2533
2.00496	90.2073
2.00419	90.283
2.00341	90.2916
2.00264	90.2245
2.00187	90.1544
2.00109	90.1397
2.00032	90.1748
