Name: Anthophyllite (Mg,Fe^2+)_7Si_8O_22(OH)_2
Type: Mineral
Class: Silicates
Subclass: Inosilicates
Particle Size: 45-125um
Sample No.: IN-8A
Owner: JPL
Wavelength range: IR
Origin: USA, North Carolina
Collected by Ward's
Description: 





Measurement: Hemispherical reflectance
First Column: X
Second Column: Y
X Units:  Wavelength (micrometers)
Y Units:  Reflectance (percent)
First X Value: 15.3853
Last X Value: 2.00032
Number of X Values: 2256
Additional information: in08aa.txt
 
15.3853	4.66703
15.3397	4.94795
15.2945	4.95307
15.2495	4.76326
15.2048	4.97824
15.1603	5.314
15.1161	5.42064
15.0722	5.8232
15.0285	6.73409
14.9851	7.86538
14.9419	9.00131
14.8989	10.1172
14.8563	11.1053
14.8138	11.4577
14.7716	11.348
14.7296	11.0045
14.6879	10.3989
14.6464	9.51917
14.6052	8.63539
14.5641	7.72611
14.5233	6.51738
14.4828	5.20429
14.4424	3.97207
14.4023	3.00661
14.3624	2.25389
14.3227	1.84979
14.2833	1.65999
14.244	1.4755
14.205	1.18112
14.1662	1.09169
14.1276	1.22631
14.0892	1.32426
14.051	1.34658
14.0131	1.38485
13.9753	1.51414
13.9377	1.67381
13.9004	1.89596
13.8632	2.20875
13.8262	2.29341
13.7895	2.35346
13.7529	2.45707
13.7165	2.63146
13.6803	2.84734
13.6443	2.80803
13.6085	2.89702
13.5729	3.31076
13.5374	3.59003
13.5022	3.73894
13.4671	3.93249
13.4322	4.11894
13.3975	4.24125
13.363	4.24936
13.3286	4.2919
13.2944	4.35102
13.2604	4.30469
13.2266	4.36973
13.193	4.32969
13.1595	4.57762
13.1262	4.94943
13.093	4.98827
13.06	5.02039
13.0272	5.22243
12.9946	5.26171
12.9621	5.28874
12.9298	5.3543
12.8976	5.26402
12.8656	4.87203
12.8337	4.53579
12.8021	4.59446
12.7705	4.76518
12.7391	4.7347
12.7079	4.74298
12.6769	4.98774
12.6459	5.20807
12.6152	5.57096
12.5845	5.89733
12.5541	6.13923
12.5238	6.45173
12.4936	6.56006
12.4635	6.59884
12.4337	6.75499
12.4039	7.04614
12.3743	7.12222
12.3448	7.18815
12.3155	7.36781
12.2863	7.46767
12.2573	7.5842
12.2284	7.74056
12.1996	7.8012
12.171	7.91396
12.1425	8.11582
12.1141	8.41324
12.0859	8.61831
12.0578	8.80629
12.0298	8.98146
12.0019	9.11822
11.9742	9.06753
11.9466	9.11153
11.9192	9.20229
11.8918	9.22776
11.8646	9.17944
11.8375	9.15784
11.8106	9.20955
11.7837	9.24648
11.757	9.38218
11.7304	9.53433
11.7039	9.67199
11.6776	9.73445
11.6513	9.81226
11.6252	9.90178
11.5992	9.90548
11.5733	9.97937
11.5475	10.1783
11.5219	10.3939
11.4963	10.4718
11.4709	10.6609
11.4455	10.8703
11.4203	11.0282
11.3952	11.1642
11.3702	11.1737
11.3454	11.0889
11.3206	11.0597
11.2959	11.0863
11.2714	11.1228
11.2469	11.0614
11.2226	11.0427
11.1983	11.0529
11.1742	10.891
11.1502	10.637
11.1263	10.541
11.1024	10.5611
11.0787	10.6074
11.0551	10.6612
11.0316	10.6129
11.0081	10.4131
10.9848	10.1999
10.9616	10.2159
10.9385	10.3881
10.9154	10.462
10.8925	10.6044
10.8697	10.6723
10.8469	10.6925
10.8243	10.8751
10.8017	11.092
10.7793	11.2811
10.7569	11.3582
10.7346	11.3789
10.7125	11.3822
10.6904	11.433
10.6684	11.5512
10.6465	11.5849
10.6247	11.5355
10.6029	11.376
10.5813	11.353
10.5597	11.3383
10.5383	11.2913
10.5169	11.1737
10.4956	11.0592
10.4744	11.0133
10.4533	10.8323
10.4323	10.4798
10.4113	10.1985
10.3904	10.2217
10.3697	10.2272
10.349	10.0429
10.3284	9.98594
10.3078	10.0074
10.2874	10.1343
10.267	10.2651
10.2467	10.3568
10.2265	10.4428
10.2064	10.6841
10.1863	10.8633
10.1663	10.8696
10.1464	10.9478
10.1266	10.9608
10.1069	10.8579
10.0872	10.7692
10.0676	10.6896
10.0481	10.6903
10.0287	10.8437
10.0093	10.9958
9.99005	11.2338
9.97084	11.55
9.95169	11.9555
9.93263	12.6762
9.91364	13.6768
9.89472	14.7511
9.87587	15.9254
9.8571	17.2578
9.83839	18.6748
9.81976	19.9905
9.80119	21.0176
9.78271	21.7413
9.76428	22.3303
9.74592	22.8775
9.72764	23.3378
9.70943	23.6661
9.69128	23.8534
9.6732	24.0631
9.65518	24.2304
9.63724	24.236
9.61935	24.2739
9.60155	24.1981
9.5838	23.8664
9.56611	23.3855
9.5485	22.881
9.53094	22.2212
9.51345	21.3504
9.49604	20.4617
9.47867	20.1289
9.46137	20.3273
9.44414	20.8029
9.42697	21.4119
9.40986	22.0806
9.39281	22.6381
9.37583	23.0835
9.35891	23.3833
9.34204	23.6423
9.32524	23.8319
9.3085	23.8828
9.29182	23.9078
9.27519	23.9598
9.25863	23.8529
9.24213	23.5722
9.22568	23.2411
9.2093	23.0243
9.19297	22.7211
9.17669	22.4236
9.16048	22.2824
9.14433	22.3355
9.12823	22.5922
9.11218	22.7126
9.0962	22.5759
9.08027	22.506
9.06439	22.5183
9.04858	22.2817
9.03281	21.9885
9.0171	21.9261
9.00145	21.9441
8.98585	21.901
8.9703	21.7475
8.9548	21.6185
8.93937	21.4862
8.92398	21.1715
8.90865	20.8376
8.89337	20.4729
8.87814	20.2382
8.86296	20.1501
8.84784	19.9641
8.83277	19.7503
8.81774	19.6158
8.80277	19.467
8.78786	19.2678
8.77298	19.1605
8.75816	18.9794
8.7434	18.74
8.72868	18.3481
8.714	17.9038
8.69938	17.613
8.68481	17.1109
8.67029	16.324
8.65581	15.5141
8.64139	14.8422
8.62701	14.3122
8.61268	13.6987
8.5984	13.032
8.58416	12.3186
8.56997	11.7319
8.55583	11.0665
8.54174	10.3171
8.52769	9.64025
8.51368	9.24968
8.49973	8.8214
8.48582	8.10819
8.47195	7.58164
8.45813	7.18681
8.44436	6.86248
8.43062	6.43297
8.41693	5.96109
8.4033	5.61332
8.3897	5.3491
8.37614	4.95581
8.36264	4.57229
8.34917	4.36449
8.33574	4.06438
8.32236	3.78269
8.30903	3.5393
8.29573	3.33786
8.28248	3.13996
8.26927	3.00735
8.2561	2.95522
8.24298	2.85844
8.2299	2.77811
8.21685	2.64365
8.20385	2.50666
8.19089	2.36667
8.17797	2.36478
8.16509	2.30553
8.15225	2.1873
8.13946	2.15021
8.1267	2.25287
8.11398	2.31495
8.10131	2.21643
8.08867	2.26
8.07606	2.33833
8.0635	2.27494
8.05099	2.27752
8.0385	2.26822
8.02606	2.28703
8.01366	2.29125
8.00129	2.31648
7.98896	2.30362
7.97667	2.3826
7.96442	2.49845
7.9522	2.59496
7.94002	2.60589
7.92788	2.65075
7.91578	2.76371
7.90371	2.81629
7.89168	2.88494
7.87969	2.95746
7.86773	2.95638
7.85581	2.95731
7.84392	3.02912
7.83207	3.23502
7.82026	3.33744
7.80849	3.30493
7.79674	3.34743
7.78503	3.46256
7.77337	3.4894
7.76173	3.48185
7.75012	3.49278
7.73856	3.52743
7.72703	3.48617
7.71553	3.547
7.70406	3.7592
7.69263	3.86267
7.68123	3.88117
7.66987	3.9852
7.65855	4.02807
7.64725	4.03186
7.63598	4.00639
7.62475	4.07707
7.61356	4.2093
7.60239	4.28432
7.59126	4.3687
7.58017	4.51631
7.5691	4.62005
7.55806	4.64628
7.54707	4.68506
7.5361	4.83579
7.52516	4.99794
7.51425	5.16203
7.50338	5.23483
7.49253	5.28108
7.48172	5.33412
7.47094	5.48817
7.46019	5.68895
7.44947	5.7363
7.43879	5.76091
7.42813	5.76612
7.4175	5.84297
7.4069	5.95402
7.39634	5.96753
7.3858	6.03037
7.37529	6.19705
7.36482	6.35759
7.35437	6.54697
7.34396	6.70471
7.33357	6.75992
7.32321	6.80593
7.31288	6.94978
7.30258	7.13745
7.29231	7.27931
7.28207	7.37428
7.27185	7.44412
7.26167	7.48428
7.25152	7.56046
7.24139	7.56568
7.23129	7.65234
7.22122	7.76868
7.21117	7.79526
7.20116	7.72459
7.19117	7.71178
7.18121	7.83978
7.17128	8.04657
7.16137	8.1039
7.1515	8.28938
7.14164	8.40485
7.13182	8.43658
7.12203	8.59652
7.11225	8.78425
7.10251	8.86292
7.0928	8.98528
7.08311	9.10421
7.07344	9.14981
7.06381	9.20525
7.0542	9.43332
7.04461	9.728
7.03506	9.76949
7.02552	9.91743
7.01601	10.0859
7.00653	10.2274
6.99708	10.4497
6.98765	10.7069
6.97824	10.8507
6.96886	11.1374
6.95951	11.42
6.95018	11.393
6.94087	11.5732
6.9316	11.8276
6.92234	12.0629
6.91311	12.4077
6.90391	12.6443
6.89473	12.6654
6.88557	12.7721
6.87644	13.0221
6.86733	13.5237
6.85824	13.5542
6.84918	13.2484
6.84015	13.2644
6.83114	13.6532
6.82215	13.8582
6.81319	13.8204
6.80424	14.1118
6.79532	14.6855
6.78643	14.9911
6.77756	15.0613
6.76871	15.1545
6.75989	15.2257
6.75109	15.4631
6.74231	15.7402
6.73355	16.0797
6.72482	16.4541
6.71611	16.8397
6.70742	17.0139
6.69875	16.989
6.69011	17.2259
6.68149	17.57
6.67289	17.5338
6.66431	17.4147
6.65576	17.4076
6.64722	17.9178
6.63871	18.6047
6.63022	18.2577
6.62175	17.7153
6.61331	17.6016
6.60488	17.5514
6.59648	17.6407
6.5881	17.672
6.57974	17.8734
6.5714	18.0564
6.56308	17.6889
6.55478	17.4925
6.54651	17.3016
6.53825	17.1766
6.53001	17.2972
6.5218	17.5402
6.51361	17.4169
6.50544	17.6964
6.49729	18.6309
6.48915	18.8858
6.48104	18.5553
6.47295	18.3803
6.46488	18.1098
6.45683	18.1317
6.4488	18.2385
6.44079	18.2705
6.4328	18.4453
6.42482	18.7721
6.41687	19.6208
6.40894	19.3783
6.40103	18.5232
6.39314	18.3375
6.38526	18.2961
6.37741	18.5584
6.36957	18.8513
6.36176	18.6151
6.35396	18.6035
6.34618	19.0716
6.33843	18.8265
6.33069	18.3306
6.32297	18.3087
6.31527	18.3393
6.30758	18.2767
6.29992	18.2269
6.29227	18.2919
6.28465	18.3642
6.27704	18.3732
6.26945	18.2692
6.26188	18.2853
6.25432	18.2226
6.24679	18.0868
6.23927	18.0672
6.23177	18.0304
6.22429	17.8697
6.21683	17.7251
6.20938	17.6269
6.20195	17.4663
6.19454	17.5001
6.18715	17.78
6.17978	17.4324
6.17242	16.9888
6.16508	16.9604
6.15776	16.7403
6.15045	16.343
6.14317	16.0631
6.1359	15.627
6.12864	15.1327
6.12141	14.8727
6.11419	14.6403
6.10699	13.7761
6.0998	12.9352
6.09263	12.3838
6.08549	12.1031
6.07835	12.1259
6.07123	12.0854
6.06413	11.8079
6.05705	11.9346
6.04998	12.3632
6.04293	11.7224
6.0359	10.9742
6.02888	10.6306
6.02187	10.4175
6.01489	10.2607
6.00792	9.91975
6.00096	9.6523
5.99403	9.71197
5.98711	9.75168
5.9802	9.6414
5.97331	9.79631
5.96644	10.0988
5.95958	10.3226
5.95274	10.9305
5.94591	11.6859
5.9391	12.7082
5.9323	13.0877
5.92552	13.0669
5.91876	13.3392
5.91201	13.5412
5.90528	13.765
5.89856	14.1096
5.89186	13.838
5.88517	13.7214
5.8785	13.4658
5.87184	12.5739
5.8652	12.265
5.85857	12.0672
5.85196	11.9343
5.84536	11.9871
5.83878	12.248
5.83221	12.756
5.82566	13.4516
5.81912	13.9069
5.81259	13.9903
5.80608	14.1596
5.79959	14.3255
5.79311	14.4752
5.78665	14.7004
5.78019	14.9192
5.77376	15.2794
5.76734	15.7701
5.76093	15.4338
5.75453	15.1139
5.74815	15.2311
5.74179	15.0141
5.73543	14.8295
5.7291	14.7047
5.72277	14.5774
5.71646	14.4605
5.71017	14.3567
5.70389	13.881
5.69762	13.4781
5.69136	13.2438
5.68513	13.057
5.6789	13.0123
5.67268	12.882
5.66648	12.6499
5.6603	12.6953
5.65413	12.7935
5.64797	12.873
5.64182	13.0324
5.63569	12.9475
5.62957	12.8474
5.62347	12.7803
5.61737	12.702
5.61129	12.6289
5.60522	12.5857
5.59917	12.5539
5.59313	12.546
5.5871	12.6114
5.58109	12.704
5.57509	12.5858
5.5691	12.3914
5.56312	12.2822
5.55716	12.3161
5.55121	12.3672
5.54528	12.1798
5.53935	12.0629
5.53344	12.1041
5.52754	12.1348
5.52166	12.1023
5.51578	12.0992
5.50992	12.138
5.50407	12.0911
5.49823	12.0102
5.49241	12.0088
5.4866	12.0506
5.4808	12.158
5.47501	12.3022
5.46923	12.563
5.46347	12.7932
5.45772	12.9703
5.45198	13.3217
5.44625	13.8037
5.44054	14.196
5.43484	14.5258
5.42914	14.8987
5.42347	15.3314
5.4178	15.3311
5.41214	15.2415
5.4065	15.3198
5.40087	15.3209
5.39525	15.2033
5.38964	15.1056
5.38404	15.0796
5.37846	15.1673
5.37288	15.2711
5.36732	15.3131
5.36177	15.4097
5.35623	15.5604
5.35071	15.8457
5.34519	15.9701
5.33968	15.9491
5.33419	16.1278
5.32871	16.3881
5.32324	16.6475
5.31778	16.965
5.31233	17.2242
5.30689	17.4288
5.30147	17.598
5.29605	17.7185
5.29065	17.7713
5.28525	17.7328
5.27987	17.7553
5.2745	17.7156
5.26914	17.5903
5.26379	17.4456
5.25845	17.2613
5.25312	17.0379
5.24781	16.8885
5.2425	16.7302
5.23721	16.4584
5.23192	16.2392
5.22665	16.0717
5.22138	15.9499
5.21613	16.0049
5.21089	16.0391
5.20566	16.0792
5.20044	16.2779
5.19522	16.6564
5.19002	17.0804
5.18483	17.4893
5.17965	17.8491
5.17448	18.139
5.16933	18.4229
5.16418	18.6512
5.15904	18.8147
5.15391	18.9991
5.14879	19.1677
5.14368	19.2731
5.13859	19.3857
5.1335	19.4945
5.12842	19.7319
5.12335	20.0885
5.1183	20.4699
5.11325	20.8946
5.10821	21.4441
5.10318	22.0932
5.09817	22.8391
5.09316	23.6598
5.08816	24.4562
5.08317	25.2349
5.07819	25.8264
5.07322	26.3789
5.06826	26.8399
5.06331	27.2223
5.05837	27.5152
5.05344	27.8935
5.04852	28.2376
5.04361	28.4761
5.03871	28.6216
5.03382	28.7297
5.02894	28.818
5.02406	28.9374
5.0192	28.9665
5.01435	28.8695
5.0095	28.8443
5.00467	28.81
4.99984	28.7829
4.99502	28.7654
4.99021	28.7015
4.98542	28.6407
4.98063	28.6105
4.97585	28.537
4.97108	28.4872
4.96632	28.4744
4.96156	28.3258
4.95682	28.1702
4.95209	27.89
4.94736	27.6845
4.94264	27.6392
4.93794	27.7551
4.93324	28.0972
4.92855	28.4796
4.92387	28.9287
4.9192	29.3676
4.91453	29.7092
4.90988	30.0898
4.90524	30.5872
4.9006	31.0691
4.89597	31.4859
4.89135	32.0177
4.88674	32.5203
4.88214	32.9486
4.87755	33.3543
4.87296	33.7754
4.86839	34.1849
4.86382	34.5501
4.85926	34.8297
4.85471	35.0348
4.85017	35.2012
4.84564	35.352
4.84111	35.4507
4.8366	35.5537
4.83209	35.6819
4.82759	35.8203
4.8231	36.0148
4.81862	36.1634
4.81415	36.2165
4.80968	36.3308
4.80522	36.4559
4.80077	36.6069
4.79633	36.8176
4.7919	37.0495
4.78747	37.2299
4.78306	37.3507
4.77865	37.4908
4.77425	37.7516
4.76986	38.0265
4.76547	38.3243
4.7611	38.5997
4.75673	38.8251
4.75237	38.9834
4.74802	39.0837
4.74367	39.1942
4.73934	39.2816
4.73501	39.2417
4.73069	39.1288
4.72638	39.0181
4.72207	39.0191
4.71777	39.0486
4.71348	39.018
4.7092	39.0476
4.70493	39.082
4.70066	39.2038
4.69641	39.3199
4.69216	39.4198
4.68791	39.6313
4.68368	39.754
4.67945	39.8385
4.67523	39.9481
4.67102	40.0446
4.66682	40.0825
4.66262	40.1035
4.65843	40.1496
4.65425	40.2832
4.65007	40.3284
4.64591	40.3729
4.64175	40.6086
4.6376	40.9289
4.63345	41.2206
4.62932	41.5256
4.62519	41.833
4.62106	42.1436
4.61695	42.4397
4.61284	42.7589
4.60874	43.0417
4.60465	43.3203
4.60056	43.534
4.59648	43.726
4.59241	43.8946
4.58835	44.0546
4.58429	44.2191
4.58024	44.3127
4.5762	44.3684
4.57216	44.4541
4.56814	44.5586
4.56411	44.6713
4.5601	44.8387
4.55609	44.9571
4.55209	44.9951
4.5481	45.1013
4.54411	45.1765
4.54013	45.2268
4.53616	45.3136
4.5322	45.3621
4.52824	45.464
4.52429	45.5339
4.52034	45.5115
4.51641	45.5511
4.51247	45.6307
4.50855	45.6717
4.50463	45.7
4.50072	45.7319
4.49682	45.7947
4.49292	45.8075
4.48903	45.8273
4.48515	45.9452
4.48127	45.9974
4.4774	45.966
4.47354	45.9657
4.46968	46.0233
4.46584	46.0537
4.46199	46.1199
4.45815	46.2074
4.45432	46.2703
4.4505	46.312
4.44668	46.4339
4.44287	46.4615
4.43907	46.5733
4.43527	46.8453
4.43148	47.0001
4.4277	47.0397
4.42392	47.1216
4.42015	47.2597
4.41638	47.4114
4.41262	47.4551
4.40887	47.4702
4.40513	47.5515
4.40139	47.6437
4.39765	47.7883
4.39393	47.8702
4.39021	47.8752
4.38649	47.9181
4.38278	48.0271
4.37908	48.0706
4.37539	48.1384
4.3717	48.2104
4.36801	48.2433
4.36434	48.2983
4.36067	48.3215
4.357	48.316
4.35335	48.4032
4.34969	48.4996
4.34605	48.4853
4.34241	48.4845
4.33877	48.5608
4.33514	48.6839
4.33152	48.7694
4.32791	48.7735
4.3243	48.7531
4.32069	48.8426
4.3171	48.9358
4.31351	48.9935
4.30992	49.0812
4.30634	49.1412
4.30277	49.2117
4.2992	49.2682
4.29564	49.3514
4.29208	49.4775
4.28853	49.5721
4.28499	49.6059
4.28145	49.5596
4.27792	49.7025
4.27439	49.8158
4.27087	49.7839
4.26735	49.7325
4.26384	49.6807
4.26034	49.5714
4.25684	49.5624
4.25335	49.6898
4.24986	49.8166
4.24638	49.9279
4.24291	50.0719
4.23944	50.1911
4.23598	50.2493
4.23252	50.2973
4.22906	50.3359
4.22562	50.321
4.22218	50.2758
4.21874	50.1736
4.21531	50.0509
4.21189	49.965
4.20847	49.9456
4.20506	49.9434
4.20165	49.951
4.19825	49.8687
4.19485	49.8455
4.19146	49.8705
4.18807	49.8871
4.18469	49.8897
4.18132	49.8628
4.17795	49.8575
4.17458	49.9496
4.17123	49.9841
4.16787	49.9778
4.16453	49.9864
4.16118	49.9903
4.15785	49.9729
4.15451	50.0298
4.15119	50.0919
4.14787	50.1599
4.14455	50.1961
4.14124	50.2371
4.13794	50.2605
4.13464	50.2518
4.13134	50.2734
4.12805	50.3121
4.12477	50.3155
4.12149	50.3355
4.11822	50.379
4.11495	50.3829
4.11168	50.3171
4.10843	50.3103
4.10517	50.3968
4.10192	50.4304
4.09868	50.4231
4.09545	50.4449
4.09221	50.4578
4.08899	50.3978
4.08576	50.4184
4.08255	50.4844
4.07933	50.5082
4.07613	50.5322
4.07292	50.415
4.06973	50.346
4.06654	50.381
4.06335	50.411
4.06017	50.4963
4.05699	50.5684
4.05382	50.5723
4.05065	50.5175
4.04749	50.5168
4.04433	50.6212
4.04118	50.6351
4.03803	50.5411
4.03489	50.4898
4.03175	50.5455
4.02862	50.5951
4.02549	50.5825
4.02237	50.597
4.01925	50.5928
4.01614	50.6386
4.01303	50.6961
4.00993	50.6392
4.00683	50.568
4.00373	50.5831
4.00064	50.6968
3.99756	50.7363
3.99448	50.7542
3.9914	50.7553
3.98833	50.7881
3.98527	50.8229
3.98221	50.8184
3.97915	50.8424
3.9761	50.8867
3.97305	50.8655
3.97001	50.8093
3.96697	50.8062
3.96394	50.9027
3.96091	50.9245
3.95789	50.8528
3.95487	50.8198
3.95186	50.8497
3.94885	50.8212
3.94584	50.8352
3.94284	50.9202
3.93984	50.926
3.93685	50.8782
3.93386	50.8634
3.93088	50.9144
3.9279	50.9726
3.92493	50.9197
3.92196	50.9826
3.919	51.019
3.91604	50.9906
3.91308	50.917
3.91013	50.856
3.90718	50.917
3.90424	50.9443
3.9013	50.9232
3.89837	50.9783
3.89544	51.025
3.89252	51.0429
3.8896	50.9994
3.88668	50.9813
3.88377	51.0014
3.88086	50.9973
3.87796	50.987
3.87506	51.0013
3.87217	51.0109
3.86928	51.0211
3.86639	51.0216
3.86351	51.0893
3.86064	51.1428
3.85776	51.1121
3.8549	51.0415
3.85203	51.0513
3.84917	51.1229
3.84631	51.1365
3.84346	51.1158
3.84062	51.0933
3.83777	51.0762
3.83494	51.0795
3.8321	51.0874
3.82927	51.0884
3.82644	51.0556
3.82362	51.0461
3.82081	51.0745
3.81799	51.1042
3.81518	51.0554
3.81238	51.0966
3.80958	51.1319
3.80678	51.2142
3.80399	51.2595
3.8012	51.2317
3.79841	51.2125
3.79563	51.1814
3.79286	51.1672
3.79008	51.2412
3.78731	51.2559
3.78455	51.1954
3.78179	51.2358
3.77903	51.2933
3.77628	51.2689
3.77353	51.2951
3.77079	51.3637
3.76805	51.3464
3.76531	51.3488
3.76258	51.3418
3.75985	51.3205
3.75713	51.3282
3.7544	51.3472
3.75169	51.331
3.74898	51.2817
3.74627	51.2542
3.74356	51.283
3.74086	51.3142
3.73816	51.299
3.73547	51.2136
3.73278	51.223
3.7301	51.3025
3.72741	51.2766
3.72474	51.249
3.72206	51.2551
3.71939	51.3168
3.71673	51.295
3.71406	51.2534
3.71141	51.2406
3.70875	51.1944
3.7061	51.1181
3.70345	51.1123
3.70081	51.1508
3.69817	51.1323
3.69553	51.0579
3.6929	50.9135
3.69027	50.4663
3.68765	50.5125
3.68503	50.9443
3.68241	51.0524
3.6798	51.0575
3.67719	51.023
3.67458	51.0262
3.67198	51.024
3.66938	50.9875
3.66678	50.9566
3.66419	50.8938
3.66161	50.8003
3.65902	50.7444
3.65644	50.7623
3.65387	50.8047
3.65129	50.7727
3.64872	50.7225
3.64616	50.7259
3.64359	50.7022
3.64103	50.7097
3.63848	50.6623
3.63593	50.6224
3.63338	50.6869
3.63084	50.7062
3.6283	50.6464
3.62576	50.5652
3.62322	50.5949
3.62069	50.6297
3.61817	50.6131
3.61564	50.5991
3.61312	50.5355
3.61061	50.528
3.6081	50.5365
3.60559	50.5306
3.60308	50.4822
3.60058	50.4205
3.59808	50.3999
3.59558	50.3931
3.59309	50.429
3.59061	50.3859
3.58812	50.3161
3.58564	50.2869
3.58316	50.237
3.58069	50.1667
3.57822	50.1645
3.57575	50.1417
3.57328	50.1364
3.57082	50.121
3.56836	50.0981
3.56591	50.1169
3.56346	50.1305
3.56101	50.0758
3.55857	50.0363
3.55613	49.9948
3.55369	50.0204
3.55126	49.9963
3.54883	49.9284
3.5464	49.8244
3.54397	49.737
3.54155	49.73
3.53914	49.6885
3.53672	49.6414
3.53431	49.6085
3.5319	49.6
3.5295	49.5048
3.5271	49.44
3.5247	49.4361
3.52231	49.3721
3.51991	49.2067
3.51753	49.052
3.51514	48.9725
3.51276	48.8863
3.51038	48.7246
3.50801	48.5599
3.50563	48.4522
3.50327	48.4283
3.5009	48.3771
3.49854	48.3434
3.49618	48.3289
3.49382	48.2731
3.49147	48.2458
3.48912	48.2303
3.48677	48.2295
3.48443	48.1825
3.48209	48.0751
3.47975	48.0397
3.47742	48.0945
3.47509	48.1481
3.47276	48.1814
3.47044	48.137
3.46812	48.0765
3.4658	48.1308
3.46348	48.1546
3.46117	48.1185
3.45886	48.0599
3.45656	48.0022
3.45425	47.9605
3.45195	47.9181
3.44966	47.8233
3.44736	47.6727
3.44507	47.5972
3.44279	47.5384
3.4405	47.4307
3.43822	47.384
3.43594	47.2911
3.43367	47.1458
3.43139	46.9684
3.42912	46.8466
3.42686	46.7536
3.42459	46.5428
3.42233	46.343
3.42007	46.2842
3.41782	46.3096
3.41557	46.231
3.41332	46.0995
3.41108	46.0079
3.40883	46.1091
3.40659	46.2476
3.40435	46.2758
3.40212	46.1788
3.39989	46.1105
3.39766	46.1993
3.39544	46.154
3.39322	45.9789
3.391	45.8317
3.38878	45.6996
3.38657	45.5686
3.38436	45.5229
3.38215	45.3953
3.37994	45.2444
3.37774	45.1621
3.37554	44.9776
3.37335	44.708
3.37115	44.5956
3.36896	44.4688
3.36678	44.2298
3.36459	43.9082
3.36241	43.4506
3.36023	42.992
3.35805	42.6256
3.35588	42.4735
3.35371	42.5458
3.35154	42.8758
3.34938	43.2639
3.34721	43.7078
3.34505	44.181
3.3429	44.5561
3.34074	44.7026
3.33859	44.7519
3.33644	44.8229
3.3343	44.7088
3.33215	44.3909
3.33001	44.0677
3.32788	43.7308
3.32574	43.2914
3.32361	42.9199
3.32148	42.5707
3.31936	42.2019
3.31723	41.818
3.31511	41.5763
3.31299	41.3662
3.31088	41.2359
3.30876	41.3673
3.30665	41.5909
3.30455	41.9592
3.30244	42.4658
3.30034	43.0492
3.29824	43.6033
3.29614	44.0007
3.29405	44.2637
3.29196	44.4015
3.28987	44.4665
3.28778	44.4367
3.2857	44.4182
3.28362	44.4232
3.28154	44.3543
3.27946	44.3474
3.27739	44.4068
3.27532	44.4879
3.27325	44.6365
3.27119	44.6888
3.26913	44.6918
3.26707	44.7817
3.26501	44.7523
3.26295	44.7375
3.2609	44.7982
3.25885	44.7474
3.2568	44.6867
3.25476	44.6771
3.25272	44.6572
3.25068	44.6773
3.24864	44.6746
3.24661	44.6367
3.24458	44.5072
3.24255	44.4253
3.24052	44.3575
3.2385	44.2424
3.23648	44.1932
3.23446	44.1132
3.23244	44.1003
3.23043	44.1361
3.22841	44.062
3.2264	44.0015
3.2244	43.9019
3.22239	43.7878
3.22039	43.7383
3.21839	43.6797
3.2164	43.6386
3.2144	43.5938
3.21241	43.4581
3.21042	43.4077
3.20844	43.3722
3.20645	43.3059
3.20447	43.2251
3.20249	43.2054
3.20051	43.1657
3.19854	43.0434
3.19657	42.8339
3.1946	42.6703
3.19263	42.581
3.19067	42.5268
3.1887	42.4403
3.18674	42.3357
3.18479	42.2471
3.18283	42.1006
3.18088	42.0058
3.17893	41.837
3.17698	41.6164
3.17504	41.5806
3.17309	41.6438
3.17115	41.6205
3.16921	41.4879
3.16728	41.358
3.16534	41.3108
3.16341	41.3547
3.16148	41.273
3.15956	41.1437
3.15763	41.0086
3.15571	40.8341
3.15379	40.6957
3.15187	40.784
3.14996	40.8049
3.14805	40.783
3.14614	40.761
3.14423	40.7905
3.14232	40.8873
3.14042	40.8687
3.13852	40.8324
3.13662	40.8138
3.13472	40.8743
3.13283	40.8687
3.13094	40.7836
3.12905	40.7333
3.12716	40.7557
3.12528	40.7381
3.12339	40.6474
3.12151	40.528
3.11964	40.4947
3.11776	40.4403
3.11589	40.3696
3.11401	40.2807
3.11214	40.1558
3.11028	40.1188
3.10841	40.0405
3.10655	39.8999
3.10469	39.8684
3.10283	39.7346
3.10098	39.5403
3.09912	39.5102
3.09727	39.4235
3.09542	39.2273
3.09358	39.2025
3.09173	39.2199
3.08989	39.2356
3.08805	39.2769
3.08621	39.188
3.08437	38.9857
3.08254	38.8444
3.08071	38.7812
3.07888	38.7346
3.07705	38.6947
3.07523	38.6483
3.0734	38.6331
3.07158	38.6201
3.06977	38.5046
3.06795	38.3896
3.06613	38.2779
3.06432	38.1329
3.06251	38.1131
3.0607	38.1863
3.0589	38.0765
3.0571	37.9786
3.05529	37.9521
3.05349	37.8916
3.0517	37.7559
3.0499	37.7626
3.04811	37.7465
3.04632	37.514
3.04453	37.325
3.04274	37.3029
3.04096	37.2487
3.03918	37.1837
3.0374	37.1053
3.03562	37.0304
3.03384	36.9608
3.03207	36.8883
3.03029	36.892
3.02852	36.8753
3.02676	36.7918
3.02499	36.7301
3.02323	36.7004
3.02146	36.6702
3.0197	36.6278
3.01795	36.5959
3.01619	36.5686
3.01444	36.5472
3.01269	36.4842
3.01094	36.2683
3.00919	36.1402
3.00744	36.043
3.0057	35.9944
3.00396	35.969
3.00222	35.8491
3.00048	35.7344
2.99875	35.5568
2.99701	35.5043
2.99528	35.4319
2.99355	35.3623
2.99183	35.3649
2.9901	35.2555
2.98838	35.1364
2.98666	35.102
2.98494	34.9574
2.98322	34.8389
2.9815	34.8623
2.97979	34.8252
2.97808	34.8442
2.97637	34.844
2.97466	34.7574
2.97295	34.6454
2.97125	34.6085
2.96955	34.5692
2.96785	34.4016
2.96615	34.2798
2.96446	34.208
2.96276	34.0298
2.96107	33.959
2.95938	34.0342
2.95769	34.1009
2.95601	33.9931
2.95432	33.9235
2.95264	33.9005
2.95096	33.8461
2.94928	33.7495
2.9476	33.6271
2.94593	33.5984
2.94425	33.5344
2.94258	33.593
2.94092	33.5114
2.93925	33.3635
2.93758	33.3619
2.93592	33.3029
2.93426	33.2103
2.9326	33.1447
2.93094	33.2404
2.92928	33.3537
2.92763	33.2669
2.92598	33.1846
2.92433	33.15
2.92268	33.1123
2.92103	33.0627
2.91939	33.0682
2.91775	32.9865
2.9161	32.9829
2.91447	32.9409
2.91283	32.7732
2.91119	32.6939
2.90956	32.7257
2.90793	32.6816
2.9063	32.7259
2.90467	32.8218
2.90304	32.7653
2.90142	32.7498
2.89979	32.7066
2.89817	32.5565
2.89656	32.5104
2.89494	32.5503
2.89332	32.4884
2.89171	32.4389
2.8901	32.5463
2.88849	32.6926
2.88688	32.6982
2.88527	32.6254
2.88367	32.5493
2.88206	32.585
2.88046	32.6029
2.87886	32.5694
2.87727	32.5197
2.87567	32.401
2.87408	32.4003
2.87248	32.4864
2.87089	32.4876
2.8693	32.516
2.86772	32.6296
2.86613	32.658
2.86455	32.606
2.86297	32.5911
2.86139	32.5753
2.85981	32.5532
2.85823	32.4702
2.85666	32.492
2.85508	32.5322
2.85351	32.473
2.85194	32.3288
2.85038	32.2223
2.84881	32.1226
2.84724	32.0859
2.84568	32.1784
2.84412	32.24
2.84256	32.2536
2.841	32.1336
2.83945	32.2041
2.83789	32.2236
2.83634	32.0757
2.83479	32.1748
2.83324	32.3142
2.83169	32.0141
2.83015	31.7649
2.82861	31.7204
2.82706	31.686
2.82552	31.5602
2.82398	31.4799
2.82245	31.5189
2.82091	31.5055
2.81938	31.5157
2.81784	31.3585
2.81631	31.1418
2.81479	31.0545
2.81326	30.9413
2.81173	30.8411
2.81021	30.8352
2.80869	30.8027
2.80716	30.7164
2.80565	30.7192
2.80413	30.929
2.80261	30.7699
2.8011	30.2436
2.79959	29.9757
2.79808	29.988
2.79657	29.9991
2.79506	29.8866
2.79355	29.7601
2.79205	29.864
2.79055	30.0227
2.78904	29.948
2.78754	29.4411
2.78605	28.9173
2.78455	29.1489
2.78306	29.6304
2.78156	29.7932
2.78007	29.727
2.77858	29.685
2.77709	29.7501
2.77561	29.6268
2.77412	29.3721
2.77264	29.5168
2.77116	29.7597
2.76968	29.5871
2.7682	29.4717
2.76672	29.3303
2.76524	29.3438
2.76377	29.5088
2.7623	29.422
2.76083	29.0385
2.75936	28.9427
2.75789	29.1322
2.75642	29.6288
2.75496	29.2793
2.7535	27.9355
2.75203	27.4957
2.75057	27.5513
2.74912	27.4537
2.74766	27.0307
2.7462	26.0779
2.74475	25.1826
2.7433	25.4401
2.74185	25.9502
2.7404	25.5383
2.73895	24.2135
2.7375	23.0677
2.73606	22.7008
2.73462	21.4356
2.73318	18.2558
2.73174	15.6668
2.7303	15.9237
2.72886	16.3533
2.72742	16.4881
2.72599	16.5474
2.72456	15.6392
2.72313	14.022
2.7217	12.1349
2.72027	9.56579
2.71884	10.1494
2.71742	14.3576
2.71599	17.5113
2.71457	19.1066
2.71315	20.1178
2.71173	21.2022
2.71032	21.7839
2.7089	22.1684
2.70748	22.9217
2.70607	24.1678
2.70466	25.7407
2.70325	27.4608
2.70184	29.0258
2.70043	29.7133
2.69903	30.8628
2.69762	34.0593
2.69622	37.788
2.69482	40.8112
2.69342	42.8358
2.69202	43.7735
2.69062	44.9735
2.68923	46.4816
2.68783	47.779
2.68644	49.0678
2.68505	50.0615
2.68366	51.0859
2.68227	51.8116
2.68089	52.5943
2.6795	53.905
2.67812	54.8358
2.67673	55.7763
2.67535	55.9348
2.67397	55.8522
2.6726	56.5475
2.67122	58.6146
2.66984	59.1051
2.66847	58.2747
2.6671	59.3608
2.66572	59.7261
2.66435	58.9092
2.66299	57.8987
2.66162	57.8813
2.66025	58.0132
2.65889	57.8717
2.65753	57.5003
2.65616	57.8705
2.65481	57.8434
2.65345	57.869
2.65209	57.899
2.65073	57.3107
2.64938	56.9116
2.64803	56.9799
2.64667	57.3004
2.64532	57.4482
2.64397	57.267
2.64263	57.4124
2.64128	57.441
2.63994	57.5104
2.63859	57.4828
2.63725	57.3586
2.63591	57.4776
2.63457	58.0209
2.63323	58.16
2.6319	58.4957
2.63056	59.2899
2.62923	58.4975
2.62789	58.1546
2.62656	58.5591
2.62523	57.7961
2.6239	57.3659
2.62258	57.3868
2.62125	58.3642
2.61993	58.4757
2.6186	57.7204
2.61728	58.4492
2.61596	58.1704
2.61464	57.3361
2.61332	57.4718
2.61201	57.3393
2.61069	57.5618
2.60938	57.7289
2.60807	57.5689
2.60675	57.899
2.60544	58.2783
2.60414	57.4104
2.60283	56.8071
2.60152	56.6428
2.60022	56.3769
2.59891	56.0856
2.59761	56.2724
2.59631	57.682
2.59501	59.6538
2.59371	58.4028
2.59242	56.5059
2.59112	56.0175
2.58983	56.1168
2.58853	56.2537
2.58724	56.297
2.58595	55.8629
2.58466	56.2291
2.58338	56.1934
2.58209	55.4579
2.5808	55.2833
2.57952	54.6983
2.57824	54.5752
2.57695	54.7021
2.57567	54.5217
2.5744	55.1121
2.57312	55.506
2.57184	54.7529
2.57057	54.9357
2.56929	55.0255
2.56802	54.4449
2.56675	54.1232
2.56548	54.4601
2.56421	55.1055
2.56294	55.3484
2.56168	55.4059
2.56041	54.7776
2.55915	54.0208
2.55789	53.6799
2.55662	53.5851
2.55536	53.6007
2.5541	53.8665
2.55285	54.2674
2.55159	54.3513
2.55034	54.369
2.54908	54.4753
2.54783	54.6817
2.54658	54.6762
2.54533	54.6687
2.54408	54.6646
2.54283	54.4451
2.54159	54.0518
2.54034	53.7631
2.5391	53.6223
2.53785	53.7095
2.53661	53.917
2.53537	53.9046
2.53413	53.7899
2.53289	53.6863
2.53166	53.4663
2.53042	53.2085
2.52919	53.0609
2.52795	53.065
2.52672	53.1204
2.52549	53.2349
2.52426	53.3098
2.52303	53.1617
2.52181	53.0085
2.52058	52.9379
2.51936	52.8219
2.51813	52.6666
2.51691	52.5089
2.51569	52.3974
2.51447	52.2948
2.51325	52.3312
2.51203	52.4224
2.51082	52.5669
2.5096	52.6829
2.50839	52.6894
2.50717	52.7894
2.50596	52.8772
2.50475	52.7517
2.50354	52.5257
2.50233	52.1569
2.50113	51.8285
2.49992	51.8194
2.49872	52.0155
2.49751	52.0691
2.49631	52.0667
2.49511	52.1195
2.49391	52.2896
2.49271	52.6315
2.49151	52.9607
2.49031	52.9602
2.48912	53.0354
2.48792	53.224
2.48673	53.23
2.48554	53.1238
2.48435	53.0186
2.48316	52.9877
2.48197	53.1086
2.48078	53.1511
2.4796	52.9691
2.47841	52.5893
2.47723	52.2415
2.47604	52.058
2.47486	51.9373
2.47368	51.7348
2.4725	51.4009
2.47132	50.979
2.47014	50.6075
2.46897	50.1659
2.46779	49.8355
2.46662	49.7297
2.46545	49.803
2.46427	49.9587
2.4631	49.9519
2.46193	50.0833
2.46077	50.4737
2.4596	50.921
2.45843	51.2207
2.45727	51.2932
2.4561	51.2682
2.45494	51.3089
2.45378	51.5254
2.45262	51.7768
2.45146	51.7679
2.4503	51.8
2.44914	51.9631
2.44799	51.9604
2.44683	51.9005
2.44568	51.9886
2.44452	52.0621
2.44337	52.0954
2.44222	51.9483
2.44107	51.6508
2.43992	51.5687
2.43877	51.7096
2.43763	51.5905
2.43648	51.3078
2.43534	51.2507
2.43419	51.3551
2.43305	51.6487
2.43191	51.9909
2.43077	52.1093
2.42963	52.0083
2.42849	51.7677
2.42736	51.4003
2.42622	51.1759
2.42509	51.4784
2.42395	52.0234
2.42282	52.4475
2.42169	52.7713
2.42056	53.0214
2.41943	53.0131
2.4183	53.0522
2.41717	53.2877
2.41605	53.3113
2.41492	53.2265
2.4138	53.108
2.41267	53.1147
2.41155	53.2501
2.41043	53.3189
2.40931	53.3406
2.40819	53.262
2.40707	53.2149
2.40595	53.0338
2.40484	52.6543
2.40372	52.2862
2.40261	51.8879
2.4015	51.3572
2.40039	50.6508
2.39928	49.8079
2.39817	48.8634
2.39706	48.0361
2.39595	47.6961
2.39484	47.5499
2.39374	47.2158
2.39263	46.4511
2.39153	45.9559
2.39043	46.2674
2.38932	46.9355
2.38822	47.3462
2.38712	47.3179
2.38603	47.217
2.38493	47.3412
2.38383	47.5978
2.38274	47.6855
2.38164	47.8582
2.38055	48.1833
2.37946	48.4683
2.37836	48.8642
2.37727	49.1514
2.37618	49.2396
2.3751	49.5299
2.37401	49.9838
2.37292	50.3108
2.37184	50.7709
2.37075	51.177
2.36967	51.5156
2.36859	51.9096
2.3675	52.3111
2.36642	52.5324
2.36534	52.7103
2.36427	53.0149
2.36319	53.2036
2.36211	53.2686
2.36104	53.3199
2.35996	53.3324
2.35889	53.248
2.35781	53.1149
2.35674	53.0674
2.35567	53.0938
2.3546	53.0777
2.35353	53.1101
2.35247	53.2296
2.3514	53.43
2.35033	53.5442
2.34927	53.5457
2.3482	53.6203
2.34714	53.7141
2.34608	53.6022
2.34502	53.5245
2.34396	53.6265
2.3429	53.5686
2.34184	53.3305
2.34078	53.0979
2.33973	52.9682
2.33867	52.8858
2.33762	52.7325
2.33656	52.3947
2.33551	52.2169
2.33446	52.1567
2.33341	51.919
2.33236	51.4595
2.33131	51.0845
2.33026	50.6742
2.32922	49.8641
2.32817	48.9313
2.32712	47.7035
2.32608	46.5058
2.32504	45.6259
2.324	45.1093
2.32295	44.7679
2.32191	44.53
2.32087	44.3217
2.31984	43.725
2.3188	42.6375
2.31776	41.2244
2.31673	39.2395
2.31569	37.0291
2.31466	35.3409
2.31362	34.4873
2.31259	34.398
2.31156	34.8645
2.31053	35.5577
2.3095	36.5271
2.30847	37.6236
2.30745	38.7398
2.30642	39.8569
2.3054	40.9935
2.30437	42.208
2.30335	43.3107
2.30232	44.3492
2.3013	45.2996
2.30028	46.0488
2.29926	46.5213
2.29824	46.9276
2.29722	47.3202
2.29621	47.521
2.29519	47.013
2.29417	45.7832
2.29316	44.3238
2.29215	42.8237
2.29113	41.6704
2.29012	41.2925
2.28911	41.7453
2.2881	42.6957
2.28709	44.0413
2.28608	45.5083
2.28507	46.8643
2.28407	48.1015
2.28306	49.1635
2.28206	49.8722
2.28105	50.4031
2.28005	51.1054
2.27905	51.6138
2.27805	51.918
2.27705	52.307
2.27605	52.6877
2.27505	53.023
2.27405	53.3001
2.27305	53.5386
2.27206	53.7791
2.27106	53.9042
2.27007	54.1748
2.26907	54.4443
2.26808	54.6304
2.26709	54.8733
2.2661	55.2121
2.26511	55.5705
2.26412	55.7949
2.26313	55.94
2.26214	56.0503
2.26116	56.2058
2.26017	56.4895
2.25919	56.7513
2.2582	56.9306
2.25722	57.0693
2.25624	57.1176
2.25526	57.1518
2.25428	57.1305
2.2533	57.1727
2.25232	57.3485
2.25134	57.4864
2.25036	57.5373
2.24939	57.6097
2.24841	57.7853
2.24744	57.8305
2.24646	57.8093
2.24549	57.8336
2.24452	57.8832
2.24355	57.8831
2.24257	57.92
2.24161	57.8163
2.24064	57.8504
2.23967	58.0381
2.2387	58.138
2.23774	58.0237
2.23677	57.9516
2.23581	57.8623
2.23484	57.9923
2.23388	58.001
2.23292	57.8645
2.23196	57.7299
2.231	57.6744
2.23004	57.7985
2.22908	58.0291
2.22812	58.1919
2.22716	58.2537
2.22621	58.4444
2.22525	58.7235
2.2243	58.931
2.22334	59.0424
2.22239	59.1616
2.22144	59.3927
2.22049	59.5345
2.21953	59.5626
2.21859	59.5636
2.21764	59.573
2.21669	59.5171
2.21574	59.5069
2.21479	59.7627
2.21385	59.7077
2.2129	59.734
2.21196	59.7862
2.21102	59.6819
2.21007	59.696
2.20913	59.8583
2.20819	59.9056
2.20725	59.9585
2.20631	60.0375
2.20537	60.0704
2.20444	60.1595
2.2035	60.0438
2.20256	59.9602
2.20163	60.0506
2.20069	60.0967
2.19976	60.0333
2.19883	60.0253
2.19789	60.1438
2.19696	60.2625
2.19603	60.1783
2.1951	60.1
2.19417	60.3007
2.19325	60.3502
2.19232	60.2751
2.19139	60.3085
2.19047	60.3763
2.18954	60.4205
2.18862	60.3929
2.18769	60.3643
2.18677	60.3894
2.18585	60.2643
2.18493	60.2243
2.18401	60.3053
2.18309	60.3213
2.18217	60.2707
2.18125	60.2539
2.18033	60.2167
2.17942	60.1519
2.1785	60.3019
2.17759	60.43
2.17667	60.4116
2.17576	60.2828
2.17485	60.2527
2.17393	60.1868
2.17302	60.1743
2.17211	60.2859
2.1712	60.4102
2.17029	60.4121
2.16939	60.4231
2.16848	60.5532
2.16757	60.7253
2.16667	60.7532
2.16576	60.7653
2.16486	60.8263
2.16395	60.7923
2.16305	60.7701
2.16215	60.812
2.16125	60.8284
2.16035	60.8021
2.15945	60.7624
2.15855	60.8722
2.15765	60.9563
2.15675	60.9433
2.15586	60.8167
2.15496	60.7261
2.15406	60.8043
2.15317	60.9383
2.15228	61.1638
2.15138	61.1696
2.15049	60.952
2.1496	60.9976
2.14871	61.0859
2.14782	60.9591
2.14693	60.9045
2.14604	60.873
2.14515	60.9006
2.14427	60.8612
2.14338	60.8414
2.14249	60.8465
2.14161	60.9375
2.14072	60.8944
2.13984	60.7705
2.13896	60.8736
2.13808	60.8413
2.13719	60.8465
2.13631	60.9429
2.13543	60.9823
2.13455	61.0701
2.13368	61.0614
2.1328	60.9956
2.13192	60.9929
2.13105	60.8257
2.13017	60.8908
2.1293	61.0596
2.12842	61.0987
2.12755	61.0225
2.12668	60.8977
2.1258	60.924
2.12493	60.937
2.12406	61.1578
2.12319	61.4426
2.12232	61.5517
2.12145	61.63
2.12059	61.5621
2.11972	61.3211
2.11885	61.3101
2.11799	61.366
2.11712	61.3365
2.11626	61.1435
2.1154	61.1472
2.11453	61.417
2.11367	61.5545
2.11281	61.5985
2.11195	61.7733
2.11109	61.8185
2.11023	61.7125
2.10937	61.7524
2.10851	61.7546
2.10766	61.7813
2.1068	61.9526
2.10594	61.9946
2.10509	61.8561
2.10423	61.8543
2.10338	62.0109
2.10253	62.1126
2.10168	62.0222
2.10082	61.8998
2.09997	62.1936
2.09912	62.2279
2.09827	62.1733
2.09742	62.171
2.09658	62.0354
2.09573	61.9581
2.09488	62.0026
2.09404	62.0063
2.09319	61.9812
2.09235	61.9712
2.0915	62.0081
2.09066	61.9069
2.08982	61.865
2.08897	62.0644
2.08813	62.208
2.08729	62.2464
2.08645	62.1744
2.08561	62.0571
2.08477	61.9939
2.08394	62.1021
2.0831	62.1355
2.08226	62.1083
2.08143	62.0163
2.08059	61.7803
2.07976	61.9159
2.07892	62.306
2.07809	62.2593
2.07726	62.3118
2.07643	62.2508
2.07559	61.9298
2.07476	62.0594
2.07393	62.3584
2.0731	62.6977
2.07228	62.6748
2.07145	62.583
2.07062	62.6606
2.06979	62.4907
2.06897	62.4835
2.06814	62.6619
2.06732	63.0638
2.06649	63.2787
2.06567	63.0322
2.06485	62.9896
2.06403	63.1339
2.0632	63.0764
2.06238	63.0925
2.06156	63.2209
2.06074	63.1833
2.05993	63.1305
2.05911	63.2017
2.05829	63.4609
2.05747	63.5078
2.05666	63.4665
2.05584	63.2883
2.05503	63.1337
2.05421	63.3355
2.0534	63.5067
2.05259	63.2986
2.05177	63.1882
2.05096	63.1366
2.05015	63.2515
2.04934	63.4604
2.04853	63.4612
2.04772	63.4766
2.04691	63.3153
2.04611	63.1867
2.0453	63.4053
2.04449	63.5981
2.04369	63.3883
2.04288	63.4398
2.04208	63.5262
2.04127	63.477
2.04047	63.5145
2.03967	63.5019
2.03886	63.4705
2.03806	63.421
2.03726	63.4234
2.03646	63.4042
2.03566	63.4517
2.03486	63.6857
2.03407	63.8337
2.03327	63.8886
2.03247	63.8482
2.03167	64.1182
2.03088	64.0801
2.03008	63.7738
2.02929	63.7383
2.0285	63.6559
2.0277	63.5876
2.02691	63.8227
2.02612	63.9508
2.02533	63.8836
2.02453	63.739
2.02374	63.6192
2.02295	63.6586
2.02217	63.8383
2.02138	63.8662
2.02059	63.8069
2.0198	63.8531
2.01902	63.8699
2.01823	63.6761
2.01744	63.6003
2.01666	63.532
2.01588	63.3631
2.01509	63.4179
2.01431	63.6243
2.01353	63.7018
2.01275	63.6936
2.01196	63.6346
2.01118	63.7242
2.0104	63.8112
2.00963	63.8952
2.00885	64.0125
2.00807	63.9315
2.00729	63.8357
2.00651	63.9437
2.00574	63.9215
2.00496	63.9043
2.00419	63.9376
2.00341	63.8497
2.00264	63.8945
2.00187	63.8748
2.00109	63.9463
2.00032	64.148
