Name: Tremolite Ca_2(Mg,Fe^2+)_5Si_8O_22(OH)_2
Type: Mineral
Class: Silicates
Subclass: Inosilicates
Particle Size: 0-45um
Sample No.: IN-5A
Owner: JPL
Wavelength range: IR
Origin: 
Collected by JPL
Description: 





Measurement: Hemispherical reflectance
First Column: X
Second Column: Y
X Units:  Wavelength (micrometers)
Y Units:  Reflectance (percent)
First X Value: 15.3853
Last X Value: 2.00032
Number of X Values: 2256
Additional information: in05aa.txt
 
15.3853	3.20461
15.3397	3.78698
15.2945	4.0613
15.2495	3.88169
15.2048	3.40329
15.1603	3.32477
15.1161	3.55567
15.0722	3.60691
15.0285	3.66651
14.9851	3.67331
14.9419	3.87318
14.8989	4.2023
14.8563	4.3115
14.8138	4.55649
14.7716	4.91263
14.7296	5.21678
14.6879	5.53134
14.6464	6.04495
14.6052	6.40936
14.5641	6.54058
14.5233	6.78144
14.4828	6.90292
14.4424	6.51659
14.4023	6.11067
14.3624	5.74507
14.3227	5.24803
14.2833	5.09081
14.244	5.18176
14.205	5.22993
14.1662	5.32895
14.1276	5.48014
14.0892	5.4857
14.051	5.49138
14.0131	5.89371
13.9753	6.24736
13.9377	6.19265
13.9004	5.97915
13.8632	5.90321
13.8262	5.80435
13.7895	5.66527
13.7529	5.80792
13.7165	6.29086
13.6803	6.58985
13.6443	6.61669
13.6085	6.57135
13.5729	6.3498
13.5374	6.14832
13.5022	6.14827
13.4671	6.22229
13.4322	6.42245
13.3975	6.62462
13.363	6.8103
13.3286	7.04749
13.2944	7.263
13.2604	7.56286
13.2266	8.11819
13.193	8.76189
13.1595	9.42156
13.1262	9.77492
13.093	9.76358
13.06	9.33725
13.0272	8.43505
12.9946	7.42603
12.9621	6.34414
12.9298	5.71236
12.8976	5.69559
12.8656	5.84868
12.8337	6.10534
12.8021	6.41611
12.7705	6.79883
12.7391	7.28832
12.7079	7.70621
12.6769	8.18881
12.6459	8.70042
12.6152	9.13126
12.5845	9.51573
12.5541	9.84684
12.5238	10.0425
12.4936	10.2904
12.4635	10.7101
12.4337	11.3113
12.4039	11.8897
12.3743	12.3033
12.3448	12.5668
12.3155	12.7759
12.2863	12.9464
12.2573	13.1409
12.2284	13.3746
12.1996	13.4869
12.171	13.5649
12.1425	13.622
12.1141	13.867
12.0859	14.0004
12.0578	13.9163
12.0298	13.9088
12.0019	14.0929
11.9742	14.1746
11.9466	14.3314
11.9192	14.2809
11.8918	14.1624
11.8646	14.0387
11.8375	13.7911
11.8106	13.4819
11.7837	13.2491
11.757	13.1232
11.7304	12.8888
11.7039	12.656
11.6776	12.5352
11.6513	12.3088
11.6252	12.0101
11.5992	11.7673
11.5733	11.599
11.5475	11.4839
11.5219	11.3027
11.4963	11.1467
11.4709	11.1586
11.4455	11.1786
11.4203	11.3688
11.3952	11.5784
11.3702	11.5557
11.3454	11.4271
11.3206	11.3917
11.2959	11.3755
11.2714	11.1642
11.2469	10.9037
11.2226	10.6384
11.1983	10.4436
11.1742	10.3092
11.1502	10.1309
11.1263	9.92463
11.1024	9.78837
11.0787	9.75094
11.0551	9.60198
11.0316	9.49933
11.0081	9.61993
10.9848	9.70012
10.9616	9.75178
10.9385	10.0657
10.9154	10.3693
10.8925	10.5663
10.8697	10.5901
10.8469	10.2324
10.8243	9.68767
10.8017	9.1041
10.7793	8.41005
10.7569	7.88755
10.7346	7.63026
10.7125	7.59312
10.6904	8.055
10.6684	8.64215
10.6465	9.2303
10.6247	10.1154
10.6029	11.0657
10.5813	12.1289
10.5597	13.3221
10.5383	14.4342
10.5169	15.4593
10.4956	16.2197
10.4744	16.8163
10.4533	17.2801
10.4323	17.624
10.4113	17.9591
10.3904	18.2516
10.3697	18.4395
10.349	18.6327
10.3284	18.8215
10.3078	19.0202
10.2874	19.2109
10.267	19.4359
10.2467	19.6463
10.2265	20.0486
10.2064	20.4912
10.1863	21.0077
10.1663	21.5967
10.1464	22.2376
10.1266	22.8586
10.1069	23.1235
10.0872	23.1399
10.0676	22.9784
10.0481	22.7502
10.0287	22.4119
10.0093	22.0148
9.99005	21.6167
9.97084	21.1893
9.95169	20.7015
9.93263	20.2741
9.91364	19.7793
9.89472	19.048
9.87587	18.3577
9.8571	17.6596
9.83839	16.6376
9.81976	15.3891
9.80119	14.3091
9.78271	13.1477
9.76428	11.7474
9.74592	10.9548
9.72764	10.79
9.70943	11.0718
9.69128	11.6992
9.6732	12.29
9.65518	12.8191
9.63724	13.2163
9.61935	13.397
9.60155	13.1216
9.5838	12.6446
9.56611	12.4754
9.5485	12.7464
9.53094	13.2184
9.51345	13.4228
9.49604	13.4841
9.47867	13.6603
9.46137	13.7666
9.44414	13.8313
9.42697	13.9544
9.40986	14.1066
9.39281	14.2297
9.37583	14.3039
9.35891	14.5478
9.34204	14.8039
9.32524	15.112
9.3085	15.3657
9.29182	15.6075
9.27519	15.868
9.25863	16.0093
9.24213	15.9926
9.22568	16.0847
9.2093	16.0675
9.19297	16
9.17669	15.8076
9.16048	15.3859
9.14433	15.0176
9.12823	14.7205
9.11218	14.214
9.0962	13.6549
9.08027	13.203
9.06439	12.8048
9.04858	12.3356
9.03281	11.7671
9.0171	11.3237
9.00145	10.9468
8.98585	10.6428
8.9703	10.5411
8.9548	10.6137
8.93937	10.7098
8.92398	10.7977
8.90865	10.7906
8.89337	10.7249
8.87814	10.8506
8.86296	11.4172
8.84784	12.2609
8.83277	13.0902
8.81774	13.8222
8.80277	14.4834
8.78786	15.07
8.77298	15.6758
8.75816	16.0248
8.7434	16.3577
8.72868	16.7482
8.714	16.819
8.69938	16.692
8.68481	16.774
8.67029	16.8451
8.65581	16.4865
8.64139	15.8343
8.62701	15.0458
8.61268	14.1757
8.5984	13.0957
8.58416	12.0244
8.56997	10.9953
8.55583	10.0638
8.54174	9.25821
8.52769	8.59718
8.51368	8.20297
8.49973	7.7385
8.48582	7.22654
8.47195	6.8721
8.45813	6.54332
8.44436	6.07854
8.43062	5.78255
8.41693	5.6224
8.4033	5.44345
8.3897	5.33707
8.37614	5.2177
8.36264	5.17298
8.34917	5.25444
8.33574	5.17701
8.32236	5.01061
8.30903	4.95259
8.29573	4.88958
8.28248	4.90054
8.26927	5.02873
8.2561	5.01057
8.24298	5.09396
8.2299	5.36546
8.21685	5.39904
8.20385	5.24391
8.19089	5.23356
8.17797	5.28323
8.16509	5.21507
8.15225	5.2895
8.13946	5.37145
8.1267	5.43965
8.11398	5.55858
8.10131	5.67689
8.08867	5.75741
8.07606	5.68223
8.0635	5.73012
8.05099	5.91852
8.0385	6.0556
8.02606	6.19708
8.01366	6.37022
8.00129	6.60034
7.98896	6.82206
7.97667	6.87658
7.96442	7.00302
7.9522	7.23796
7.94002	7.47737
7.92788	7.71498
7.91578	7.83691
7.90371	7.96375
7.89168	8.11678
7.87969	8.28338
7.86773	8.5273
7.85581	8.78046
7.84392	8.88467
7.83207	8.87357
7.82026	8.87951
7.80849	8.96783
7.79674	9.11582
7.78503	9.27074
7.77337	9.34489
7.76173	9.46178
7.75012	9.59651
7.73856	9.59929
7.72703	9.57227
7.71553	9.73582
7.70406	9.90995
7.69263	9.99147
7.68123	10.1333
7.66987	10.3395
7.65855	10.4488
7.64725	10.5017
7.63598	10.6165
7.62475	10.6604
7.61356	10.7041
7.60239	10.8031
7.59126	10.901
7.58017	10.96
7.5691	10.9961
7.55806	11.1282
7.54707	11.1497
7.5361	11.049
7.52516	11.0508
7.51425	11.1364
7.50338	11.1447
7.49253	11.0612
7.48172	10.9463
7.47094	10.9436
7.46019	10.9382
7.44947	10.9577
7.43879	10.977
7.42813	10.9776
7.4175	11.033
7.4069	11.164
7.39634	11.2352
7.3858	11.2174
7.37529	11.1944
7.36482	11.2824
7.35437	11.344
7.34396	11.3672
7.33357	11.3665
7.32321	11.33
7.31288	11.3349
7.30258	11.3707
7.29231	11.3286
7.28207	11.3924
7.27185	11.5505
7.26167	11.667
7.25152	11.7351
7.24139	11.7952
7.23129	11.9201
7.22122	11.9579
7.21117	11.9859
7.20116	11.9849
7.19117	12.0749
7.18121	12.2515
7.17128	12.3267
7.16137	12.3821
7.1515	12.5014
7.14164	12.6254
7.13182	12.7452
7.12203	13.0402
7.11225	13.3544
7.10251	13.6972
7.0928	14.0177
7.08311	14.1053
7.07344	14.154
7.06381	14.2685
7.0542	14.3859
7.04461	14.4508
7.03506	14.3799
7.02552	14.4116
7.01601	14.4014
7.00653	14.3443
6.99708	14.4597
6.98765	14.59
6.97824	14.6721
6.96886	14.8615
6.95951	14.9426
6.95018	14.7927
6.94087	14.8245
6.9316	14.9558
6.92234	15.0458
6.91311	15.2146
6.90391	15.3731
6.89473	15.3871
6.88557	15.4809
6.87644	15.6605
6.86733	16.1125
6.85824	16.2176
6.84918	16.0139
6.84015	15.9969
6.83114	16.1949
6.82215	16.3505
6.81319	16.3749
6.80424	16.4988
6.79532	16.8513
6.78643	17.1337
6.77756	17.1427
6.76871	17.2102
6.75989	17.3604
6.75109	17.5061
6.74231	17.705
6.73355	17.9381
6.72482	18.1625
6.71611	18.4284
6.70742	18.5872
6.69875	18.6691
6.69011	18.9244
6.68149	19.2757
6.67289	19.4588
6.66431	19.6242
6.65576	19.906
6.64722	20.5263
6.63871	21.2723
6.63022	21.4145
6.62175	21.4122
6.61331	21.6829
6.60488	22.0502
6.59648	22.6029
6.5881	23.0991
6.57974	23.6985
6.5714	24.2775
6.56308	24.4069
6.55478	24.685
6.54651	24.9503
6.53825	25.127
6.53001	25.374
6.5218	25.7001
6.51361	25.6645
6.50544	25.8942
6.49729	26.5457
6.48915	26.5521
6.48104	26.1809
6.47295	25.9497
6.46488	25.7814
6.45683	25.7693
6.4488	25.7615
6.44079	25.7413
6.4328	25.7311
6.42482	25.7216
6.41687	26.06
6.40894	25.5014
6.40103	24.4886
6.39314	23.9601
6.38526	23.6615
6.37741	23.6498
6.36957	23.5569
6.36176	23.0551
6.35396	22.7082
6.34618	22.611
6.33843	21.9769
6.33069	21.2019
6.32297	20.666
6.31527	20.1672
6.30758	19.6784
6.29992	19.2393
6.29227	18.9849
6.28465	18.8008
6.27704	18.6192
6.26945	18.3331
6.26188	18.043
6.25432	17.8959
6.24679	17.7469
6.23927	17.5274
6.23177	17.389
6.22429	17.3095
6.21683	17.1594
6.20938	17.0093
6.20195	17.0658
6.19454	17.1972
6.18715	17.5073
6.17978	17.5215
6.17242	17.4707
6.16508	17.681
6.15776	17.8571
6.15045	17.9149
6.14317	18.0269
6.1359	18.1234
6.12864	18.2798
6.12141	18.6669
6.11419	19.0575
6.10699	19.0556
6.0998	19.1224
6.09263	19.4227
6.08549	19.7504
6.07835	20.2309
6.07123	20.5949
6.06413	20.6927
6.05705	21.279
6.04998	22.2486
6.04293	22.2547
6.0359	22.2037
6.02888	22.523
6.02187	22.9294
6.01489	23.3429
6.00792	23.4071
6.00096	23.4202
5.99403	23.6347
5.98711	23.5455
5.9802	23.101
5.97331	22.8819
5.96644	22.5736
5.95958	22.0073
5.95274	21.6899
5.94591	21.5849
5.9391	21.8893
5.9323	21.6193
5.92552	21.0109
5.91876	20.754
5.91201	20.6853
5.90528	20.8764
5.89856	21.3974
5.89186	21.6425
5.88517	22.1013
5.8785	22.3476
5.87184	22.1606
5.8652	22.4388
5.85857	22.6339
5.85196	22.8837
5.84536	23.1893
5.83878	23.5273
5.83221	23.9675
5.82566	24.5345
5.81912	24.7171
5.81259	24.5276
5.80608	24.5985
5.79959	24.8044
5.79311	24.9159
5.78665	25.0915
5.78019	25.3357
5.77376	25.7699
5.76734	26.2567
5.76093	26.0716
5.75453	26.0085
5.74815	26.4508
5.74179	26.7292
5.73543	26.9343
5.7291	27.096
5.72277	27.2886
5.71646	27.4802
5.71017	27.6655
5.70389	27.5668
5.69762	27.4855
5.69136	27.4565
5.68513	27.3163
5.6789	27.362
5.67268	27.3417
5.66648	27.2686
5.6603	27.4273
5.65413	27.6376
5.64797	27.7787
5.64182	27.9138
5.63569	27.7825
5.62957	27.6016
5.62347	27.5472
5.61737	27.6581
5.61129	27.6935
5.60522	27.6314
5.59917	27.3524
5.59313	26.7211
5.5871	26.0224
5.58109	25.4291
5.57509	24.9861
5.5691	24.8544
5.56312	25.0219
5.55716	25.5911
5.55121	26.6185
5.54528	27.7647
5.53935	28.7663
5.53344	29.4639
5.52754	29.9591
5.52166	30.2792
5.51578	30.4208
5.50992	30.4499
5.50407	30.5899
5.49823	30.7121
5.49241	30.6914
5.4866	30.5768
5.4808	30.6066
5.47501	30.5501
5.46923	30.4384
5.46347	30.2938
5.45772	30.1248
5.45198	30.1049
5.44625	30.2846
5.44054	30.6482
5.43484	31.0786
5.42914	31.607
5.42347	32.1866
5.4178	32.3955
5.41214	32.5793
5.4065	32.8256
5.40087	32.9394
5.39525	32.9881
5.38964	32.9844
5.38404	32.9587
5.37846	32.9306
5.37288	32.8469
5.36732	32.7038
5.36177	32.5982
5.35623	32.5506
5.35071	32.408
5.34519	32.0375
5.33968	31.7648
5.33419	31.6026
5.32871	31.5026
5.32324	31.4826
5.31778	31.5825
5.31233	31.8518
5.30689	32.2335
5.30147	32.7143
5.29605	33.2317
5.29065	33.5765
5.28525	33.734
5.27987	33.9534
5.2745	34.1537
5.26914	34.2442
5.26379	34.3137
5.25845	34.3216
5.25312	34.3425
5.24781	34.548
5.2425	34.8557
5.23721	35.2843
5.23192	35.8517
5.22665	36.52
5.22138	37.1182
5.21613	37.6777
5.21089	38.0486
5.20566	38.2067
5.20044	38.3609
5.19522	38.3232
5.19002	38.112
5.18483	37.787
5.17965	37.3769
5.17448	36.8313
5.16933	36.2767
5.16418	35.749
5.15904	35.177
5.15391	34.6186
5.14879	34.1481
5.14368	33.6972
5.13859	33.2658
5.1335	32.9875
5.12842	32.9496
5.12335	32.9736
5.1183	33.0487
5.11325	33.2539
5.10821	33.4912
5.10318	33.6894
5.09817	33.9676
5.09316	34.2387
5.08816	34.5281
5.08317	34.7824
5.07819	34.9312
5.07322	35.0125
5.06826	35.0662
5.06331	35.2467
5.05837	35.4369
5.05344	35.5941
5.04852	35.7977
5.04361	35.9962
5.03871	36.1951
5.03382	36.4836
5.02894	36.713
5.02406	36.9727
5.0192	37.2852
5.01435	37.5679
5.0095	37.8843
5.00467	38.227
4.99984	38.4917
4.99502	38.7629
4.99021	39.0152
4.98542	39.2425
4.98063	39.5314
4.97585	39.7614
4.97108	39.8464
4.96632	40.071
4.96156	40.4296
4.95682	40.7011
4.95209	40.9476
4.94736	41.2275
4.94264	41.5328
4.93794	41.8246
4.93324	42.0983
4.92855	42.3706
4.92387	42.595
4.9192	42.8316
4.91453	43.0778
4.90988	43.3031
4.90524	43.5594
4.9006	43.8514
4.89597	44.0364
4.89135	44.1638
4.88674	44.2467
4.88214	44.2425
4.87755	44.1769
4.87296	44.2649
4.86839	44.371
4.86382	44.4144
4.85926	44.4367
4.85471	44.5281
4.85017	44.7249
4.84564	44.8827
4.84111	44.9452
4.8366	44.9121
4.83209	44.7852
4.82759	44.7549
4.8231	44.7625
4.81862	44.7065
4.81415	44.7026
4.80968	44.722
4.80522	44.6966
4.80077	44.7166
4.79633	44.757
4.7919	45.022
4.78747	45.465
4.78306	45.8416
4.77865	46.2511
4.77425	46.7001
4.76986	47.1382
4.76547	47.5531
4.7611	48.0053
4.75673	48.4909
4.75237	48.8942
4.74802	49.3429
4.74367	49.825
4.73934	50.2197
4.73501	50.53
4.73069	50.7896
4.72638	51.0034
4.72207	51.1436
4.71777	51.2804
4.71348	51.3466
4.7092	51.3383
4.70493	51.3209
4.70066	51.3473
4.69641	51.423
4.69216	51.5961
4.68791	51.7493
4.68368	51.9466
4.67945	52.2453
4.67523	52.5132
4.67102	52.8338
4.66682	53.1312
4.66262	53.4765
4.65843	53.8102
4.65425	54.0533
4.65007	54.3424
4.64591	54.7114
4.64175	55.0948
4.6376	55.4895
4.63345	55.804
4.62932	56.1919
4.62519	56.6438
4.62106	57.0268
4.61695	57.3021
4.61284	57.5896
4.60874	57.9121
4.60465	58.182
4.60056	58.3381
4.59648	58.5058
4.59241	58.6959
4.58835	58.8548
4.58429	59.0264
4.58024	59.2556
4.5762	59.4672
4.57216	59.6501
4.56814	59.8338
4.56411	60.1305
4.5601	60.3958
4.55609	60.6386
4.55209	60.8939
4.5481	61.2001
4.54411	61.498
4.54013	61.7136
4.53616	61.8449
4.5322	62.005
4.52824	62.1288
4.52429	62.2795
4.52034	62.5182
4.51641	62.704
4.51247	62.8542
4.50855	63.0538
4.50463	63.2458
4.50072	63.4387
4.49682	63.5522
4.49292	63.6549
4.48903	63.7821
4.48515	63.9168
4.48127	64.1168
4.4774	64.303
4.47354	64.4239
4.46968	64.5243
4.46584	64.6217
4.46199	64.7522
4.45815	64.8852
4.45432	64.9652
4.4505	65.0446
4.44668	65.1431
4.44287	65.2101
4.43907	65.2604
4.43527	65.3477
4.43148	65.4266
4.4277	65.4952
4.42392	65.5113
4.42015	65.5188
4.41638	65.6373
4.41262	65.6369
4.40887	65.6369
4.40513	65.7196
4.40139	65.7914
4.39765	65.7915
4.39393	65.8637
4.39021	65.923
4.38649	65.9527
4.38278	66.0131
4.37908	66.0452
4.37539	66.0251
4.3717	66.0775
4.36801	66.1035
4.36434	66.0734
4.36067	66.0673
4.357	66.0959
4.35335	66.124
4.34969	66.1354
4.34605	66.1426
4.34241	66.2217
4.33877	66.2374
4.33514	66.2034
4.33152	66.2274
4.32791	66.2738
4.3243	66.3481
4.32069	66.3993
4.3171	66.4331
4.31351	66.4634
4.30992	66.5179
4.30634	66.5649
4.30277	66.5942
4.2992	66.662
4.29564	66.7508
4.29208	66.9065
4.28853	66.9774
4.28499	66.9442
4.28145	66.946
4.27792	66.9441
4.27439	66.9197
4.27087	66.9416
4.26735	66.8944
4.26384	66.7678
4.26034	66.6142
4.25684	66.5559
4.25335	66.6768
4.24986	66.9462
4.24638	67.1379
4.24291	67.2373
4.23944	67.2983
4.23598	67.3195
4.23252	67.341
4.22906	67.3366
4.22562	67.2619
4.22218	67.182
4.21874	67.1374
4.21531	67.0516
4.21189	66.9275
4.20847	66.8903
4.20506	66.8454
4.20165	66.7728
4.19825	66.6676
4.19485	66.6393
4.19146	66.689
4.18807	66.6865
4.18469	66.6561
4.18132	66.7006
4.17795	66.7011
4.17458	66.7254
4.17123	66.7151
4.16787	66.6873
4.16453	66.6471
4.16118	66.6409
4.15785	66.6372
4.15451	66.6129
4.15119	66.565
4.14787	66.6211
4.14455	66.6729
4.14124	66.6644
4.13794	66.6199
4.13464	66.5847
4.13134	66.5527
4.12805	66.5373
4.12477	66.5533
4.12149	66.5776
4.11822	66.5253
4.11495	66.4842
4.11168	66.4109
4.10843	66.355
4.10517	66.3561
4.10192	66.3172
4.09868	66.2749
4.09545	66.2464
4.09221	66.2174
4.08899	66.1891
4.08576	66.1466
4.08255	66.1047
4.07933	65.996
4.07613	65.925
4.07292	65.9061
4.06973	65.7856
4.06654	65.6721
4.06335	65.5499
4.06017	65.4208
4.05699	65.2404
4.05382	65.0289
4.05065	64.7663
4.04749	64.4254
4.04433	64.0284
4.04118	63.5723
4.03803	63.1115
4.03489	62.5937
4.03175	62.0277
4.02862	61.4874
4.02549	60.9665
4.02237	60.4127
4.01925	59.8578
4.01614	59.2831
4.01303	58.4927
4.00993	57.4057
4.00683	56.2463
4.00373	55.1211
4.00064	54.1463
3.99756	53.2523
3.99448	52.4177
3.9914	51.6761
3.98833	51.0662
3.98527	50.6101
3.98221	50.4262
3.97915	50.4129
3.9761	50.4683
3.97305	50.6119
3.97001	50.7868
3.96697	51.0848
3.96394	51.5093
3.96091	52.0325
3.95789	52.6296
3.95487	53.3283
3.95186	54.1454
3.94885	54.9274
3.94584	55.7267
3.94284	56.6257
3.93984	57.5174
3.93685	58.1046
3.93386	58.3102
3.93088	58.3613
3.9279	58.5315
3.92493	58.7555
3.92196	58.8793
3.919	59.0246
3.91604	59.2118
3.91308	59.3013
3.91013	59.4057
3.90718	59.5542
3.90424	59.6233
3.9013	59.6341
3.89837	59.751
3.89544	59.867
3.89252	59.9595
3.8896	60.0135
3.88668	60.0326
3.88377	60.0618
3.88086	60.0667
3.87796	60.1148
3.87506	60.2201
3.87217	60.1944
3.86928	60.1915
3.86639	60.2683
3.86351	60.4048
3.86064	60.5366
3.85776	60.5803
3.8549	60.6529
3.85203	60.7759
3.84917	60.8319
3.84631	60.9211
3.84346	61.063
3.84062	61.2399
3.83777	61.4954
3.83494	61.7908
3.8321	62.1486
3.82927	62.5495
3.82644	62.9206
3.82362	63.2514
3.82081	63.5844
3.81799	63.964
3.81518	64.3136
3.81238	64.5655
3.80958	64.8015
3.80678	65.0662
3.80399	65.4478
3.8012	65.8605
3.79841	66.1822
3.79563	66.4974
3.79286	66.8819
3.79008	67.2525
3.78731	67.4188
3.78455	67.454
3.78179	67.5438
3.77903	67.63
3.77628	67.6401
3.77353	67.696
3.77079	67.8274
3.76805	67.934
3.76531	67.9758
3.76258	68.0204
3.75985	67.9864
3.75713	67.9606
3.7544	67.9369
3.75169	67.8957
3.74898	67.949
3.74627	68.0485
3.74356	68.1235
3.74086	68.1294
3.73816	68.1254
3.73547	68.1701
3.73278	68.208
3.7301	68.2408
3.72741	68.2559
3.72474	68.2447
3.72206	68.2036
3.71939	68.1267
3.71673	68.1128
3.71406	68.1815
3.71141	68.2288
3.70875	68.2033
3.7061	68.2306
3.70345	68.2827
3.70081	68.2948
3.69817	68.2616
3.69553	68.1335
3.6929	67.7962
3.69027	67.6901
3.68765	68.0053
3.68503	68.197
3.68241	68.2624
3.6798	68.1874
3.67719	68.1337
3.67458	68.1688
3.67198	68.1652
3.66938	68.1073
3.66678	68.0758
3.66419	68.0312
3.66161	68.0855
3.65902	68.1168
3.65644	68.151
3.65387	68.0895
3.65129	68.0449
3.64872	68.0186
3.64616	67.9364
3.64359	67.8771
3.64103	67.8632
3.63848	67.8714
3.63593	67.9303
3.63338	68.0005
3.63084	68.0381
3.6283	68.0011
3.62576	67.9591
3.62322	67.9011
3.62069	67.871
3.61817	67.8454
3.61564	67.8176
3.61312	67.835
3.61061	67.8654
3.6081	67.8296
3.60559	67.8123
3.60308	67.8209
3.60058	67.7408
3.59808	67.7162
3.59558	67.7064
3.59309	67.6586
3.59061	67.5744
3.58812	67.5042
3.58564	67.375
3.58316	67.2134
3.58069	67.0957
3.57822	67.0673
3.57575	67.0197
3.57328	66.8824
3.57082	66.7616
3.56836	66.6913
3.56591	66.7053
3.56346	66.7336
3.56101	66.7494
3.55857	66.7263
3.55613	66.6672
3.55369	66.5338
3.55126	66.4147
3.54883	66.322
3.5464	66.1385
3.54397	65.9041
3.54155	65.7209
3.53914	65.5438
3.53672	65.2778
3.53431	64.9482
3.5319	64.5305
3.5295	64.0327
3.5271	63.4772
3.5247	62.7921
3.52231	62.0406
3.51991	61.2593
3.51753	60.5788
3.51514	60.0427
3.51276	59.519
3.51038	59.0218
3.50801	58.6492
3.50563	58.3051
3.50327	57.9895
3.5009	57.8004
3.49854	57.6651
3.49618	57.4361
3.49382	57.067
3.49147	56.7133
3.48912	56.4781
3.48677	56.2569
3.48443	56.0007
3.48209	55.7193
3.47975	55.5618
3.47742	55.5482
3.47509	55.747
3.47276	56.187
3.47044	56.8728
3.46812	57.6503
3.4658	58.383
3.46348	58.9373
3.46117	59.2567
3.45886	59.5026
3.45656	59.6132
3.45425	59.6504
3.45195	59.716
3.44966	59.7556
3.44736	59.7797
3.44507	59.7526
3.44279	59.7261
3.4405	59.7519
3.43822	59.6419
3.43594	59.5754
3.43367	59.5456
3.43139	59.4351
3.42912	59.267
3.42686	59.1341
3.42459	58.9638
3.42233	58.7894
3.42007	58.6822
3.41782	58.6417
3.41557	58.6837
3.41332	58.6877
3.41108	58.6522
3.40883	58.6159
3.40659	58.6303
3.40435	58.5993
3.40212	58.5457
3.39989	58.5818
3.39766	58.6077
3.39544	58.5414
3.39322	58.4677
3.391	58.31
3.38878	58.1942
3.38657	58.1203
3.38436	57.9882
3.38215	57.8287
3.37994	57.7389
3.37774	57.7909
3.37554	57.6314
3.37335	57.4623
3.37115	57.4802
3.36896	57.4238
3.36678	57.3838
3.36459	57.2497
3.36241	57.0275
3.36023	56.769
3.35805	56.3845
3.35588	55.9709
3.35371	55.6205
3.35154	55.4558
3.34938	55.4903
3.34721	55.814
3.34505	56.4415
3.3429	57.2354
3.34074	58.238
3.33859	59.2359
3.33644	60.0426
3.3343	60.7451
3.33215	61.2739
3.33001	61.608
3.32788	61.7961
3.32574	61.9088
3.32361	61.9974
3.32148	62.0573
3.31936	62.1238
3.31723	62.1586
3.31511	62.137
3.31299	62.0234
3.31088	61.9309
3.30876	61.9189
3.30665	62.0279
3.30455	62.2172
3.30244	62.378
3.30034	62.5602
3.29824	62.7673
3.29614	62.9267
3.29405	63.0001
3.29196	63.1513
3.28987	63.4216
3.28778	63.7174
3.2857	63.9786
3.28362	64.2273
3.28154	64.4648
3.27946	64.5193
3.27739	64.5573
3.27532	64.6013
3.27325	64.6474
3.27119	64.6867
3.26913	64.69
3.26707	64.6831
3.26501	64.6338
3.26295	64.6686
3.2609	64.7067
3.25885	64.6287
3.2568	64.6255
3.25476	64.6533
3.25272	64.6064
3.25068	64.5162
3.24864	64.4903
3.24661	64.475
3.24458	64.486
3.24255	64.4607
3.24052	64.4194
3.2385	64.4032
3.23648	64.3717
3.23446	64.3339
3.23244	64.2634
3.23043	64.224
3.22841	64.1794
3.2264	64.1344
3.2244	64.1579
3.22239	64.1684
3.22039	64.0608
3.21839	64.0284
3.2164	64.0312
3.2144	64.0119
3.21241	63.9203
3.21042	63.9059
3.20844	63.8822
3.20645	63.8172
3.20447	63.7759
3.20249	63.6796
3.20051	63.5168
3.19854	63.382
3.19657	63.2458
3.1946	63.0785
3.19263	63.0011
3.19067	62.9472
3.1887	62.7844
3.18674	62.5754
3.18479	62.4193
3.18283	62.2632
3.18088	62.1802
3.17893	62.1615
3.17698	62.1253
3.17504	61.9532
3.17309	61.76
3.17115	61.6253
3.16921	61.5719
3.16728	61.6119
3.16534	61.6834
3.16341	61.8046
3.16148	61.9849
3.15956	61.9998
3.15763	61.8584
3.15571	61.8853
3.15379	61.9356
3.15187	61.8885
3.14996	62.0064
3.14805	62.1697
3.14614	62.2796
3.14423	62.3218
3.14232	62.2321
3.14042	62.2077
3.13852	62.263
3.13662	62.2874
3.13472	62.163
3.13283	62.073
3.13094	62.1041
3.12905	62.0391
3.12716	61.9386
3.12528	61.8959
3.12339	61.8524
3.12151	61.8547
3.11964	61.7473
3.11776	61.6436
3.11589	61.6257
3.11401	61.5567
3.11214	61.5158
3.11028	61.4407
3.10841	61.4009
3.10655	61.4301
3.10469	61.3628
3.10283	61.2903
3.10098	61.3583
3.09912	61.2777
3.09727	61.0791
3.09542	61.0803
3.09358	61.2423
3.09173	61.2826
3.08989	61.2939
3.08805	61.3447
3.08621	61.2712
3.08437	61.1241
3.08254	61.0072
3.08071	60.9858
3.07888	60.9703
3.07705	60.8876
3.07523	60.8341
3.0734	60.8499
3.07158	60.7774
3.06977	60.742
3.06795	60.8353
3.06613	60.8693
3.06432	60.8509
3.06251	60.8375
3.0607	60.7495
3.0589	60.638
3.0571	60.5995
3.05529	60.5775
3.05349	60.5819
3.0517	60.473
3.0499	60.3282
3.04811	60.2939
3.04632	60.2775
3.04453	60.2407
3.04274	60.2137
3.04096	60.2385
3.03918	60.2227
3.0374	60.229
3.03562	60.1601
3.03384	60.0517
3.03207	60.006
3.03029	59.9332
3.02852	59.8988
3.02676	59.9347
3.02499	59.9141
3.02323	59.8654
3.02146	59.8733
3.0197	59.9753
3.01795	59.9083
3.01619	59.7618
3.01444	59.6582
3.01269	59.5978
3.01094	59.544
3.00919	59.4404
3.00744	59.5136
3.0057	59.5247
3.00396	59.4874
3.00222	59.5222
3.00048	59.4307
2.99875	59.2881
2.99701	59.0981
2.99528	58.9641
2.99355	59.0604
2.99183	59.2087
2.9901	59.1425
2.98838	59.1059
2.98666	59.1592
2.98494	59.0836
2.98322	58.9501
2.9815	58.8858
2.97979	58.8057
2.97808	58.7395
2.97637	58.652
2.97466	58.6322
2.97295	58.6898
2.97125	58.7859
2.96955	58.7378
2.96785	58.6622
2.96615	58.6252
2.96446	58.6173
2.96276	58.5578
2.96107	58.4772
2.95938	58.4423
2.95769	58.4606
2.95601	58.5037
2.95432	58.4684
2.95264	58.4661
2.95096	58.483
2.94928	58.4767
2.9476	58.456
2.94593	58.3039
2.94425	58.2554
2.94258	58.2088
2.94092	58.1443
2.93925	58.1034
2.93758	58.1244
2.93592	58.1487
2.93426	58.1578
2.9326	58.3115
2.93094	58.4469
2.92928	58.3386
2.92763	58.2423
2.92598	58.1898
2.92433	58.1751
2.92268	58.2368
2.92103	58.2976
2.91939	58.3651
2.91775	58.4109
2.9161	58.3805
2.91447	58.3558
2.91283	58.3364
2.91119	58.3502
2.90956	58.2759
2.90793	58.2668
2.9063	58.2927
2.90467	58.3255
2.90304	58.4077
2.90142	58.4277
2.89979	58.364
2.89817	58.3692
2.89656	58.3543
2.89494	58.2865
2.89332	58.3031
2.89171	58.2647
2.8901	58.2786
2.88849	58.428
2.88688	58.3267
2.88527	58.2505
2.88367	58.2267
2.88206	58.1369
2.88046	58.1333
2.87886	58.0729
2.87727	57.9699
2.87567	57.7982
2.87408	57.5845
2.87248	57.4013
2.87089	57.2071
2.8693	56.9803
2.86772	56.7089
2.86613	56.5629
2.86455	56.4129
2.86297	56.2976
2.86139	56.3881
2.85981	56.6507
2.85823	56.8837
2.85666	57.0606
2.85508	57.4657
2.85351	57.7245
2.85194	57.7899
2.85038	57.9734
2.84881	58.225
2.84724	58.4896
2.84568	58.6477
2.84412	58.7489
2.84256	58.7489
2.841	58.7725
2.83945	58.8988
2.83789	59.0384
2.83634	59.08
2.83479	59.1247
2.83324	59.0969
2.83169	59.0387
2.83015	58.9662
2.82861	58.9096
2.82706	58.8154
2.82552	58.7482
2.82398	58.8849
2.82245	59.1017
2.82091	59.1877
2.81938	59.1224
2.81784	58.9777
2.81631	59.0029
2.81479	59.0491
2.81326	58.8902
2.81173	58.7919
2.81021	58.8715
2.80869	58.9715
2.80716	58.9679
2.80565	59.01
2.80413	59.2095
2.80261	59.3235
2.8011	59.0641
2.79959	58.851
2.79808	58.8441
2.79657	58.753
2.79506	58.5938
2.79355	58.4772
2.79205	58.3241
2.79055	58.2531
2.78904	58.5001
2.78754	58.7772
2.78605	58.719
2.78455	58.5487
2.78306	58.591
2.78156	58.6343
2.78007	58.6267
2.77858	58.552
2.77709	58.4799
2.77561	58.2816
2.77412	58.1825
2.77264	58.2618
2.77116	58.4047
2.76968	57.9826
2.7682	57.5204
2.76672	57.2068
2.76524	57.3496
2.76377	58.0431
2.7623	58.5709
2.76083	58.4873
2.75936	58.6442
2.75789	59.131
2.75642	59.9469
2.75496	60.2187
2.7535	59.7184
2.75203	59.6643
2.75057	59.7722
2.74912	59.9363
2.74766	59.9731
2.7462	59.7734
2.74475	59.5215
2.7433	59.0151
2.74185	58.8027
2.7404	58.7383
2.73895	57.5373
2.7375	55.651
2.73606	53.5387
2.73462	51.0575
2.73318	47.7058
2.73174	43.6567
2.7303	41.7768
2.72886	40.3083
2.72742	34.9921
2.72599	27.0185
2.72456	19.6994
2.72313	13.9928
2.7217	11.6652
2.72027	15.7836
2.71884	24.0504
2.71742	35.2016
2.71599	45.7306
2.71457	51.9554
2.71315	55.5075
2.71173	58.311
2.71032	60.0033
2.7089	60.6745
2.70748	60.9134
2.70607	61.2931
2.70466	61.8454
2.70325	62.2766
2.70184	62.344
2.70043	61.3854
2.69903	60.0866
2.69762	59.8575
2.69622	60.6087
2.69482	61.314
2.69342	60.8964
2.69202	59.6896
2.69062	59.5446
2.68923	60.6763
2.68783	62.3414
2.68644	64.2456
2.68505	65.778
2.68366	66.7989
2.68227	67.2906
2.68089	67.5655
2.6795	68.0947
2.67812	68.4046
2.67673	68.8234
2.67535	68.7928
2.67397	68.5732
2.6726	69.0201
2.67122	70.7646
2.66984	71.4344
2.66847	70.9374
2.6671	71.5449
2.66572	71.809
2.66435	71.3311
2.66299	70.6848
2.66162	70.7016
2.66025	70.7452
2.65889	70.6914
2.65753	70.4394
2.65616	70.6159
2.65481	70.5993
2.65345	70.7064
2.65209	70.86
2.65073	70.6559
2.64938	70.4462
2.64803	70.3794
2.64667	70.4564
2.64532	70.5752
2.64397	70.4076
2.64263	70.3847
2.64128	70.235
2.63994	69.9692
2.63859	69.8423
2.63725	69.8148
2.63591	69.7429
2.63457	69.9363
2.63323	70.0059
2.6319	70.368
2.63056	71.0643
2.62923	70.5637
2.62789	70.3182
2.62656	70.6
2.62523	70.0174
2.6239	69.6709
2.62258	69.7719
2.62125	70.4914
2.61993	70.753
2.6186	70.3213
2.61728	70.667
2.61596	70.5437
2.61464	70.0362
2.61332	69.883
2.61201	69.8127
2.61069	70.0121
2.60938	69.9833
2.60807	69.8233
2.60675	70.1196
2.60544	70.442
2.60414	69.8489
2.60283	69.5388
2.60152	69.5718
2.60022	69.4226
2.59891	69.3031
2.59761	69.6111
2.59631	70.5815
2.59501	71.7012
2.59371	70.927
2.59242	69.7275
2.59112	69.4099
2.58983	69.4984
2.58853	69.5429
2.58724	69.6537
2.58595	69.4803
2.58466	69.8535
2.58338	69.9525
2.58209	69.5199
2.5808	69.4242
2.57952	69.1319
2.57824	69.3136
2.57695	69.5981
2.57567	69.409
2.5744	69.4169
2.57312	69.3586
2.57184	68.7159
2.57057	68.6583
2.56929	68.752
2.56802	68.4576
2.56675	68.2713
2.56548	68.5096
2.56421	68.7048
2.56294	68.6854
2.56168	68.7571
2.56041	68.5572
2.55915	68.15
2.55789	67.8648
2.55662	67.792
2.55536	68.0339
2.5541	68.4592
2.55285	68.6841
2.55159	68.703
2.55034	68.6065
2.54908	68.5713
2.54783	68.7845
2.54658	68.9508
2.54533	68.9055
2.54408	68.8123
2.54283	68.8532
2.54159	68.7402
2.54034	68.659
2.5391	68.6238
2.53785	68.5597
2.53661	68.7403
2.53537	68.8478
2.53413	68.7349
2.53289	68.6957
2.53166	68.7353
2.53042	68.8098
2.52919	68.9106
2.52795	68.928
2.52672	68.863
2.52549	68.7951
2.52426	68.7546
2.52303	68.714
2.52181	68.6976
2.52058	68.6779
2.51936	68.5855
2.51813	68.3495
2.51691	68.0279
2.51569	67.8284
2.51447	67.7937
2.51325	67.85
2.51203	67.9564
2.51082	68.1192
2.5096	68.1579
2.50839	68.0621
2.50717	68.0498
2.50596	68.124
2.50475	68.1638
2.50354	68.2302
2.50233	68.1734
2.50113	68.0111
2.49992	67.8874
2.49872	67.8823
2.49751	67.8818
2.49631	67.7723
2.49511	67.7623
2.49391	67.8764
2.49271	67.8205
2.49151	67.6932
2.49031	67.6896
2.48912	67.6794
2.48792	67.6914
2.48673	67.7094
2.48554	67.6511
2.48435	67.5626
2.48316	67.5723
2.48197	67.4587
2.48078	67.281
2.4796	67.1431
2.47841	67.2486
2.47723	67.3156
2.47604	67.3261
2.47486	67.4032
2.47368	67.4505
2.4725	67.3483
2.47132	67.2426
2.47014	67.3041
2.46897	67.327
2.46779	67.152
2.46662	67.0373
2.46545	67.1479
2.46427	67.175
2.4631	66.9468
2.46193	66.7849
2.46077	66.8009
2.4596	66.8702
2.45843	66.9259
2.45727	67.0187
2.4561	67.1989
2.45494	67.5161
2.45378	67.7595
2.45262	67.9021
2.45146	68.0378
2.4503	68.0191
2.44914	67.916
2.44799	67.7841
2.44683	67.6989
2.44568	67.6514
2.44452	67.5443
2.44337	67.3882
2.44222	67.3113
2.44107	67.2995
2.43992	67.5113
2.43877	67.8284
2.43763	68.0934
2.43648	68.3657
2.43534	68.6522
2.43419	68.8994
2.43305	69.1418
2.43191	69.2764
2.43077	69.2383
2.42963	69.1086
2.42849	68.996
2.42736	69.1052
2.42622	69.2191
2.42509	69.1743
2.42395	69.0021
2.42282	68.7408
2.42169	68.5244
2.42056	68.5173
2.41943	68.2552
2.4183	67.9284
2.41717	67.8163
2.41605	67.7483
2.41492	67.8559
2.4138	67.9627
2.41267	67.9765
2.41155	68.2377
2.41043	68.5569
2.40931	68.633
2.40819	68.6252
2.40707	68.714
2.40595	68.8023
2.40484	68.8673
2.40372	69.0044
2.40261	68.9365
2.4015	68.6353
2.40039	68.2052
2.39928	67.6555
2.39817	66.9217
2.39706	66.1695
2.39595	65.4133
2.39484	64.7861
2.39374	64.3371
2.39263	63.901
2.39153	63.3729
2.39043	62.687
2.38932	62.0473
2.38822	61.6077
2.38712	61.2216
2.38603	60.9346
2.38493	60.7861
2.38383	60.9445
2.38274	61.3917
2.38164	61.8826
2.38055	62.4507
2.37946	63.0722
2.37836	63.7022
2.37727	64.4407
2.37618	65.0904
2.3751	65.6328
2.37401	66.1502
2.37292	66.4925
2.37184	66.8451
2.37075	67.2039
2.36967	67.4606
2.36859	67.7549
2.3675	68.0979
2.36642	68.2889
2.36534	68.3798
2.36427	68.5774
2.36319	68.8334
2.36211	69.1562
2.36104	69.4605
2.35996	69.5142
2.35889	69.4402
2.35781	69.3542
2.35674	69.4569
2.35567	69.5208
2.3546	69.412
2.35353	69.3085
2.35247	69.3634
2.3514	69.5399
2.35033	69.6454
2.34927	69.7045
2.3482	69.8837
2.34714	70.0288
2.34608	70.207
2.34502	70.3633
2.34396	70.3731
2.3429	70.4061
2.34184	70.4294
2.34078	70.2989
2.33973	70.2907
2.33867	70.3403
2.33762	70.4133
2.33656	70.3212
2.33551	70.137
2.33446	70.0459
2.33341	69.8437
2.33236	69.5739
2.33131	69.3935
2.33026	69.1722
2.32922	68.7333
2.32817	68.0291
2.32712	67.2415
2.32608	66.2838
2.32504	64.9757
2.324	63.249
2.32295	61.544
2.32191	60.3144
2.32087	59.5566
2.31984	59.1337
2.3188	58.8486
2.31776	58.4574
2.31673	58.0711
2.31569	57.6411
2.31466	57.4973
2.31362	57.6249
2.31259	57.7944
2.31156	58.2591
2.31053	58.9169
2.3095	59.4859
2.30847	60.0234
2.30745	60.4432
2.30642	60.8552
2.3054	61.2873
2.30437	61.3351
2.30335	61.1267
2.30232	60.5375
2.3013	59.6154
2.30028	58.6657
2.29926	58.0836
2.29824	58.0769
2.29722	58.5698
2.29621	59.2658
2.29519	59.9597
2.29417	60.6123
2.29316	61.3485
2.29215	61.9478
2.29113	62.5648
2.29012	63.4902
2.28911	64.2394
2.2881	64.7159
2.28709	65.1225
2.28608	65.3169
2.28507	65.295
2.28407	65.3623
2.28306	65.4266
2.28206	65.5269
2.28105	65.87
2.28005	66.2866
2.27905	66.5323
2.27805	66.7511
2.27705	67.1216
2.27605	67.3881
2.27505	67.5711
2.27405	67.9914
2.27305	68.2107
2.27206	68.3648
2.27106	68.5224
2.27007	68.6964
2.26907	68.9174
2.26808	69.1164
2.26709	69.3481
2.2661	69.6719
2.26511	69.9253
2.26412	70.1687
2.26313	70.3475
2.26214	70.4275
2.26116	70.5917
2.26017	70.7322
2.25919	70.8889
2.2582	70.9982
2.25722	71.1794
2.25624	71.2383
2.25526	71.1441
2.25428	71.182
2.2533	71.2891
2.25232	71.372
2.25134	71.4567
2.25036	71.5336
2.24939	71.5279
2.24841	71.4198
2.24744	71.3764
2.24646	71.4733
2.24549	71.4056
2.24452	71.4068
2.24355	71.5171
2.24257	71.5401
2.24161	71.6544
2.24064	71.7818
2.23967	71.8123
2.2387	71.7791
2.23774	71.7255
2.23677	71.723
2.23581	71.7296
2.23484	71.6623
2.23388	71.7082
2.23292	71.7835
2.23196	71.7417
2.231	71.727
2.23004	71.673
2.22908	71.7291
2.22812	71.7585
2.22716	71.862
2.22621	71.8674
2.22525	71.7283
2.2243	71.7636
2.22334	71.8554
2.22239	71.8162
2.22144	71.7298
2.22049	71.7338
2.21953	71.8804
2.21859	71.9226
2.21764	71.8823
2.21669	71.8946
2.21574	71.8313
2.21479	71.8008
2.21385	71.7791
2.2129	71.7683
2.21196	71.8968
2.21102	71.9851
2.21007	71.944
2.20913	72.002
2.20819	71.9319
2.20725	71.8165
2.20631	71.7399
2.20537	71.6516
2.20444	71.6925
2.2035	71.8444
2.20256	71.8775
2.20163	71.8425
2.20069	71.8643
2.19976	71.8039
2.19883	71.7566
2.19789	71.8176
2.19696	71.9631
2.19603	71.9517
2.1951	71.7842
2.19417	71.8342
2.19325	71.9342
2.19232	71.9067
2.19139	72.0027
2.19047	71.9092
2.18954	71.807
2.18862	71.8744
2.18769	71.9411
2.18677	71.8706
2.18585	71.9069
2.18493	71.9622
2.18401	71.8532
2.18309	71.6758
2.18217	71.701
2.18125	71.8183
2.18033	71.9298
2.17942	71.9685
2.1785	71.837
2.17759	71.6924
2.17667	71.6621
2.17576	71.6533
2.17485	71.6887
2.17393	71.705
2.17302	71.6921
2.17211	71.5848
2.1712	71.5643
2.17029	71.74
2.16939	71.8603
2.16848	71.8841
2.16757	71.8978
2.16667	71.8027
2.16576	71.7241
2.16486	71.872
2.16395	71.9462
2.16305	71.7132
2.16215	71.656
2.16125	71.8512
2.16035	71.8286
2.15945	71.5371
2.15855	71.5169
2.15765	71.7225
2.15675	71.6705
2.15586	71.5395
2.15496	71.5599
2.15406	71.663
2.15317	71.6838
2.15228	71.6205
2.15138	71.6036
2.15049	71.7605
2.1496	71.9026
2.14871	71.7765
2.14782	71.7562
2.14693	71.7757
2.14604	71.6677
2.14515	71.4698
2.14427	71.4706
2.14338	71.4882
2.14249	71.3889
2.14161	71.4015
2.14072	71.5998
2.13984	71.7055
2.13896	71.6612
2.13808	71.6302
2.13719	71.685
2.13631	71.5953
2.13543	71.5536
2.13455	71.6223
2.13368	71.5281
2.1328	71.3355
2.13192	71.1896
2.13105	71.1577
2.13017	71.2045
2.1293	71.1919
2.12842	71.2878
2.12755	71.5635
2.12668	71.5529
2.1258	71.3678
2.12493	71.3411
2.12406	71.3789
2.12319	71.3243
2.12232	71.3398
2.12145	71.3421
2.12059	71.4091
2.11972	71.4513
2.11885	71.3007
2.11799	71.3903
2.11712	71.5074
2.11626	71.4117
2.1154	71.1908
2.11453	71.0345
2.11367	71.0835
2.11281	71.178
2.11195	71.1343
2.11109	70.9719
2.11023	70.7625
2.10937	70.7043
2.10851	70.937
2.10766	71.1136
2.1068	71.126
2.10594	71.3797
2.10509	71.632
2.10423	71.7586
2.10338	71.9698
2.10253	72.18
2.10168	72.2331
2.10082	72.0005
2.09997	71.9173
2.09912	72.0862
2.09827	72.2122
2.09742	72.0913
2.09658	71.8785
2.09573	71.927
2.09488	72.1185
2.09404	72.193
2.09319	72.0267
2.09235	72.0452
2.0915	71.8459
2.09066	71.7534
2.08982	71.9026
2.08897	72.0169
2.08813	72.0627
2.08729	72.0421
2.08645	71.8751
2.08561	71.8757
2.08477	71.9039
2.08394	71.9504
2.0831	72.1274
2.08226	72.0255
2.08143	71.9878
2.08059	71.9388
2.07976	71.8387
2.07892	71.9063
2.07809	72.1455
2.07726	72.1498
2.07643	71.8604
2.07559	71.6527
2.07476	71.4782
2.07393	71.6521
2.0731	72.2144
2.07228	72.4583
2.07145	72.1916
2.07062	72.0453
2.06979	72.1398
2.06897	72.2498
2.06814	72.3023
2.06732	72.2815
2.06649	72.2734
2.06567	72.3231
2.06485	72.238
2.06403	72.2906
2.0632	72.2637
2.06238	72.1737
2.06156	72.063
2.06074	72.0922
2.05993	72.0439
2.05911	72.0223
2.05829	72.1115
2.05747	72.232
2.05666	72.1423
2.05584	72.0896
2.05503	72.0921
2.05421	72.2302
2.0534	72.2773
2.05259	72.2678
2.05177	72.3772
2.05096	72.4117
2.05015	72.3383
2.04934	72.1913
2.04853	72.1751
2.04772	72.3244
2.04691	72.3398
2.04611	72.2407
2.0453	72.2362
2.04449	72.3401
2.04369	72.4111
2.04288	72.3243
2.04208	72.1204
2.04127	72.129
2.04047	72.4324
2.03967	72.529
2.03886	72.3724
2.03806	72.3691
2.03726	72.5007
2.03646	72.4655
2.03566	72.5304
2.03486	72.4116
2.03407	72.4816
2.03327	72.6956
2.03247	72.6536
2.03167	72.5994
2.03088	72.6523
2.03008	72.6458
2.02929	72.5673
2.0285	72.5179
2.0277	72.5482
2.02691	72.481
2.02612	72.5032
2.02533	72.6727
2.02453	72.6593
2.02374	72.7495
2.02295	72.8182
2.02217	72.5738
2.02138	72.3736
2.02059	72.3126
2.0198	72.1644
2.01902	72.1183
2.01823	72.1766
2.01744	72.306
2.01666	72.4379
2.01588	72.523
2.01509	72.53
2.01431	72.4531
2.01353	72.3839
2.01275	72.3731
2.01196	72.3001
2.01118	72.1605
2.0104	72.1934
2.00963	72.3285
2.00885	72.4669
2.00807	72.4801
2.00729	72.3237
2.00651	72.37
2.00574	72.5407
2.00496	72.5699
2.00419	72.6492
2.00341	72.5908
2.00264	72.3641
2.00187	72.2292
2.00109	72.1446
2.00032	72.2067
