Name: Gold plate
Type: Manmade materials
Class: Reflectance target
Subclass: 
Particle Size: Solid
Sample No.: 001682
Owner: JPL
Wavelength range: IR
Origin: Labsphere, P.O. Box 70, Shaker Street, North Sutton, NH 03260
(603) 927-4266
Description: Center, Field Gold
Oct. 29 1997 to Oct. 30 1997.




Measurement: Hemispherical Reflectance
First Column: X
Second Column: Y
X Units: Wavelength (micrometers)
Y Units: Reflectence (percent)
First X Value: 15.3853
Last X Value: 2.00032
Number of X Values: 2256
Additional information: None.
 
15.3853	90.3794
15.3397	90.4755
15.2945	90.6015
15.2495	90.4927
15.2048	90.4939
15.1603	90.5008
15.1161	90.444
15.0722	90.3136
15.0285	89.9593
14.9851	89.4299
14.9419	89.7142
14.8989	90.2354
14.8563	90.2875
14.8138	90.2536
14.7716	90.1756
14.7296	90.0967
14.6879	90.1382
14.6464	90.2343
14.6052	90.3064
14.5641	90.4074
14.5233	90.4117
14.4828	90.1953
14.4424	90.0361
14.4023	90.0997
14.3624	90.1756
14.3227	90.3049
14.2833	90.4706
14.244	90.579
14.205	90.4933
14.1662	90.3302
14.1276	90.2789
14.0892	90.1696
14.051	90.0682
14.0131	90.2344
13.9753	90.4193
13.9377	90.5447
13.9004	90.5543
13.8632	90.5565
13.8262	90.5626
13.7895	90.4909
13.7529	90.5011
13.7165	90.6273
13.6803	90.6722
13.6443	90.6775
13.6085	90.6341
13.5729	90.6438
13.5374	90.6107
13.5022	90.5795
13.4671	90.6578
13.4322	90.7049
13.3975	90.6942
13.363	90.5926
13.3286	90.4511
13.2944	90.5139
13.2604	90.5654
13.2266	90.5426
13.193	90.5222
13.1595	90.5683
13.1262	90.6218
13.093	90.589
13.06	90.4917
13.0272	90.4618
12.9946	90.4111
12.9621	90.3658
12.9298	90.2662
12.8976	90.2379
12.8656	90.1988
12.8337	90.2469
12.8021	90.2862
12.7705	90.221
12.7391	90.2626
12.7079	90.3735
12.6769	90.43
12.6459	90.4179
12.6152	90.2533
12.5845	90.2019
12.5541	90.3795
12.5238	90.3838
12.4936	90.3198
12.4635	90.4027
12.4337	90.6234
12.4039	90.7014
12.3743	90.7858
12.3448	90.9607
12.3155	91.0228
12.2863	91.0847
12.2573	91.1204
12.2284	91.0881
12.1996	91.1085
12.171	91.1109
12.1425	91.1397
12.1141	91.1279
12.0859	91.108
12.0578	91.1697
12.0298	91.1675
12.0019	91.1976
11.9742	91.2802
11.9466	91.3216
11.9192	91.3256
11.8918	91.2409
11.8646	91.2411
11.8375	91.2705
11.8106	91.1275
11.7837	91.063
11.757	91.1536
11.7304	91.1531
11.7039	91.1446
11.6776	91.1454
11.6513	91.1663
11.6252	91.04
11.5992	90.9437
11.5733	90.9072
11.5475	90.8537
11.5219	90.7156
11.4963	90.3716
11.4709	90.1849
11.4455	90.1778
11.4203	90.1381
11.3952	90.1851
11.3702	90.28
11.3454	90.4214
11.3206	90.5175
11.2959	90.5502
11.2714	90.6425
11.2469	90.5647
11.2226	90.5218
11.1983	90.577
11.1742	90.5061
11.1502	90.3591
11.1263	90.2375
11.1024	90.158
11.0787	90.106
11.0551	90.0861
11.0316	89.9653
11.0081	89.8402
10.9848	89.7581
10.9616	89.7831
10.9385	89.7898
10.9154	89.7008
10.8925	89.6312
10.8697	89.6437
10.8469	89.6403
10.8243	89.6689
10.8017	89.6901
10.7793	89.7252
10.7569	89.6786
10.7346	89.6459
10.7125	89.6403
10.6904	89.6064
10.6684	89.5492
10.6465	89.3759
10.6247	89.3213
10.6029	89.3453
10.5813	89.3801
10.5597	89.3558
10.5383	89.2957
10.5169	89.1686
10.4956	89.1255
10.4744	89.1328
10.4533	89.0276
10.4323	88.8901
10.4113	88.7963
10.3904	88.7101
10.3697	88.6187
10.349	88.519
10.3284	88.4015
10.3078	88.34
10.2874	88.2003
10.267	88.0366
10.2467	87.9659
10.2265	87.8386
10.2064	87.7973
10.1863	87.6519
10.1663	87.4889
10.1464	87.38
10.1266	87.1712
10.1069	87.0501
10.0872	86.9651
10.0676	86.8252
10.0481	86.6984
10.0287	86.6668
10.0093	86.6002
9.99005	86.4471
9.97084	86.2932
9.95169	86.2062
9.93263	86.1426
9.91364	86.1175
9.89472	86.0217
9.87587	85.9893
9.8571	86.0022
9.83839	85.9021
9.81976	85.8678
9.80119	85.8915
9.78271	85.9387
9.76428	85.9759
9.74592	85.9695
9.72764	85.7852
9.70943	85.7806
9.69128	85.8792
9.6732	85.8052
9.65518	85.7834
9.63724	85.8304
9.61935	85.7521
9.60155	85.8636
9.5838	86.0566
9.56611	86.0448
9.5485	85.9976
9.53094	86.1532
9.51345	86.3097
9.49604	86.2901
9.47867	86.2895
9.46137	86.4722
9.44414	86.5667
9.42697	86.5819
9.40986	86.6865
9.39281	86.779
9.37583	86.8383
9.35891	86.9587
9.34204	87.0512
9.32524	87.1904
9.3085	87.349
9.29182	87.4663
9.27519	87.4862
9.25863	87.4804
9.24213	87.5497
9.22568	87.5535
9.2093	87.4548
9.19297	87.504
9.17669	87.5952
9.16048	87.7151
9.14433	87.763
9.12823	87.7953
9.11218	87.7794
9.0962	87.7748
9.08027	87.8423
9.06439	87.8816
9.04858	87.8513
9.03281	87.8391
9.0171	87.8945
9.00145	88.0121
8.98585	88.012
8.9703	88.0095
8.9548	88.1092
8.93937	88.1893
8.92398	88.2776
8.90865	88.4766
8.89337	88.6351
8.87814	88.6276
8.86296	88.7023
8.84784	88.794
8.83277	88.8239
8.81774	88.8422
8.80277	88.928
8.78786	89.0573
8.77298	89.1149
8.75816	89.2256
8.7434	89.2402
8.72868	89.2004
8.714	89.265
8.69938	89.2469
8.68481	89.2298
8.67029	89.3151
8.65581	89.4057
8.64139	89.4041
8.62701	89.4201
8.61268	89.4633
8.5984	89.5158
8.58416	89.5768
8.56997	89.6309
8.55583	89.757
8.54174	89.8601
8.52769	89.8831
8.51368	89.945
8.49973	90.0317
8.48582	90.175
8.47195	90.2314
8.45813	90.2508
8.44436	90.3845
8.43062	90.4967
8.41693	90.5719
8.4033	90.6402
8.3897	90.7185
8.37614	90.7965
8.36264	90.7265
8.34917	90.678
8.33574	90.7438
8.32236	90.8382
8.30903	90.9996
8.29573	91.0727
8.28248	91.0269
8.26927	91.0262
8.2561	91.0431
8.24298	91.1152
8.2299	91.1788
8.21685	91.17
8.20385	91.1807
8.19089	91.1917
8.17797	91.2548
8.16509	91.2667
8.15225	91.3239
8.13946	91.4222
8.1267	91.53
8.11398	91.5543
8.10131	91.5551
8.08867	91.5406
8.07606	91.539
8.0635	91.51
8.05099	91.4755
8.0385	91.472
8.02606	91.5129
8.01366	91.5488
8.00129	91.4845
7.98896	91.4897
7.97667	91.6024
7.96442	91.6567
7.9522	91.6312
7.94002	91.5854
7.92788	91.4969
7.91578	91.503
7.90371	91.545
7.89168	91.5455
7.87969	91.632
7.86773	91.6363
7.85581	91.5616
7.84392	91.5435
7.83207	91.5377
7.82026	91.5794
7.80849	91.5995
7.79674	91.5977
7.78503	91.6034
7.77337	91.6119
7.76173	91.5728
7.75012	91.5423
7.73856	91.5757
7.72703	91.5279
7.71553	91.4391
7.70406	91.466
7.69263	91.5248
7.68123	91.5125
7.66987	91.4944
7.65855	91.4635
7.64725	91.3952
7.63598	91.3802
7.62475	91.355
7.61356	91.3126
7.60239	91.251
7.59126	91.2821
7.58017	91.3071
7.5691	91.3075
7.55806	91.2585
7.54707	91.2075
7.5361	91.2531
7.52516	91.2939
7.51425	91.2691
7.50338	91.2106
7.49253	91.1406
7.48172	91.1367
7.47094	91.2125
7.46019	91.2782
7.44947	91.1962
7.43879	91.1075
7.42813	91.0928
7.4175	91.0712
7.4069	91.0431
7.39634	90.9926
7.3858	90.9158
7.37529	90.8964
7.36482	90.934
7.35437	90.9123
7.34396	90.8741
7.33357	90.8108
7.32321	90.6987
7.31288	90.7538
7.30258	90.7852
7.29231	90.7523
7.28207	90.7993
7.27185	90.7575
7.26167	90.7329
7.25152	90.7269
7.24139	90.6941
7.23129	90.6475
7.22122	90.6275
7.21117	90.6471
7.20116	90.6059
7.19117	90.5822
7.18121	90.6554
7.17128	90.6722
7.16137	90.5592
7.1515	90.5225
7.14164	90.5177
7.13182	90.448
7.12203	90.4451
7.11225	90.4548
7.10251	90.4086
7.0928	90.3689
7.08311	90.3465
7.07344	90.3856
7.06381	90.4244
7.0542	90.5356
7.04461	90.6089
7.03506	90.4489
7.02552	90.4065
7.01601	90.3792
7.00653	90.3188
6.99708	90.3288
6.98765	90.3005
6.97824	90.2825
6.96886	90.3981
6.95951	90.5585
6.95018	90.4067
6.94087	90.3244
6.9316	90.3225
6.92234	90.3522
6.91311	90.4102
6.90391	90.405
6.89473	90.3373
6.88557	90.3708
6.87644	90.4736
6.86733	90.7797
6.85824	90.8005
6.84918	90.5345
6.84015	90.4249
6.83114	90.5529
6.82215	90.6287
6.81319	90.5249
6.80424	90.5951
6.79532	90.832
6.78643	90.9685
6.77756	90.8944
6.76871	90.7949
6.75989	90.7395
6.75109	90.7863
6.74231	90.8961
6.73355	90.9777
6.72482	91.0657
6.71611	91.1334
6.70742	91.1084
6.69875	91.0335
6.69011	91.1808
6.68149	91.3339
6.67289	91.2753
6.66431	91.1756
6.65576	91.1574
6.64722	91.4408
6.63871	91.8532
6.63022	91.6912
6.62175	91.4361
6.61331	91.396
6.60488	91.3879
6.59648	91.4837
6.5881	91.5654
6.57974	91.6996
6.5714	91.8432
6.56308	91.6775
6.55478	91.5969
6.54651	91.4753
6.53825	91.4297
6.53001	91.4803
6.5218	91.6416
6.51361	91.6089
6.50544	91.6716
6.49729	92.0501
6.48915	92.0565
6.48104	91.7504
6.47295	91.6088
6.46488	91.4596
6.45683	91.4296
6.4488	91.4882
6.44079	91.5031
6.4328	91.568
6.42482	91.7003
6.41687	92.0905
6.40894	91.9613
6.40103	91.4909
6.39314	91.362
6.38526	91.353
6.37741	91.3919
6.36957	91.3956
6.36176	91.2327
6.35396	91.2658
6.34618	91.5018
6.33843	91.3516
6.33069	91.1038
6.32297	91.0952
6.31527	91.0635
6.30758	90.9873
6.29992	90.9507
6.29227	90.9395
6.28465	90.9126
6.27704	90.9033
6.26945	90.8975
6.26188	90.9658
6.25432	90.9857
6.24679	90.9427
6.23927	90.9384
6.23177	90.8979
6.22429	90.9269
6.21683	90.9457
6.20938	90.9117
6.20195	90.8483
6.19454	90.9294
6.18715	91.1656
6.17978	91.0219
6.17242	90.7912
6.16508	90.8819
6.15776	90.9349
6.15045	90.8145
6.14317	90.8151
6.1359	90.8089
6.12864	90.8498
6.12141	91.1322
6.11419	91.376
6.10699	91.2072
6.0998	91.0089
6.09263	90.9594
6.08549	90.9657
6.07835	91.1394
6.07123	91.2762
6.06413	91.1734
6.05705	91.4065
6.04998	91.9318
6.04293	91.6427
6.0359	91.2184
6.02888	91.1456
6.02187	91.2269
6.01489	91.371
6.00792	91.3892
6.00096	91.3699
5.99403	91.5303
5.98711	91.6026
5.9802	91.554
5.97331	91.6537
5.96644	91.6583
5.95958	91.4973
5.95274	91.5312
5.94591	91.687
5.9391	92.0655
5.9323	91.9932
5.92552	91.703
5.91876	91.6976
5.91201	91.7586
5.90528	91.8817
5.89856	92.1835
5.89186	92.1481
5.88517	92.2299
5.8785	92.2939
5.87184	92.049
5.8652	92.0571
5.85857	92.0328
5.85196	92.0156
5.84536	91.9735
5.83878	92.0174
5.83221	92.188
5.82566	92.3787
5.81912	92.3578
5.81259	92.1865
5.80608	92.1623
5.79959	92.1337
5.79311	92.0672
5.78665	92.093
5.78019	92.161
5.77376	92.3114
5.76734	92.5521
5.76093	92.361
5.75453	92.155
5.74815	92.2249
5.74179	92.2486
5.73543	92.3142
5.7291	92.3594
5.72277	92.3792
5.71646	92.4422
5.71017	92.5296
5.70389	92.4644
5.69762	92.5005
5.69136	92.6175
5.68513	92.5609
5.6789	92.5471
5.67268	92.553
5.66648	92.5423
5.6603	92.636
5.65413	92.6988
5.64797	92.7961
5.64182	92.921
5.63569	92.7799
5.62957	92.6299
5.62347	92.6252
5.61737	92.6324
5.61129	92.576
5.60522	92.5487
5.59917	92.5235
5.59313	92.458
5.5871	92.4595
5.58109	92.5165
5.57509	92.4548
5.5691	92.3319
5.56312	92.3635
5.55716	92.4476
5.55121	92.5192
5.54528	92.5324
5.53935	92.5601
5.53344	92.6215
5.52754	92.6662
5.52166	92.732
5.51578	92.6959
5.50992	92.6272
5.50407	92.6652
5.49823	92.6881
5.49241	92.7063
5.4866	92.7373
5.4808	92.7765
5.47501	92.7426
5.46923	92.7904
5.46347	92.8858
5.45772	92.8551
5.45198	92.7985
5.44625	92.771
5.44054	92.7847
5.43484	92.7997
5.42914	92.8096
5.42347	92.9037
5.4178	92.8765
5.41214	92.7836
5.4065	92.7016
5.40087	92.6933
5.39525	92.7821
5.38964	92.8238
5.38404	92.8064
5.37846	92.7654
5.37288	92.7398
5.36732	92.7812
5.36177	92.7657
5.35623	92.7189
5.35071	92.754
5.34519	92.7707
5.33968	92.7384
5.33419	92.7261
5.32871	92.7296
5.32324	92.7562
5.31778	92.7686
5.31233	92.7589
5.30689	92.7817
5.30147	92.7656
5.29605	92.7342
5.29065	92.7491
5.28525	92.7816
5.27987	92.8199
5.2745	92.8102
5.26914	92.7809
5.26379	92.7968
5.25845	92.7747
5.25312	92.749
5.24781	92.7773
5.2425	92.8166
5.23721	92.8331
5.23192	92.8299
5.22665	92.837
5.22138	92.8252
5.21613	92.8792
5.21089	92.9419
5.20566	92.9773
5.20044	92.9649
5.19522	92.9057
5.19002	92.8717
5.18483	92.8551
5.17965	92.8206
5.17448	92.8724
5.16933	92.8974
5.16418	92.8664
5.15904	92.842
5.15391	92.8491
5.14879	92.8578
5.14368	92.8032
5.13859	92.8171
5.1335	92.8292
5.12842	92.8187
5.12335	92.8526
5.1183	92.8849
5.11325	92.8791
5.10821	92.8641
5.10318	92.8879
5.09817	92.8375
5.09316	92.8461
5.08816	92.8865
5.08317	92.8329
5.07819	92.8183
5.07322	92.8511
5.06826	92.8742
5.06331	92.8611
5.05837	92.8621
5.05344	92.9173
5.04852	92.857
5.04361	92.7516
5.03871	92.78
5.03382	92.8745
5.02894	92.9026
5.02406	92.8786
5.0192	92.9062
5.01435	92.9011
5.0095	92.8902
5.00467	92.8578
4.99984	92.8191
4.99502	92.8101
4.99021	92.8335
4.98542	92.8027
4.98063	92.8509
4.97585	92.8929
4.97108	92.8789
4.96632	92.8679
4.96156	92.8927
4.95682	92.9024
4.95209	92.8584
4.94736	92.8184
4.94264	92.8666
4.93794	92.8968
4.93324	92.9248
4.92855	92.9305
4.92387	92.8776
4.9192	92.8272
4.91453	92.8417
4.90988	92.9281
4.90524	92.9816
4.9006	92.9528
4.89597	92.9183
4.89135	92.8993
4.88674	92.8659
4.88214	92.8435
4.87755	92.8589
4.87296	92.8585
4.86839	92.8417
4.86382	92.8935
4.85926	92.971
4.85471	92.9426
4.85017	92.8876
4.84564	92.8412
4.84111	92.8512
4.8366	92.9379
4.83209	92.9372
4.82759	92.9126
4.8231	92.8996
4.81862	92.9078
4.81415	92.9461
4.80968	92.9926
4.80522	92.9423
4.80077	92.888
4.79633	92.8605
4.7919	92.8754
4.78747	92.8982
4.78306	92.9242
4.77865	92.8754
4.77425	92.8322
4.76986	92.8249
4.76547	92.8277
4.7611	92.8288
4.75673	92.8383
4.75237	92.8933
4.74802	92.945
4.74367	92.888
4.73934	92.8593
4.73501	92.9075
4.73069	92.8925
4.72638	92.8518
4.72207	92.8286
4.71777	92.8744
4.71348	92.9
4.7092	92.8572
4.70493	92.8195
4.70066	92.812
4.69641	92.8451
4.69216	92.8434
4.68791	92.8193
4.68368	92.8247
4.67945	92.854
4.67523	92.8803
4.67102	92.853
4.66682	92.7925
4.66262	92.7857
4.65843	92.7448
4.65425	92.7801
4.65007	92.8388
4.64591	92.8404
4.64175	92.8659
4.6376	92.8757
4.63345	92.819
4.62932	92.758
4.62519	92.7987
4.62106	92.8357
4.61695	92.7957
4.61284	92.8277
4.60874	92.8582
4.60465	92.8261
4.60056	92.8561
4.59648	92.8699
4.59241	92.8277
4.58835	92.8146
4.58429	92.8387
4.58024	92.8397
4.5762	92.8361
4.57216	92.858
4.56814	92.8527
4.56411	92.7925
4.5601	92.7941
4.55609	92.8466
4.55209	92.8636
4.5481	92.8112
4.54411	92.8091
4.54013	92.8778
4.53616	92.891
4.5322	92.8174
4.52824	92.8232
4.52429	92.8728
4.52034	92.8432
4.51641	92.7754
4.51247	92.8141
4.50855	92.8283
4.50463	92.7837
4.50072	92.7413
4.49682	92.7438
4.49292	92.7511
4.48903	92.7604
4.48515	92.8401
4.48127	92.8534
4.4774	92.8371
4.47354	92.8483
4.46968	92.7981
4.46584	92.7864
4.46199	92.7745
4.45815	92.7892
4.45432	92.8081
4.4505	92.7836
4.44668	92.7515
4.44287	92.7686
4.43907	92.8371
4.43527	92.8538
4.43148	92.766
4.4277	92.6976
4.42392	92.7289
4.42015	92.8122
4.41638	92.8643
4.41262	92.8458
4.40887	92.781
4.40513	92.7148
4.40139	92.7
4.39765	92.7655
4.39393	92.8306
4.39021	92.7761
4.38649	92.7677
4.38278	92.7746
4.37908	92.7121
4.37539	92.6838
4.3717	92.7304
4.36801	92.7593
4.36434	92.7791
4.36067	92.7767
4.357	92.7685
4.35335	92.7316
4.34969	92.6996
4.34605	92.6482
4.34241	92.6402
4.33877	92.6343
4.33514	92.5913
4.33152	92.5277
4.32791	92.454
4.3243	92.348
4.32069	92.2584
4.3171	92.1617
4.31351	92.0731
4.30992	91.9573
4.30634	91.7912
4.30277	91.642
4.2992	91.5639
4.29564	91.4616
4.29208	91.3547
4.28853	91.2646
4.28499	91.1896
4.28145	91.1356
4.27792	91.1203
4.27439	91.156
4.27087	91.199
4.26735	91.3831
4.26384	91.6731
4.26034	92.0032
4.25684	92.232
4.25335	91.9507
4.24986	91.5037
4.24638	91.1045
4.24291	90.7962
4.23944	90.6563
4.23598	90.5185
4.23252	90.4886
4.22906	90.6191
4.22562	90.7735
4.22218	90.9708
4.21874	91.2254
4.21531	91.5394
4.21189	91.8868
4.20847	92.1738
4.20506	92.3892
4.20165	92.507
4.19825	92.5479
4.19485	92.5992
4.19146	92.7088
4.18807	92.7815
4.18469	92.7148
4.18132	92.6358
4.17795	92.6548
4.17458	92.6691
4.17123	92.672
4.16787	92.7319
4.16453	92.7209
4.16118	92.6775
4.15785	92.6761
4.15451	92.7271
4.15119	92.6978
4.14787	92.644
4.14455	92.6707
4.14124	92.637
4.13794	92.5789
4.13464	92.639
4.13134	92.6837
4.12805	92.6175
4.12477	92.5848
4.12149	92.5998
4.11822	92.6362
4.11495	92.6305
4.11168	92.6492
4.10843	92.6923
4.10517	92.691
4.10192	92.6877
4.09868	92.6392
4.09545	92.5129
4.09221	92.4775
4.08899	92.5418
4.08576	92.5822
4.08255	92.5738
4.07933	92.5405
4.07613	92.6079
4.07292	92.6681
4.06973	92.6319
4.06654	92.6674
4.06335	92.6053
4.06017	92.4814
4.05699	92.5006
4.05382	92.5439
4.05065	92.5693
4.04749	92.5212
4.04433	92.5253
4.04118	92.5229
4.03803	92.5936
4.03489	92.5502
4.03175	92.4942
4.02862	92.517
4.02549	92.4783
4.02237	92.4406
4.01925	92.4496
4.01614	92.4251
4.01303	92.4138
4.00993	92.3589
4.00683	92.2674
4.00373	92.2518
4.00064	92.2872
3.99756	92.3245
3.99448	92.3031
3.9914	92.2655
3.98833	92.2482
3.98527	92.2251
3.98221	92.2054
3.97915	92.2449
3.9761	92.2293
3.97305	92.1611
3.97001	92.1442
3.96697	92.2083
3.96394	92.1445
3.96091	92.0983
3.95789	92.165
3.95487	92.178
3.95186	92.1472
3.94885	92.1637
3.94584	92.2136
3.94284	92.2504
3.93984	92.2633
3.93685	92.3018
3.93386	92.3041
3.93088	92.2779
3.9279	92.2739
3.92493	92.3058
3.92196	92.3237
3.919	92.3095
3.91604	92.3573
3.91308	92.3626
3.91013	92.3014
3.90718	92.3473
3.90424	92.3847
3.9013	92.273
3.89837	92.231
3.89544	92.2813
3.89252	92.3006
3.8896	92.3645
3.88668	92.3385
3.88377	92.2562
3.88086	92.248
3.87796	92.2996
3.87506	92.4118
3.87217	92.3561
3.86928	92.1847
3.86639	92.1781
3.86351	92.2424
3.86064	92.1845
3.85776	92.1728
3.8549	92.1941
3.85203	92.1618
3.84917	92.1962
3.84631	92.2334
3.84346	92.3075
3.84062	92.3575
3.83777	92.3303
3.83494	92.2764
3.8321	92.2975
3.82927	92.2711
3.82644	92.269
3.82362	92.3391
3.82081	92.3521
3.81799	92.3111
3.81518	92.2553
3.81238	92.2467
3.80958	92.2829
3.80678	92.2745
3.80399	92.258
3.8012	92.3035
3.79841	92.2741
3.79563	92.2259
3.79286	92.2475
3.79008	92.2763
3.78731	92.2094
3.78455	92.1874
3.78179	92.189
3.77903	92.1851
3.77628	92.188
3.77353	92.2516
3.77079	92.2789
3.76805	92.2605
3.76531	92.2591
3.76258	92.2755
3.75985	92.287
3.75713	92.2574
3.7544	92.2402
3.75169	92.2249
3.74898	92.2453
3.74627	92.2602
3.74356	92.2048
3.74086	92.19
3.73816	92.2284
3.73547	92.2184
3.73278	92.1502
3.7301	92.1409
3.72741	92.1516
3.72474	92.1375
3.72206	92.0986
3.71939	92.1453
3.71673	92.1645
3.71406	92.1441
3.71141	92.1658
3.70875	92.2072
3.7061	92.2119
3.70345	92.1923
3.70081	92.1516
3.69817	92.1647
3.69553	92.267
3.6929	92.2527
3.69027	92.1925
3.68765	92.1756
3.68503	92.2026
3.68241	92.1443
3.6798	92.0542
3.67719	92.1026
3.67458	92.1148
3.67198	92.1242
3.66938	92.0902
3.66678	92.0489
3.66419	92.0219
3.66161	92.0334
3.65902	92.0992
3.65644	92.1335
3.65387	92.0989
3.65129	92.045
3.64872	92.0834
3.64616	92.0854
3.64359	92.0036
3.64103	91.9177
3.63848	91.9419
3.63593	92.0321
3.63338	92.091
3.63084	92.0752
3.6283	92.0914
3.62576	92.0465
3.62322	91.9772
3.62069	91.9792
3.61817	91.9771
3.61564	91.9463
3.61312	91.9445
3.61061	91.9672
3.6081	91.9607
3.60559	91.9098
3.60308	91.8777
3.60058	91.951
3.59808	91.9771
3.59558	91.9238
3.59309	91.8724
3.59061	91.9186
3.58812	91.9573
3.58564	91.9126
3.58316	91.8831
3.58069	91.8521
3.57822	91.9018
3.57575	91.8675
3.57328	91.7791
3.57082	91.8004
3.56836	91.8459
3.56591	91.8686
3.56346	91.8474
3.56101	91.8133
3.55857	91.7566
3.55613	91.7373
3.55369	91.7718
3.55126	91.7324
3.54883	91.7683
3.5464	91.8165
3.54397	91.7885
3.54155	91.7206
3.53914	91.6894
3.53672	91.6774
3.53431	91.6744
3.5319	91.6995
3.5295	91.6896
3.5271	91.6521
3.5247	91.6314
3.52231	91.5133
3.51991	91.3899
3.51753	91.3559
3.51514	91.2991
3.51276	91.1509
3.51038	91.0238
3.50801	90.9516
3.50563	90.9141
3.50327	90.971
3.5009	91.0694
3.49854	91.0467
3.49618	91.0521
3.49382	91.0932
3.49147	91.0353
3.48912	90.9981
3.48677	91.0387
3.48443	91.0537
3.48209	91.0916
3.47975	91.148
3.47742	91.191
3.47509	91.1979
3.47276	91.1422
3.47044	91.1163
3.46812	91.1652
3.4658	91.1418
3.46348	91.068
3.46117	91.0195
3.45886	91.0255
3.45656	91.0057
3.45425	90.9988
3.45195	90.9501
3.44966	90.8609
3.44736	90.855
3.44507	90.8131
3.44279	90.7568
3.4405	90.8279
3.43822	90.8534
3.43594	90.858
3.43367	90.7352
3.43139	90.5753
3.42912	90.5249
3.42686	90.51
3.42459	90.4947
3.42233	90.4611
3.42007	90.4065
3.41782	90.4964
3.41557	90.5862
3.41332	90.6058
3.41108	90.5624
3.40883	90.5556
3.40659	90.6783
3.40435	90.7384
3.40212	90.7372
3.39989	90.6764
3.39766	90.6682
3.39544	90.828
3.39322	90.9329
3.391	90.8183
3.38878	90.7649
3.38657	90.8005
3.38436	90.8052
3.38215	90.8209
3.37994	90.8496
3.37774	90.8543
3.37554	90.8612
3.37335	90.9318
3.37115	90.9537
3.36896	91.0134
3.36678	91.0752
3.36459	90.9922
3.36241	90.9836
3.36023	91.0766
3.35805	91.0747
3.35588	91.0079
3.35371	90.9979
3.35154	91.0522
3.34938	91.1058
3.34721	91.123
3.34505	91.1126
3.3429	91.1578
3.34074	91.2017
3.33859	91.1918
3.33644	91.2238
3.3343	91.2672
3.33215	91.1321
3.33001	91.1307
3.32788	91.255
3.32574	91.2426
3.32361	91.1761
3.32148	91.1982
3.31936	91.2646
3.31723	91.27
3.31511	91.1755
3.31299	91.1832
3.31088	91.1178
3.30876	91.082
3.30665	91.1692
3.30455	91.1954
3.30244	91.1637
3.30034	91.0792
3.29824	90.996
3.29614	91.0454
3.29405	91.1019
3.29196	91.1283
3.28987	91.1414
3.28778	91.12
3.2857	91.1291
3.28362	91.1221
3.28154	91.0896
3.27946	91.0577
3.27739	91.059
3.27532	91.0378
3.27325	91.0921
3.27119	91.1167
3.26913	91.0558
3.26707	91.0147
3.26501	90.995
3.26295	90.9593
3.2609	90.9404
3.25885	90.9176
3.2568	90.8952
3.25476	91.0028
3.25272	91.0057
3.25068	90.9218
3.24864	90.8714
3.24661	90.7332
3.24458	90.7137
3.24255	90.8173
3.24052	90.8929
3.2385	90.8177
3.23648	90.8142
3.23446	90.8528
3.23244	90.8994
3.23043	90.9732
3.22841	90.9036
3.2264	90.881
3.2244	90.8605
3.22239	90.8005
3.22039	90.7464
3.21839	90.7229
3.2164	90.7972
3.2144	90.818
3.21241	90.7576
3.21042	90.7533
3.20844	90.7424
3.20645	90.7793
3.20447	90.8292
3.20249	90.7911
3.20051	90.7553
3.19854	90.6989
3.19657	90.4712
3.1946	90.4898
3.19263	90.5783
3.19067	90.6373
3.1887	90.6799
3.18674	90.7162
3.18479	90.6843
3.18283	90.5736
3.18088	90.5781
3.17893	90.5723
3.17698	90.5406
3.17504	90.5595
3.17309	90.5283
3.17115	90.4742
3.16921	90.4655
3.16728	90.5004
3.16534	90.4594
3.16341	90.3877
3.16148	90.4112
3.15956	90.3687
3.15763	90.3461
3.15571	90.3723
3.15379	90.4236
3.15187	90.4073
3.14996	90.402
3.14805	90.4216
3.14614	90.4052
3.14423	90.4385
3.14232	90.4126
3.14042	90.3496
3.13852	90.3142
3.13662	90.2736
3.13472	90.2497
3.13283	90.1563
3.13094	90.125
3.12905	90.1891
3.12716	90.2155
3.12528	90.2728
3.12339	90.2273
3.12151	90.1122
3.11964	90.194
3.11776	90.2743
3.11589	90.2212
3.11401	90.1051
3.11214	90.1476
3.11028	90.1506
3.10841	90.0803
3.10655	90.0148
3.10469	89.9475
3.10283	89.9653
3.10098	89.9882
3.09912	90.0474
3.09727	90.0148
3.09542	89.9508
3.09358	89.9197
3.09173	89.9445
3.08989	89.9718
3.08805	89.9906
3.08621	89.9956
3.08437	89.9248
3.08254	89.9016
3.08071	89.8657
3.07888	89.8911
3.07705	89.9143
3.07523	89.8593
3.0734	89.768
3.07158	89.7653
3.06977	89.8532
3.06795	89.8096
3.06613	89.6771
3.06432	89.7241
3.06251	89.8134
3.0607	89.7434
3.0589	89.6466
3.0571	89.7417
3.05529	89.8279
3.05349	89.8296
3.0517	89.7455
3.0499	89.7353
3.04811	89.6998
3.04632	89.6376
3.04453	89.6553
3.04274	89.6529
3.04096	89.6782
3.03918	89.6956
3.0374	89.5803
3.03562	89.5313
3.03384	89.6414
3.03207	89.5938
3.03029	89.5623
3.02852	89.6997
3.02676	89.5953
3.02499	89.4311
3.02323	89.3943
3.02146	89.4292
3.0197	89.4909
3.01795	89.4852
3.01619	89.5624
3.01444	89.4984
3.01269	89.5231
3.01094	89.641
3.00919	89.7114
3.00744	89.5903
3.0057	89.4917
3.00396	89.4991
3.00222	89.4225
3.00048	89.3974
2.99875	89.432
2.99701	89.4856
2.99528	89.554
2.99355	89.4506
2.99183	89.4424
2.9901	89.4881
2.98838	89.4702
2.98666	89.4554
2.98494	89.4679
2.98322	89.5383
2.9815	89.589
2.97979	89.5223
2.97808	89.3691
2.97637	89.3322
2.97466	89.4925
2.97295	89.4904
2.97125	89.3926
2.96955	89.4873
2.96785	89.51
2.96615	89.4194
2.96446	89.3913
2.96276	89.371
2.96107	89.4701
2.95938	89.4493
2.95769	89.3062
2.95601	89.4062
2.95432	89.3849
2.95264	89.3727
2.95096	89.4551
2.94928	89.3894
2.9476	89.3487
2.94593	89.4037
2.94425	89.4318
2.94258	89.3891
2.94092	89.4602
2.93925	89.5041
2.93758	89.4031
2.93592	89.3921
2.93426	89.3748
2.9326	89.4059
2.93094	89.4308
2.92928	89.41
2.92763	89.4266
2.92598	89.4435
2.92433	89.4989
2.92268	89.5252
2.92103	89.4715
2.91939	89.5338
2.91775	89.5454
2.9161	89.5774
2.91447	89.6102
2.91283	89.522
2.91119	89.5072
2.90956	89.4781
2.90793	89.5007
2.9063	89.5862
2.90467	89.6426
2.90304	89.5675
2.90142	89.532
2.89979	89.5683
2.89817	89.4886
2.89656	89.5243
2.89494	89.5952
2.89332	89.5952
2.89171	89.7048
2.8901	89.7307
2.88849	89.7473
2.88688	89.7582
2.88527	89.5676
2.88367	89.5471
2.88206	89.6226
2.88046	89.5427
2.87886	89.5968
2.87727	89.6722
2.87567	89.6604
2.87408	89.7422
2.87248	89.7762
2.87089	89.771
2.8693	89.8507
2.86772	89.8607
2.86613	89.7912
2.86455	89.7733
2.86297	89.7901
2.86139	89.8165
2.85981	89.7949
2.85823	89.6437
2.85666	89.7946
2.85508	90.0447
2.85351	89.845
2.85194	89.5522
2.85038	89.644
2.84881	89.7903
2.84724	89.865
2.84568	89.9
2.84412	89.9042
2.84256	89.9178
2.841	89.8582
2.83945	89.83
2.83789	89.9753
2.83634	89.8982
2.83479	89.8257
2.83324	89.8423
2.83169	89.8256
2.83015	89.8395
2.82861	89.8589
2.82706	89.9281
2.82552	89.8608
2.82398	89.6922
2.82245	89.705
2.82091	89.835
2.81938	89.8613
2.81784	89.9096
2.81631	89.9732
2.81479	90.0282
2.81326	90.0277
2.81173	89.9735
2.81021	89.8317
2.80869	89.8707
2.80716	89.9436
2.80565	89.9445
2.80413	89.9501
2.80261	89.9497
2.8011	89.8234
2.79959	89.8946
2.79808	89.9118
2.79657	89.9848
2.79506	90.1469
2.79355	90.18
2.79205	90.0349
2.79055	90.0139
2.78904	90.121
2.78754	90.4239
2.78605	90.2268
2.78455	89.9533
2.78306	89.7778
2.78156	89.7099
2.78007	89.9922
2.77858	90.1844
2.77709	90.1259
2.77561	89.6048
2.77412	89.5217
2.77264	89.7016
2.77116	89.8889
2.76968	89.9116
2.7682	89.8655
2.76672	89.9002
2.76524	89.7441
2.76377	89.5338
2.7623	89.4662
2.76083	89.5511
2.75936	89.7138
2.75789	89.7963
2.75642	89.9059
2.75496	90.1434
2.7535	90.1268
2.75203	89.967
2.75057	90.0355
2.74912	90.0768
2.74766	90.085
2.7462	90.0826
2.74475	90.0625
2.7433	90.1357
2.74185	90.3347
2.7404	90.5082
2.73895	90.4182
2.7375	90.2729
2.73606	90.2912
2.73462	90.3012
2.73318	90.3033
2.73174	90.4141
2.7303	90.5819
2.72886	90.5439
2.72742	90.5686
2.72599	90.7816
2.72456	90.969
2.72313	90.8026
2.7217	90.8995
2.72027	91.119
2.71884	90.9647
2.71742	90.8327
2.71599	90.8625
2.71457	90.949
2.71315	90.9793
2.71173	91.1163
2.71032	91.1366
2.7089	90.9994
2.70748	90.8067
2.70607	90.6959
2.70466	90.8258
2.70325	90.9811
2.70184	91.1411
2.70043	91.2259
2.69903	91.1714
2.69762	91.2295
2.69622	91.4372
2.69482	91.7198
2.69342	91.7744
2.69202	91.5667
2.69062	91.5517
2.68923	91.6474
2.68783	91.7767
2.68644	91.8319
2.68505	91.8208
2.68366	91.8363
2.68227	91.8321
2.68089	91.763
2.6795	91.9087
2.67812	92.0208
2.67673	92.0935
2.67535	92.0287
2.67397	91.914
2.6726	92.0221
2.67122	92.4546
2.66984	92.4736
2.66847	92.1055
2.6671	92.1969
2.66572	92.2934
2.66435	92.2098
2.66299	92.0052
2.66162	92.0119
2.66025	91.9722
2.65889	91.8165
2.65753	91.7935
2.65616	91.9297
2.65481	91.849
2.65345	91.9299
2.65209	92.0582
2.65073	91.9914
2.64938	91.9235
2.64803	91.8617
2.64667	91.9713
2.64532	91.9442
2.64397	91.7832
2.64263	91.9451
2.64128	92.0085
2.63994	91.8688
2.63859	91.8046
2.63725	91.8828
2.63591	91.8835
2.63457	91.8636
2.63323	91.8688
2.6319	92.0235
2.63056	92.1333
2.62923	91.9377
2.62789	91.9278
2.62656	92.0485
2.62523	91.8741
2.6239	91.6566
2.62258	91.6901
2.62125	92.046
2.61993	92.1925
2.6186	92.0599
2.61728	92.1749
2.61596	92.0682
2.61464	91.9243
2.61332	91.9132
2.61201	91.8629
2.61069	91.8553
2.60938	91.8181
2.60807	91.8681
2.60675	92.0335
2.60544	92.1713
2.60414	92.0892
2.60283	92.0725
2.60152	92.0297
2.60022	91.9028
2.59891	91.8266
2.59761	91.8583
2.59631	92.1537
2.59501	92.5733
2.59371	92.3429
2.59242	91.8799
2.59112	91.7842
2.58983	91.9514
2.58853	92.0297
2.58724	92.0895
2.58595	92.0005
2.58466	91.9567
2.58338	91.9472
2.58209	91.927
2.5808	91.9592
2.57952	91.9191
2.57824	92.0146
2.57695	92.0731
2.57567	91.9791
2.5744	91.9465
2.57312	91.8831
2.57184	91.7709
2.57057	91.9722
2.56929	91.9648
2.56802	91.6846
2.56675	91.6659
2.56548	91.8268
2.56421	91.9623
2.56294	92.1457
2.56168	92.0675
2.56041	91.8521
2.55915	91.8478
2.55789	91.8371
2.55662	91.7975
2.55536	91.7059
2.5541	91.6827
2.55285	91.8379
2.55159	91.9256
2.55034	91.8544
2.54908	91.7855
2.54783	91.9073
2.54658	91.9579
2.54533	91.91
2.54408	91.8663
2.54283	91.8255
2.54159	91.7513
2.54034	91.6696
2.5391	91.6834
2.53785	91.7436
2.53661	91.8096
2.53537	91.8172
2.53413	91.9028
2.53289	91.909
2.53166	91.878
2.53042	91.8751
2.52919	91.7901
2.52795	91.7636
2.52672	91.786
2.52549	91.7931
2.52426	91.7174
2.52303	91.7179
2.52181	91.7015
2.52058	91.7458
2.51936	91.7401
2.51813	91.8148
2.51691	91.7783
2.51569	91.8307
2.51447	91.9523
2.51325	91.8384
2.51203	91.7216
2.51082	91.613
2.5096	91.557
2.50839	91.6029
2.50717	91.6364
2.50596	91.7729
2.50475	91.7545
2.50354	91.7564
2.50233	91.8613
2.50113	91.8352
2.49992	91.8113
2.49872	91.7638
2.49751	91.7456
2.49631	91.7553
2.49511	91.7234
2.49391	91.5837
2.49271	91.5083
2.49151	91.6428
2.49031	91.6911
2.48912	91.658
2.48792	91.6716
2.48673	91.6831
2.48554	91.7238
2.48435	91.7439
2.48316	91.6773
2.48197	91.6662
2.48078	91.6715
2.4796	91.5925
2.47841	91.5599
2.47723	91.6746
2.47604	91.7718
2.47486	91.6552
2.47368	91.5753
2.4725	91.6933
2.47132	91.8052
2.47014	91.8317
2.46897	91.7774
2.46779	91.6937
2.46662	91.674
2.46545	91.495
2.46427	91.5967
2.4631	91.8193
2.46193	91.8113
2.46077	91.6914
2.4596	91.5724
2.45843	91.5576
2.45727	91.5243
2.4561	91.53
2.45494	91.5586
2.45378	91.4964
2.45262	91.5311
2.45146	91.5279
2.4503	91.4489
2.44914	91.4907
2.44799	91.6608
2.44683	91.7479
2.44568	91.6757
2.44452	91.6224
2.44337	91.6439
2.44222	91.7348
2.44107	91.7379
2.43992	91.6156
2.43877	91.6734
2.43763	91.7489
2.43648	91.6784
2.43534	91.7188
2.43419	91.6402
2.43305	91.5573
2.43191	91.5627
2.43077	91.5502
2.42963	91.5061
2.42849	91.4979
2.42736	91.4862
2.42622	91.5869
2.42509	91.7353
2.42395	91.7766
2.42282	91.6078
2.42169	91.6421
2.42056	91.8379
2.41943	91.8492
2.4183	91.568
2.41717	91.4604
2.41605	91.5935
2.41492	91.5376
2.4138	91.4082
2.41267	91.5628
2.41155	91.6662
2.41043	91.5207
2.40931	91.4539
2.40819	91.4872
2.40707	91.6126
2.40595	91.6216
2.40484	91.6233
2.40372	91.5369
2.40261	91.5519
2.4015	91.634
2.40039	91.5626
2.39928	91.4969
2.39817	91.5831
2.39706	91.7238
2.39595	91.8247
2.39484	91.782
2.39374	91.4696
2.39263	91.3568
2.39153	91.4632
2.39043	91.509
2.38932	91.5936
2.38822	91.7536
2.38712	91.7781
2.38603	91.6604
2.38493	91.5556
2.38383	91.555
2.38274	91.4819
2.38164	91.5406
2.38055	91.5791
2.37946	91.5715
2.37836	91.5447
2.37727	91.5429
2.37618	91.5398
2.3751	91.5689
2.37401	91.5846
2.37292	91.628
2.37184	91.6539
2.37075	91.5331
2.36967	91.4997
2.36859	91.5873
2.3675	91.7102
2.36642	91.7141
2.36534	91.7295
2.36427	91.6109
2.36319	91.5868
2.36211	91.5613
2.36104	91.5023
2.35996	91.5304
2.35889	91.6167
2.35781	91.5574
2.35674	91.3838
2.35567	91.256
2.3546	91.3629
2.35353	91.4183
2.35247	91.3836
2.3514	91.4915
2.35033	91.4382
2.34927	91.383
2.3482	91.4315
2.34714	91.4466
2.34608	91.4138
2.34502	91.4868
2.34396	91.6268
2.3429	91.5239
2.34184	91.406
2.34078	91.4317
2.33973	91.4646
2.33867	91.4485
2.33762	91.4144
2.33656	91.4195
2.33551	91.4383
2.33446	91.3971
2.33341	91.4624
2.33236	91.4737
2.33131	91.499
2.33026	91.4599
2.32922	91.4223
2.32817	91.5212
2.32712	91.4996
2.32608	91.4925
2.32504	91.4702
2.324	91.4833
2.32295	91.6269
2.32191	91.5911
2.32087	91.4747
2.31984	91.3788
2.3188	91.3878
2.31776	91.3416
2.31673	91.3193
2.31569	91.3909
2.31466	91.3714
2.31362	91.4775
2.31259	91.6025
2.31156	91.6247
2.31053	91.6478
2.3095	91.4518
2.30847	91.3068
2.30745	91.4009
2.30642	91.4915
2.3054	91.4863
2.30437	91.5002
2.30335	91.4987
2.30232	91.5213
2.3013	91.4639
2.30028	91.3054
2.29926	91.1975
2.29824	91.3054
2.29722	91.4788
2.29621	91.3942
2.29519	91.427
2.29417	91.5889
2.29316	91.5526
2.29215	91.552
2.29113	91.611
2.29012	91.4916
2.28911	91.3025
2.2881	91.2733
2.28709	91.3848
2.28608	91.3855
2.28507	91.2833
2.28407	91.2278
2.28306	91.2651
2.28206	91.3346
2.28105	91.2435
2.28005	91.0872
2.27905	91.1543
2.27805	91.3449
2.27705	91.5845
2.27605	91.6572
2.27505	91.4339
2.27405	91.3195
2.27305	91.3743
2.27206	91.5078
2.27106	91.4468
2.27007	91.3885
2.26907	91.4326
2.26808	91.3886
2.26709	91.156
2.2661	91.2133
2.26511	91.3354
2.26412	91.3067
2.26313	91.3908
2.26214	91.4665
2.26116	91.4136
2.26017	91.3104
2.25919	91.3421
2.2582	91.4446
2.25722	91.4858
2.25624	91.4744
2.25526	91.5388
2.25428	91.4036
2.2533	91.2584
2.25232	91.2614
2.25134	91.2535
2.25036	91.3691
2.24939	91.4199
2.24841	91.4542
2.24744	91.4931
2.24646	91.3996
2.24549	91.3329
2.24452	91.3242
2.24355	91.3319
2.24257	91.3449
2.24161	91.3156
2.24064	91.2384
2.23967	91.2991
2.2387	91.3699
2.23774	91.3715
2.23677	91.3344
2.23581	91.2131
2.23484	91.186
2.23388	91.2637
2.23292	91.2788
2.23196	91.2901
2.231	91.4123
2.23004	91.4781
2.22908	91.4679
2.22812	91.3083
2.22716	91.3097
2.22621	91.3813
2.22525	91.2828
2.2243	91.2983
2.22334	91.3185
2.22239	91.2792
2.22144	91.4227
2.22049	91.437
2.21953	91.2883
2.21859	91.225
2.21764	91.3374
2.21669	91.3735
2.21574	91.2223
2.21479	91.3043
2.21385	91.4555
2.2129	91.3913
2.21196	91.2779
2.21102	91.2329
2.21007	91.2589
2.20913	91.2736
2.20819	91.4844
2.20725	91.466
2.20631	91.361
2.20537	91.1816
2.20444	91.1927
2.2035	91.1668
2.20256	91.244
2.20163	91.4351
2.20069	91.4738
2.19976	91.3012
2.19883	91.1295
2.19789	91.1574
2.19696	91.1856
2.19603	91.1454
2.1951	91.1437
2.19417	91.3379
2.19325	91.4412
2.19232	91.4242
2.19139	91.4357
2.19047	91.3007
2.18954	91.2087
2.18862	91.0855
2.18769	91.0043
2.18677	91.1078
2.18585	91.259
2.18493	91.3921
2.18401	91.3631
2.18309	91.4281
2.18217	91.5317
2.18125	91.4287
2.18033	91.3345
2.17942	91.3116
2.1785	91.3243
2.17759	91.3788
2.17667	91.3706
2.17576	91.3055
2.17485	91.0599
2.17393	91.0024
2.17302	91.1661
2.17211	91.3031
2.1712	91.207
2.17029	91.09
2.16939	91.0441
2.16848	91.0389
2.16757	91.2057
2.16667	91.1883
2.16576	91.0051
2.16486	90.894
2.16395	91.0113
2.16305	91.2702
2.16215	91.4298
2.16125	91.4099
2.16035	91.2422
2.15945	91.1793
2.15855	91.1751
2.15765	91.0957
2.15675	91.0696
2.15586	91.1164
2.15496	91.1112
2.15406	91.1721
2.15317	91.3571
2.15228	91.3804
2.15138	91.1868
2.15049	91.1302
2.1496	91.2004
2.14871	91.2124
2.14782	91.175
2.14693	91.1223
2.14604	91.0718
2.14515	91.1504
2.14427	91.0898
2.14338	91.246
2.14249	91.4273
2.14161	91.1357
2.14072	91.316
2.13984	91.3941
2.13896	91.2063
2.13808	91.104
2.13719	91.021
2.13631	90.9651
2.13543	90.9337
2.13455	91.2323
2.13368	91.4791
2.1328	91.2024
2.13192	90.9227
2.13105	91.0231
2.13017	91.2282
2.1293	91.1425
2.12842	91.1204
2.12755	91.1418
2.12668	91.0825
2.1258	91.2216
2.12493	91.3043
2.12406	91.0505
2.12319	91.0628
2.12232	91.1653
2.12145	91.2166
2.12059	91.2485
2.11972	91.1272
2.11885	91.0472
2.11799	91.1144
2.11712	91.0794
2.11626	91.0243
2.1154	90.9763
2.11453	91.1678
2.11367	91.0553
2.11281	90.951
2.11195	91.2578
2.11109	91.2897
2.11023	90.9999
2.10937	91.0386
2.10851	91.1471
2.10766	91.191
2.1068	91.3409
2.10594	91.0801
2.10509	90.779
2.10423	90.9922
2.10338	91.1209
2.10253	91.1041
2.10168	91.0272
2.10082	91.1666
2.09997	91.1148
2.09912	90.8717
2.09827	90.8629
2.09742	90.9159
2.09658	90.9898
2.09573	91.1279
2.09488	91.2188
2.09404	91.1635
2.09319	91.2726
2.09235	91.3312
2.0915	91.2184
2.09066	91.1298
2.08982	91.1073
2.08897	91.1071
2.08813	91.0718
2.08729	90.9848
2.08645	91.039
2.08561	91.0931
2.08477	91.0675
2.08394	91.0898
2.0831	90.9312
2.08226	90.9472
2.08143	91.0881
2.08059	90.8736
2.07976	90.7615
2.07892	90.8501
2.07809	91.049
2.07726	91.3957
2.07643	91.2459
2.07559	90.9274
2.07476	90.8168
2.07393	90.9728
2.0731	91.1162
2.07228	91.0414
2.07145	90.9343
2.07062	90.8806
2.06979	90.9138
2.06897	90.9115
2.06814	91.1085
2.06732	91.1424
2.06649	91.0548
2.06567	90.9304
2.06485	90.8721
2.06403	90.8443
2.0632	91.0828
2.06238	91.4975
2.06156	91.6484
2.06074	91.4464
2.05993	91.2274
2.05911	91.0889
2.05829	90.9907
2.05747	91.0391
2.05666	90.8798
2.05584	90.9606
2.05503	91.0413
2.05421	90.8485
2.0534	91.0027
2.05259	91.0983
2.05177	90.8448
2.05096	90.9672
2.05015	91.1977
2.04934	91.118
2.04853	91.0731
2.04772	91.0519
2.04691	90.8801
2.04611	90.8236
2.0453	91.0373
2.04449	91.0188
2.04369	90.9479
2.04288	90.76
2.04208	90.7676
2.04127	90.8253
2.04047	90.7535
2.03967	90.7931
2.03886	91.143
2.03806	91.112
2.03726	90.9611
2.03646	91.0747
2.03566	91.15
2.03486	91.0608
2.03407	90.9903
2.03327	90.7237
2.03247	90.7976
2.03167	91.2469
2.03088	91.1252
2.03008	90.5719
2.02929	90.7019
2.0285	90.9916
2.0277	90.9203
2.02691	90.9262
2.02612	91.172
2.02533	91.0752
2.02453	90.6636
2.02374	90.5924
2.02295	90.882
2.02217	91.2001
2.02138	91.1569
2.02059	91.0746
2.0198	91.2268
2.01902	91.1112
2.01823	90.9204
2.01744	91.2019
2.01666	91.3169
2.01588	91.0351
2.01509	90.8324
2.01431	90.7407
2.01353	90.8242
2.01275	90.949
2.01196	90.9445
2.01118	91.1257
2.0104	91.2666
2.00963	91.2808
2.00885	91.2286
2.00807	91.0937
2.00729	91.1193
2.00651	90.9949
2.00574	90.9244
2.00496	91.0752
2.00419	90.8588
2.00341	90.7573
2.00264	90.8316
2.00187	90.8444
2.00109	91.0681
2.00032	90.8127
