Name: Mimetite Pb_5(AsO_4)_3Cl
Type: Mineral
Class: Arsenates
Subclass: 
Particle Size: 0-45um
Sample No.: A-1A
Owner: JPL
Wavelength range: IR
Origin: Mexico, Chihuahua, Ingla Tierra Mine
Collected by JPL
Description: 





Measurement: Hemispherical reflectance
First Column: X
Second Column: Y
X Units:  Wavelength (micrometers)
Y Units:  Reflectance (percent)
First X Value: 15.3853
Last X Value: 2.00032
Number of X Values: 2256
Additional information: a01aa.txt
 
15.3853	24.6535
15.3397	24.4363
15.2945	24.2762
15.2495	24.1531
15.2048	23.956
15.1603	23.5987
15.1161	23.6208
15.0722	23.624
15.0285	23.3224
14.9851	23.1692
14.9419	22.9164
14.8989	22.4147
14.8563	22.1331
14.8138	21.7462
14.7716	21.43
14.7296	21.0549
14.6879	20.4482
14.6464	20.1518
14.6052	19.9775
14.5641	19.6119
14.5233	19.2367
14.4828	18.9773
14.4424	18.4546
14.4023	17.8344
14.3624	17.3131
14.3227	16.7907
14.2833	16.2505
14.244	15.7716
14.205	15.4706
14.1662	14.9331
14.1276	14.3826
14.0892	13.9612
14.051	13.5456
14.0131	13.1158
13.9753	12.6617
13.9377	12.2893
13.9004	11.9499
13.8632	11.507
13.8262	11.0695
13.7895	10.8436
13.7529	10.6612
13.7165	10.1718
13.6803	9.66009
13.6443	9.44264
13.6085	9.18508
13.5729	8.94117
13.5374	8.60523
13.5022	8.29922
13.4671	8.22593
13.4322	8.0073
13.3975	7.68476
13.363	7.52178
13.3286	7.39004
13.2944	7.22076
13.2604	7.08803
13.2266	6.96387
13.193	6.8639
13.1595	6.6135
13.1262	6.47783
13.093	6.51006
13.06	6.71383
13.0272	7.00117
12.9946	7.12354
12.9621	7.10462
12.9298	7.23209
12.8976	7.448
12.8656	7.64268
12.8337	7.85307
12.8021	8.03545
12.7705	7.99749
12.7391	7.77313
12.7079	7.38439
12.6769	6.91887
12.6459	6.28534
12.6152	5.59271
12.5845	5.17611
12.5541	5.23392
12.5238	5.43716
12.4936	5.70375
12.4635	6.03893
12.4337	6.29501
12.4039	6.27921
12.3743	6.05497
12.3448	5.88139
12.3155	5.85575
12.2863	6.03788
12.2573	6.37415
12.2284	6.58561
12.1996	6.67748
12.171	6.73814
12.1425	6.67651
12.1141	6.57697
12.0859	6.36095
12.0578	6.08416
12.0298	5.92482
12.0019	5.7138
11.9742	5.42223
11.9466	5.18055
11.9192	4.94893
11.8918	4.75658
11.8646	4.56391
11.8375	4.30125
11.8106	4.0235
11.7837	3.83985
11.757	3.50128
11.7304	3.09508
11.7039	2.52833
11.6776	2.02671
11.6513	1.72501
11.6252	1.5083
11.5992	1.21548
11.5733	0.982861
11.5475	0.830575
11.5219	0.756166
11.4963	0.493959
11.4709	0.423024
11.4455	0.533119
11.4203	0.606673
11.3952	0.761605
11.3702	0.881712
11.3454	0.859817
11.3206	0.988601
11.2959	1.1672
11.2714	1.30999
11.2469	1.48861
11.2226	1.84556
11.1983	2.10391
11.1742	2.39961
11.1502	2.73874
11.1263	2.97517
11.1024	3.35718
11.0787	3.81021
11.0551	4.24961
11.0316	4.77555
11.0081	5.39954
10.9848	6.04987
10.9616	6.64984
10.9385	7.21145
10.9154	7.70485
10.8925	8.04338
10.8697	8.42294
10.8469	9.06052
10.8243	9.64226
10.8017	10.3344
10.7793	10.9372
10.7569	11.3951
10.7346	11.879
10.7125	12.3654
10.6904	12.7562
10.6684	13.1771
10.6465	13.552
10.6247	13.7171
10.6029	13.6977
10.5813	13.6159
10.5597	13.4438
10.5383	13.2021
10.5169	12.9492
10.4956	12.582
10.4744	12.4806
10.4533	12.7082
10.4323	13.2023
10.4113	13.8849
10.3904	14.7557
10.3697	15.564
10.349	16.3881
10.3284	17.2204
10.3078	17.7882
10.2874	18.0535
10.267	18.1859
10.2467	18.3201
10.2265	18.2834
10.2064	18.2501
10.1863	18.1645
10.1663	18.1296
10.1464	18.358
10.1266	18.7352
10.1069	19.0524
10.0872	19.384
10.0676	19.7055
10.0481	19.897
10.0287	20.0284
10.0093	19.9318
9.99005	19.6817
9.97084	19.6802
9.95169	19.8307
9.93263	20.2482
9.91364	20.9137
9.89472	21.5917
9.87587	22.3314
9.8571	23.1693
9.83839	23.9896
9.81976	24.8119
9.80119	25.4771
9.78271	26.1476
9.76428	26.8247
9.74592	27.3101
9.72764	27.6771
9.70943	27.8717
9.69128	28.0662
9.6732	27.9718
9.65518	27.8283
9.63724	27.8664
9.61935	27.9082
9.60155	28.1521
9.5838	28.8248
9.56611	29.8034
9.5485	31.0897
9.53094	32.3762
9.51345	33.5338
9.49604	34.7799
9.47867	35.9385
9.46137	36.8595
9.44414	37.5786
9.42697	38.0672
9.40986	38.4134
9.39281	38.6585
9.37583	38.6689
9.35891	38.5
9.34204	38.264
9.32524	37.9382
9.3085	37.4647
9.29182	36.9042
9.27519	36.1441
9.25863	35.4669
9.24213	34.7886
9.22568	34.0942
9.2093	33.6711
9.19297	33.3656
9.17669	33.1342
9.16048	33.0391
9.14433	33.1226
9.12823	33.0782
9.11218	33.0738
9.0962	33.1352
9.08027	33.2427
9.06439	33.4771
9.04858	33.8929
9.03281	34.3256
9.0171	34.7391
9.00145	35.3526
8.98585	36.1319
8.9703	36.8722
8.9548	37.4205
8.93937	37.916
8.92398	38.5659
8.90865	39.2135
8.89337	39.9071
8.87814	40.7659
8.86296	41.4381
8.84784	41.8103
8.83277	42.1058
8.81774	42.475
8.80277	42.7945
8.78786	43.0218
8.77298	43.2836
8.75816	43.4337
8.7434	43.5685
8.72868	43.7822
8.714	44.0171
8.69938	44.1019
8.68481	44.0863
8.67029	44.2321
8.65581	44.3677
8.64139	44.4377
8.62701	44.6051
8.61268	44.8169
8.5984	45.0804
8.58416	45.2862
8.56997	45.4682
8.55583	45.6005
8.54174	45.7505
8.52769	46.0764
8.51368	46.3026
8.49973	46.4409
8.48582	46.7233
8.47195	46.9381
8.45813	47.1203
8.44436	47.3785
8.43062	47.6532
8.41693	47.9101
8.4033	48.0896
8.3897	48.2813
8.37614	48.5118
8.36264	48.8114
8.34917	49.1945
8.33574	49.6258
8.32236	49.952
8.30903	50.2709
8.29573	50.6544
8.28248	51.0256
8.26927	51.4817
8.2561	51.9974
8.24298	52.4655
8.2299	52.9388
8.21685	53.4976
8.20385	54.0604
8.19089	54.5474
8.17797	55.0266
8.16509	55.5337
8.15225	55.9969
8.13946	56.4115
8.1267	56.8125
8.11398	57.2393
8.10131	57.5567
8.08867	57.8977
8.07606	58.2812
8.0635	58.5982
8.05099	58.8578
8.0385	59.0798
8.02606	59.2108
8.01366	59.285
8.00129	59.3281
7.98896	59.33
7.97667	59.3516
7.96442	59.3217
7.9522	59.1241
7.94002	58.8681
7.92788	58.558
7.91578	58.2716
7.90371	57.8925
7.89168	57.3587
7.87969	56.7806
7.86773	56.1974
7.85581	55.4171
7.84392	54.5108
7.83207	53.4539
7.82026	52.3652
7.80849	51.2096
7.79674	49.9412
7.78503	48.718
7.77337	47.62
7.76173	46.5837
7.75012	45.6184
7.73856	44.5976
7.72703	43.6481
7.71553	42.8374
7.70406	41.9986
7.69263	41.1178
7.68123	40.4636
7.66987	39.8592
7.65855	39.1981
7.64725	38.6491
7.63598	38.2504
7.62475	37.9537
7.61356	37.734
7.60239	37.5858
7.59126	37.6901
7.58017	37.9551
7.5691	38.2778
7.55806	38.8577
7.54707	39.5466
7.5361	40.3055
7.52516	41.1249
7.51425	41.9672
7.50338	42.7975
7.49253	43.5813
7.48172	44.3944
7.47094	45.1153
7.46019	45.5637
7.44947	45.7301
7.43879	45.8923
7.42813	45.9675
7.4175	45.9932
7.4069	45.9317
7.39634	45.7617
7.3858	45.6306
7.37529	45.6098
7.36482	45.6236
7.35437	45.7516
7.34396	45.8833
7.33357	45.7624
7.32321	45.3007
7.31288	45.0811
7.30258	44.8866
7.29231	44.6707
7.28207	44.6209
7.27185	44.4569
7.26167	44.1085
7.25152	43.8719
7.24139	43.6366
7.23129	43.4512
7.22122	43.2961
7.21117	43.454
7.20116	43.2441
7.19117	42.7632
7.18121	42.7446
7.17128	42.998
7.16137	42.7191
7.1515	42.4897
7.14164	42.1589
7.13182	41.7677
7.12203	41.743
7.11225	41.567
7.10251	41.3409
7.0928	41.2042
7.08311	41.0396
7.07344	40.8537
7.06381	40.8721
7.0542	41.4077
7.04461	41.7674
7.03506	40.939
7.02552	40.5389
7.01601	40.3367
7.00653	40.1794
6.99708	40.4474
6.98765	40.5115
6.97824	40.392
6.96886	40.963
6.95951	41.6936
6.95018	41.1952
6.94087	41.0819
6.9316	41.4658
6.92234	41.9577
6.91311	42.7267
6.90391	43.5467
6.89473	43.9669
6.88557	44.6407
6.87644	45.7475
6.86733	47.9579
6.85824	48.7714
6.84918	48.0526
6.84015	48.2
6.83114	49.2981
6.82215	49.8823
6.81319	49.8388
6.80424	50.5044
6.79532	52.01
6.78643	52.624
6.77756	52.214
6.76871	52.0115
6.75989	51.8628
6.75109	52.1453
6.74231	52.2717
6.73355	52.4978
6.72482	53.0819
6.71611	53.7109
6.70742	53.7066
6.69875	53.1018
6.69011	53.4298
6.68149	54.088
6.67289	53.6903
6.66431	52.9627
6.65576	52.4722
6.64722	53.3588
6.63871	54.9091
6.63022	53.6564
6.62175	51.6936
6.61331	50.6622
6.60488	49.8082
6.59648	49.5101
6.5881	48.8639
6.57974	48.3034
6.5714	47.7299
6.56308	45.7568
6.55478	44.304
6.54651	42.7864
6.53825	41.2959
6.53001	40.4148
6.5218	39.9273
6.51361	38.7319
6.50544	38.4418
6.49729	39.6994
6.48915	39.7633
6.48104	38.7536
6.47295	38.1369
6.46488	37.5928
6.45683	37.4585
6.4488	37.4881
6.44079	37.4955
6.4328	37.7044
6.42482	38.0653
6.41687	39.432
6.40894	38.4113
6.40103	36.0525
6.39314	35.2961
6.38526	34.862
6.37741	34.6658
6.36957	34.6044
6.36176	33.7534
6.35396	33.539
6.34618	34.0648
6.33843	33.4326
6.33069	32.5845
6.32297	32.472
6.31527	32.4534
6.30758	32.4643
6.29992	32.5455
6.29227	32.7448
6.28465	32.8002
6.27704	32.9627
6.26945	33.2341
6.26188	33.5401
6.25432	33.9945
6.24679	34.6782
6.23927	35.2258
6.23177	35.6478
6.22429	36.1572
6.21683	36.7977
6.20938	37.2217
6.20195	37.572
6.19454	38.3282
6.18715	39.6652
6.17978	39.7125
6.17242	39.396
6.16508	40.1144
6.15776	40.7414
6.15045	40.8082
6.14317	41.2114
6.1359	41.4424
6.12864	41.7006
6.12141	42.815
6.11419	44.2505
6.10699	43.8707
6.0998	43.4167
6.09263	43.632
6.08549	44.3358
6.07835	45.918
6.07123	47.0723
6.06413	46.9486
6.05705	48.3866
6.04998	51.536
6.04293	51.0035
6.0359	49.8539
6.02888	50.4267
6.02187	51.7275
6.01489	53.2783
6.00792	53.8707
6.00096	54.5984
5.99403	56.4334
5.98711	57.7872
5.9802	58.1005
5.97331	59.3543
5.96644	60.4649
5.95958	60.4838
5.95274	61.3401
5.94591	62.9072
5.9391	65.6193
5.9323	65.7814
5.92552	64.8139
5.91876	65.2824
5.91201	65.7819
5.90528	66.7418
5.89856	69.0228
5.89186	69.5086
5.88517	70.6796
5.8785	71.3886
5.87184	69.6823
5.8652	70.1914
5.85857	70.5952
5.85196	70.7821
5.84536	71.2027
5.83878	72.1016
5.83221	73.48
5.82566	75.1957
5.81912	75.4494
5.81259	74.0536
5.80608	73.6494
5.79959	73.914
5.79311	74.057
5.78665	74.558
5.78019	75.2153
5.77376	76.4553
5.76734	78.4032
5.76093	77.5113
5.75453	76.666
5.74815	77.5513
5.74179	77.5085
5.73543	77.5636
5.7291	77.807
5.72277	78.483
5.71646	79.2542
5.71017	79.8723
5.70389	79.3643
5.69762	79.3845
5.69136	79.9024
5.68513	79.9826
5.6789	80.7003
5.67268	80.9795
5.66648	80.5037
5.6603	81.024
5.65413	81.6753
5.64797	82.3971
5.64182	83.2586
5.63569	82.4629
5.62957	81.7605
5.62347	81.7566
5.61737	82.0102
5.61129	81.9605
5.60522	81.9576
5.59917	81.792
5.59313	81.2255
5.5871	81.1666
5.58109	81.6039
5.57509	81.258
5.5691	80.5771
5.56312	80.7371
5.55716	81.3773
5.55121	82.262
5.54528	82.8302
5.53935	83.359
5.53344	83.7596
5.52754	84.2325
5.52166	84.4864
5.51578	84.4465
5.50992	84.4635
5.50407	84.7527
5.49823	84.8803
5.49241	84.9967
5.4866	85.1631
5.4808	85.7049
5.47501	85.6968
5.46923	85.9324
5.46347	86.287
5.45772	85.7773
5.45198	85.532
5.44625	85.6855
5.44054	85.7283
5.43484	85.7635
5.42914	86.2474
5.42347	87.2479
5.4178	86.9287
5.41214	86.3273
5.4065	86.2094
5.40087	86.0777
5.39525	86.0483
5.38964	86.0328
5.38404	86.0777
5.37846	86.085
5.37288	86.0258
5.36732	85.9943
5.36177	86.0671
5.35623	86.4468
5.35071	86.8075
5.34519	86.449
5.33968	86.1412
5.33419	86.1789
5.32871	86.1926
5.32324	86.2419
5.31778	86.3157
5.31233	86.4217
5.30689	86.4883
5.30147	86.5663
5.29605	86.7438
5.29065	86.8339
5.28525	86.5361
5.27987	86.5213
5.2745	86.5237
5.26914	86.4513
5.26379	86.355
5.25845	86.3623
5.25312	86.3564
5.24781	86.3894
5.2425	86.412
5.23721	86.5363
5.23192	86.4647
5.22665	86.3214
5.22138	86.3326
5.21613	86.6652
5.21089	86.651
5.20566	86.4093
5.20044	86.4747
5.19522	86.3778
5.19002	86.2812
5.18483	86.2957
5.17965	86.3824
5.17448	86.5013
5.16933	86.5409
5.16418	86.5819
5.15904	86.6704
5.15391	86.8169
5.14879	87.0945
5.14368	87.0236
5.13859	86.8345
5.1335	86.8155
5.12842	86.81
5.12335	86.7818
5.1183	86.8157
5.11325	86.8323
5.10821	86.7364
5.10318	86.7621
5.09817	86.777
5.09316	86.7646
5.08816	86.8387
5.08317	86.9851
5.07819	86.9469
5.07322	86.8505
5.06826	86.8234
5.06331	86.8699
5.05837	86.863
5.05344	86.8349
5.04852	86.8429
5.04361	86.8353
5.03871	86.7984
5.03382	86.8176
5.02894	86.8146
5.02406	86.8509
5.0192	86.951
5.01435	86.8606
5.0095	86.8288
5.00467	86.8932
4.99984	86.958
4.99502	86.9696
4.99021	86.9782
4.98542	87.0647
4.98063	87.1237
4.97585	87.1379
4.97108	87.1555
4.96632	87.2477
4.96156	87.3429
4.95682	87.4283
4.95209	87.4488
4.94736	87.4332
4.94264	87.4255
4.93794	87.4879
4.93324	87.5593
4.92855	87.5931
4.92387	87.5783
4.9192	87.5879
4.91453	87.6308
4.90988	87.6665
4.90524	87.6744
4.9006	87.7045
4.89597	87.6567
4.89135	87.6273
4.88674	87.6779
4.88214	87.7103
4.87755	87.651
4.87296	87.6403
4.86839	87.6827
4.86382	87.7126
4.85926	87.691
4.85471	87.7034
4.85017	87.717
4.84564	87.7844
4.84111	87.848
4.8366	87.889
4.83209	87.9208
4.82759	87.966
4.8231	87.9843
4.81862	88.0121
4.81415	88.0722
4.80968	88.1172
4.80522	88.1993
4.80077	88.2446
4.79633	88.2545
4.7919	88.3286
4.78747	88.3663
4.78306	88.4447
4.77865	88.4429
4.77425	88.4847
4.76986	88.5012
4.76547	88.6002
4.7611	88.5898
4.75673	88.5306
4.75237	88.5722
4.74802	88.5983
4.74367	88.5723
4.73934	88.5505
4.73501	88.5511
4.73069	88.5734
4.72638	88.5747
4.72207	88.5499
4.71777	88.4747
4.71348	88.417
4.7092	88.4275
4.70493	88.4322
4.70066	88.4202
4.69641	88.4041
4.69216	88.403
4.68791	88.3575
4.68368	88.3098
4.67945	88.2621
4.67523	88.2436
4.67102	88.2744
4.66682	88.232
4.66262	88.2399
4.65843	88.2916
4.65425	88.3434
4.65007	88.3983
4.64591	88.4301
4.64175	88.4287
4.6376	88.4965
4.63345	88.5162
4.62932	88.5738
4.62519	88.5787
4.62106	88.5814
4.61695	88.6287
4.61284	88.6427
4.60874	88.6679
4.60465	88.6563
4.60056	88.5992
4.59648	88.5942
4.59241	88.5675
4.58835	88.5805
4.58429	88.5297
4.58024	88.4893
4.5762	88.4496
4.57216	88.5097
4.56814	88.6087
4.56411	88.6081
4.5601	88.5335
4.55609	88.5054
4.55209	88.4897
4.5481	88.4769
4.54411	88.4996
4.54013	88.4871
4.53616	88.4303
4.5322	88.3895
4.52824	88.3555
4.52429	88.3848
4.52034	88.4023
4.51641	88.3208
4.51247	88.2942
4.50855	88.2724
4.50463	88.2287
4.50072	88.1999
4.49682	88.2279
4.49292	88.1933
4.48903	88.1631
4.48515	88.2132
4.48127	88.2089
4.4774	88.1527
4.47354	88.101
4.46968	88.074
4.46584	88.0331
4.46199	88.0662
4.45815	88.0222
4.45432	87.9252
4.4505	87.9265
4.44668	87.883
4.44287	87.8147
4.43907	87.8029
4.43527	87.7465
4.43148	87.6581
4.4277	87.6011
4.42392	87.5163
4.42015	87.4497
4.41638	87.4294
4.41262	87.3497
4.40887	87.2291
4.40513	87.0911
4.40139	86.9685
4.39765	86.8737
4.39393	86.8393
4.39021	86.745
4.38649	86.6503
4.38278	86.5636
4.37908	86.4635
4.37539	86.3549
4.3717	86.2333
4.36801	86.1591
4.36434	86.1358
4.36067	86.0491
4.357	85.9311
4.35335	85.8834
4.34969	85.8634
4.34605	85.8231
4.34241	85.7742
4.33877	85.7023
4.33514	85.5997
4.33152	85.5167
4.32791	85.4499
4.3243	85.384
4.32069	85.3318
4.3171	85.1745
4.31351	85.0777
4.30992	85.1081
4.30634	85.0784
4.30277	84.9949
4.2992	84.9429
4.29564	84.864
4.29208	84.7631
4.28853	84.7316
4.28499	84.662
4.28145	84.6002
4.27792	84.5986
4.27439	84.5542
4.27087	84.4884
4.26735	84.4156
4.26384	84.2289
4.26034	84.0151
4.25684	84.0081
4.25335	84.2012
4.24986	84.5243
4.24638	84.8369
4.24291	85.0957
4.23944	85.2889
4.23598	85.4525
4.23252	85.5731
4.22906	85.5919
4.22562	85.5819
4.22218	85.5935
4.21874	85.4851
4.21531	85.3274
4.21189	85.1971
4.20847	85.1158
4.20506	85.0944
4.20165	85.0922
4.19825	85.084
4.19485	85.1094
4.19146	85.1528
4.18807	85.1897
4.18469	85.258
4.18132	85.3115
4.17795	85.2828
4.17458	85.3521
4.17123	85.3932
4.16787	85.4107
4.16453	85.4633
4.16118	85.4862
4.15785	85.4997
4.15451	85.5481
4.15119	85.5557
4.14787	85.566
4.14455	85.59
4.14124	85.6519
4.13794	85.7418
4.13464	85.774
4.13134	85.7614
4.12805	85.8087
4.12477	85.8299
4.12149	85.8128
4.11822	85.8273
4.11495	85.9083
4.11168	85.979
4.10843	86.0312
4.10517	86.012
4.10192	86.0327
4.09868	86.1037
4.09545	86.1823
4.09221	86.225
4.08899	86.1962
4.08576	86.1601
4.08255	86.1958
4.07933	86.241
4.07613	86.243
4.07292	86.1939
4.06973	86.3186
4.06654	86.4354
4.06335	86.4148
4.06017	86.3926
4.05699	86.4014
4.05382	86.4031
4.05065	86.3878
4.04749	86.3582
4.04433	86.3701
4.04118	86.3826
4.03803	86.3789
4.03489	86.373
4.03175	86.4153
4.02862	86.4661
4.02549	86.4641
4.02237	86.4535
4.01925	86.4394
4.01614	86.3811
4.01303	86.2396
4.00993	86.1718
4.00683	86.0945
4.00373	85.931
4.00064	85.7829
3.99756	85.5889
3.99448	85.3706
3.9914	85.2
3.98833	85.1116
3.98527	84.9963
3.98221	84.9871
3.97915	85.1288
3.9761	85.2111
3.97305	85.2545
3.97001	85.3431
3.96697	85.4237
3.96394	85.5676
3.96091	85.7576
3.95789	85.9194
3.95487	86.0978
3.95186	86.3282
3.94885	86.518
3.94584	86.7186
3.94284	86.9216
3.93984	87.1121
3.93685	87.235
3.93386	87.2766
3.93088	87.2884
3.9279	87.3207
3.92493	87.3565
3.92196	87.4066
3.919	87.4287
3.91604	87.4411
3.91308	87.4812
3.91013	87.4778
3.90718	87.4367
3.90424	87.4143
3.9013	87.4242
3.89837	87.4796
3.89544	87.5101
3.89252	87.4855
3.8896	87.473
3.88668	87.4789
3.88377	87.4673
3.88086	87.4867
3.87796	87.4791
3.87506	87.4848
3.87217	87.4818
3.86928	87.4541
3.86639	87.4031
3.86351	87.4012
3.86064	87.3895
3.85776	87.3547
3.8549	87.3602
3.85203	87.3308
3.84917	87.301
3.84631	87.2692
3.84346	87.2905
3.84062	87.4203
3.83777	87.4917
3.83494	87.523
3.8321	87.5448
3.82927	87.5369
3.82644	87.5513
3.82362	87.6384
3.82081	87.7293
3.81799	87.7644
3.81518	87.7372
3.81238	87.7139
3.80958	87.6979
3.80678	87.7301
3.80399	87.8181
3.8012	87.8604
3.79841	87.8323
3.79563	87.8578
3.79286	87.8696
3.79008	87.8859
3.78731	87.9128
3.78455	87.9089
3.78179	87.8578
3.77903	87.8298
3.77628	87.7865
3.77353	87.7411
3.77079	87.71
3.76805	87.714
3.76531	87.6714
3.76258	87.5951
3.75985	87.47
3.75713	87.4796
3.7544	87.5451
3.75169	87.4779
3.74898	87.3703
3.74627	87.3641
3.74356	87.4384
3.74086	87.3834
3.73816	87.3019
3.73547	87.2783
3.73278	87.1792
3.7301	87.1205
3.72741	87.1672
3.72474	87.1521
3.72206	87.0478
3.71939	86.9764
3.71673	86.9778
3.71406	86.9514
3.71141	86.8443
3.70875	86.737
3.7061	86.7021
3.70345	86.6401
3.70081	86.5549
3.69817	86.5219
3.69553	86.4895
3.6929	86.469
3.69027	86.434
3.68765	86.2951
3.68503	86.2329
3.68241	86.2031
3.6798	86.1503
3.67719	86.0912
3.67458	85.9852
3.67198	85.9739
3.66938	86.0036
3.66678	85.9295
3.66419	85.8853
3.66161	85.8268
3.65902	85.7958
3.65644	85.7967
3.65387	85.7192
3.65129	85.5905
3.64872	85.6023
3.64616	85.6691
3.64359	85.6154
3.64103	85.5414
3.63848	85.603
3.63593	85.5936
3.63338	85.5255
3.63084	85.4807
3.6283	85.4889
3.62576	85.5231
3.62322	85.4571
3.62069	85.4128
3.61817	85.4688
3.61564	85.5
3.61312	85.4493
3.61061	85.4161
3.6081	85.4236
3.60559	85.4154
3.60308	85.3667
3.60058	85.3671
3.59808	85.3497
3.59558	85.3364
3.59309	85.3193
3.59061	85.3042
3.58812	85.2682
3.58564	85.2018
3.58316	85.1813
3.58069	85.128
3.57822	85.1236
3.57575	85.1122
3.57328	85.0631
3.57082	85.0059
3.56836	84.9253
3.56591	84.8469
3.56346	84.8443
3.56101	84.816
3.55857	84.6654
3.55613	84.5944
3.55369	84.6115
3.55126	84.5562
3.54883	84.4595
3.5464	84.3985
3.54397	84.3872
3.54155	84.3652
3.53914	84.2928
3.53672	84.1455
3.53431	84.0133
3.5319	83.9004
3.5295	83.7642
3.5271	83.6366
3.5247	83.5157
3.52231	83.3475
3.51991	83.2183
3.51753	83.132
3.51514	82.9669
3.51276	82.7543
3.51038	82.6
3.50801	82.4429
3.50563	82.3022
3.50327	82.1884
3.5009	82.0958
3.49854	82.0749
3.49618	82.0903
3.49382	82.1027
3.49147	82.1327
3.48912	82.1639
3.48677	82.1034
3.48443	82.0182
3.48209	82.0414
3.47975	82.0288
3.47742	82.0545
3.47509	82.0654
3.47276	82.0669
3.47044	82.1297
3.46812	82.1961
3.4658	82.2672
3.46348	82.3297
3.46117	82.3098
3.45886	82.2739
3.45656	82.2909
3.45425	82.2335
3.45195	82.2045
3.44966	82.1027
3.44736	82.0206
3.44507	81.9896
3.44279	81.9687
3.4405	81.8496
3.43822	81.6542
3.43594	81.4278
3.43367	81.2849
3.43139	81.1426
3.42912	80.9291
3.42686	80.6887
3.42459	80.5628
3.42233	80.521
3.42007	80.3774
3.41782	80.2216
3.41557	80.2258
3.41332	80.334
3.41108	80.3972
3.40883	80.4633
3.40659	80.5544
3.40435	80.6507
3.40212	80.7336
3.39989	80.8559
3.39766	80.9392
3.39544	81.0168
3.39322	81.1088
3.391	81.0768
3.38878	81.0542
3.38657	81.0671
3.38436	81.0039
3.38215	80.9493
3.37994	80.913
3.37774	80.812
3.37554	80.7773
3.37335	80.8271
3.37115	80.8781
3.36896	80.92
3.36678	80.9053
3.36459	80.9224
3.36241	81.0064
3.36023	81.107
3.35805	81.2328
3.35588	81.257
3.35371	81.2418
3.35154	81.2366
3.34938	81.2834
3.34721	81.3609
3.34505	81.436
3.3429	81.4828
3.34074	81.6284
3.33859	81.7103
3.33644	81.7076
3.3343	81.6437
3.33215	81.5547
3.33001	81.5503
3.32788	81.6178
3.32574	81.6685
3.32361	81.6358
3.32148	81.5885
3.31936	81.5412
3.31723	81.5437
3.31511	81.598
3.31299	81.5993
3.31088	81.483
3.30876	81.4044
3.30665	81.3742
3.30455	81.3215
3.30244	81.2897
3.30034	81.2399
3.29824	81.187
3.29614	81.1022
3.29405	81.1206
3.29196	81.1545
3.28987	81.0346
3.28778	80.9805
3.2857	80.9913
3.28362	80.9357
3.28154	80.8475
3.27946	80.752
3.27739	80.6746
3.27532	80.608
3.27325	80.6101
3.27119	80.5824
3.26913	80.4999
3.26707	80.4783
3.26501	80.4112
3.26295	80.3132
3.2609	80.2891
3.25885	80.2142
3.2568	80.1221
3.25476	79.9835
3.25272	79.9349
3.25068	79.9921
3.24864	79.9979
3.24661	79.9409
3.24458	79.9062
3.24255	79.8654
3.24052	79.8281
3.2385	79.814
3.23648	79.781
3.23446	79.7767
3.23244	79.6934
3.23043	79.6666
3.22841	79.6153
3.2264	79.548
3.2244	79.5356
3.22239	79.4963
3.22039	79.4485
3.21839	79.3265
3.2164	79.1882
3.2144	79.1615
3.21241	79.2186
3.21042	79.1525
3.20844	79.0496
3.20645	79.0654
3.20447	79.1171
3.20249	79.0289
3.20051	78.895
3.19854	78.8108
3.19657	78.6943
3.1946	78.6602
3.19263	78.6462
3.19067	78.6102
3.1887	78.6053
3.18674	78.5988
3.18479	78.5233
3.18283	78.4463
3.18088	78.3972
3.17893	78.3899
3.17698	78.4428
3.17504	78.4084
3.17309	78.2882
3.17115	78.2285
3.16921	78.2179
3.16728	78.1361
3.16534	78.0157
3.16341	78.0018
3.16148	77.9694
3.15956	77.8854
3.15763	77.8667
3.15571	77.8883
3.15379	77.8358
3.15187	77.6922
3.14996	77.7055
3.14805	77.7647
3.14614	77.6649
3.14423	77.5312
3.14232	77.5436
3.14042	77.492
3.13852	77.4667
3.13662	77.5112
3.13472	77.4857
3.13283	77.401
3.13094	77.4009
3.12905	77.3564
3.12716	77.4372
3.12528	77.3758
3.12339	77.2283
3.12151	77.1936
3.11964	77.1644
3.11776	77.187
3.11589	77.2042
3.11401	77.1873
3.11214	77.1551
3.11028	77.0733
3.10841	77.0866
3.10655	77.1336
3.10469	77.1009
3.10283	76.9918
3.10098	76.9357
3.09912	76.9482
3.09727	76.9406
3.09542	76.899
3.09358	76.7699
3.09173	76.7837
3.08989	76.8323
3.08805	76.8415
3.08621	76.7652
3.08437	76.6324
3.08254	76.6094
3.08071	76.7402
3.07888	76.7134
3.07705	76.6818
3.07523	76.7033
3.0734	76.7633
3.07158	76.7556
3.06977	76.6526
3.06795	76.5898
3.06613	76.5988
3.06432	76.5434
3.06251	76.4547
3.0607	76.3682
3.0589	76.3085
3.0571	76.323
3.05529	76.2916
3.05349	76.2405
3.0517	76.1214
3.0499	76.1488
3.04811	76.1718
3.04632	76.1124
3.04453	76.2034
3.04274	76.2344
3.04096	76.1506
3.03918	76.0029
3.0374	75.9285
3.03562	76.0025
3.03384	76.0265
3.03207	75.9577
3.03029	75.8015
3.02852	75.655
3.02676	75.6502
3.02499	75.6467
3.02323	75.5472
3.02146	75.4531
3.0197	75.5343
3.01795	75.518
3.01619	75.4427
3.01444	75.4598
3.01269	75.4366
3.01094	75.2787
3.00919	75.1636
3.00744	75.1839
3.0057	75.1846
3.00396	75.1032
3.00222	75.03
3.00048	74.9935
2.99875	74.9276
2.99701	74.9789
2.99528	74.9218
2.99355	74.8124
2.99183	74.782
2.9901	74.6385
2.98838	74.5424
2.98666	74.6267
2.98494	74.4556
2.98322	74.3327
2.9815	74.3305
2.97979	74.2407
2.97808	74.2291
2.97637	74.2056
2.97466	74.0733
2.97295	73.8538
2.97125	73.7766
2.96955	73.7235
2.96785	73.715
2.96615	73.6269
2.96446	73.3368
2.96276	73.2348
2.96107	73.2266
2.95938	73.2395
2.95769	73.1711
2.95601	73.1132
2.95432	73.0881
2.95264	73.0344
2.95096	73.0327
2.94928	73.1134
2.9476	73.2882
2.94593	73.3008
2.94425	73.3311
2.94258	73.5062
2.94092	73.5967
2.93925	73.6489
2.93758	73.8656
2.93592	73.9456
2.93426	74.0046
2.9326	74.0469
2.93094	74.0826
2.92928	74.1868
2.92763	74.3136
2.92598	74.4345
2.92433	74.503
2.92268	74.5573
2.92103	74.6403
2.91939	74.7028
2.91775	74.7217
2.9161	74.7675
2.91447	74.9918
2.91283	75.1132
2.91119	75.0825
2.90956	75.0943
2.90793	75.1253
2.9063	75.2178
2.90467	75.3296
2.90304	75.4381
2.90142	75.5695
2.89979	75.6174
2.89817	75.5668
2.89656	75.5392
2.89494	75.5442
2.89332	75.5984
2.89171	75.7054
2.8901	75.7548
2.88849	75.828
2.88688	75.8789
2.88527	75.6922
2.88367	75.5148
2.88206	75.5667
2.88046	75.5812
2.87886	75.6848
2.87727	75.7151
2.87567	75.6132
2.87408	75.5533
2.87248	75.5281
2.87089	75.5686
2.8693	75.4944
2.86772	75.4561
2.86613	75.4496
2.86455	75.4339
2.86297	75.3545
2.86139	75.2396
2.85981	75.1704
2.85823	75.1457
2.85666	75.1551
2.85508	75.2777
2.85351	75.3368
2.85194	75.4343
2.85038	75.673
2.84881	75.708
2.84724	75.7581
2.84568	75.9945
2.84412	76.2354
2.84256	76.4248
2.841	76.5378
2.83945	76.6822
2.83789	77.0019
2.83634	77.1971
2.83479	77.3869
2.83324	77.4846
2.83169	77.6016
2.83015	77.8619
2.82861	78.3294
2.82706	78.6829
2.82552	78.944
2.82398	79.3744
2.82245	79.8775
2.82091	80.4372
2.81938	80.8027
2.81784	80.8748
2.81631	81.2203
2.81479	81.5637
2.81326	81.552
2.81173	81.6587
2.81021	81.9788
2.80869	82.218
2.80716	82.436
2.80565	82.9177
2.80413	83.7922
2.80261	84.1467
2.8011	83.7018
2.79959	83.5059
2.79808	83.7018
2.79657	83.8784
2.79506	84.0808
2.79355	84.373
2.79205	84.6698
2.79055	85.0082
2.78904	85.6944
2.78754	86.5428
2.78605	86.3768
2.78455	85.9192
2.78306	86.2573
2.78156	86.5858
2.78007	86.5801
2.77858	86.6511
2.77709	86.9316
2.77561	87.0696
2.77412	87.3258
2.77264	87.8487
2.77116	88.4916
2.76968	88.4456
2.7682	88.5161
2.76672	88.5507
2.76524	88.6016
2.76377	89.1708
2.7623	89.2939
2.76083	88.7031
2.75936	88.6591
2.75789	89.254
2.75642	91.0443
2.75496	91.6474
2.7535	89.9781
2.75203	89.5819
2.75057	89.5054
2.74912	89.4244
2.74766	89.5164
2.7462	89.7099
2.74475	89.8684
2.7433	90.4569
2.74185	91.8193
2.7404	92.8997
2.73895	92.4574
2.7375	91.0425
2.73606	91.2349
2.73462	91.76
2.73318	90.9908
2.73174	90.6484
2.7303	90.7853
2.72886	90.9968
2.72742	91.3093
2.72599	92.4455
2.72456	93.592
2.72313	92.9336
2.7217	93.5661
2.72027	94.6008
2.71884	92.9748
2.71742	92.1924
2.71599	91.9274
2.71457	91.8408
2.71315	92.1279
2.71173	93.7124
2.71032	94.3795
2.7089	93.5674
2.70748	92.6974
2.70607	92.3096
2.70466	92.2169
2.70325	92.4692
2.70184	93.1432
2.70043	93.0191
2.69903	92.6669
2.69762	93.0383
2.69622	93.7688
2.69482	94.5767
2.69342	94.6205
2.69202	93.5595
2.69062	93.2192
2.68923	93.4039
2.68783	93.6549
2.68644	93.8639
2.68505	93.8912
2.68366	94.0141
2.68227	93.6778
2.68089	93.8667
2.6795	95.1609
2.67812	95.5334
2.67673	95.7703
2.67535	94.9699
2.67397	94.0821
2.6726	94.2687
2.67122	96.6355
2.66984	96.9967
2.66847	95.4745
2.6671	96.6182
2.66572	96.9066
2.66435	95.7584
2.66299	94.3106
2.66162	94.333
2.66025	94.4404
2.65889	94.1133
2.65753	93.5946
2.65616	94.0222
2.65481	94.0288
2.65345	94.2535
2.65209	94.4458
2.65073	93.8246
2.64938	93.4358
2.64803	93.5718
2.64667	94.0895
2.64532	94.3053
2.64397	93.8193
2.64263	93.803
2.64128	93.6744
2.63994	93.4611
2.63859	93.3312
2.63725	93.5273
2.63591	93.7578
2.63457	94.34
2.63323	94.3767
2.6319	94.897
2.63056	96.2587
2.62923	95.2134
2.62789	94.6771
2.62656	95.3072
2.62523	94.2808
2.6239	93.7369
2.62258	93.8968
2.62125	95.2326
2.61993	95.6682
2.6186	94.9942
2.61728	96.0139
2.61596	95.4257
2.61464	94.1167
2.61332	94.2817
2.61201	94.2075
2.61069	94.364
2.60938	94.6451
2.60807	94.8613
2.60675	95.7307
2.60544	96.4282
2.60414	95.5706
2.60283	94.795
2.60152	94.4607
2.60022	93.9367
2.59891	93.7843
2.59761	94.4457
2.59631	96.4197
2.59501	98.8703
2.59371	97.0322
2.59242	94.6774
2.59112	94.2068
2.58983	94.5782
2.58853	95.0113
2.58724	95.3067
2.58595	94.8974
2.58466	95.6079
2.58338	95.6819
2.58209	94.6922
2.5808	94.6445
2.57952	94.1696
2.57824	94.4043
2.57695	94.9926
2.57567	94.6024
2.5744	94.9273
2.57312	95.3056
2.57184	94.2323
2.57057	94.5019
2.56929	94.8767
2.56802	94.2495
2.56675	94.0015
2.56548	94.5783
2.56421	95.3012
2.56294	95.4621
2.56168	95.5072
2.56041	94.97
2.55915	94.1407
2.55789	93.8655
2.55662	93.8709
2.55536	93.8117
2.5541	94.0491
2.55285	94.4864
2.55159	94.4009
2.55034	94.2011
2.54908	94.1603
2.54783	94.3099
2.54658	94.1265
2.54533	93.9845
2.54408	94.0641
2.54283	94.2208
2.54159	94.1121
2.54034	93.9415
2.5391	93.841
2.53785	93.9082
2.53661	94.1199
2.53537	93.9527
2.53413	93.832
2.53289	93.9833
2.53166	94.0668
2.53042	93.9876
2.52919	93.8872
2.52795	93.8691
2.52672	93.8809
2.52549	93.8945
2.52426	93.9747
2.52303	93.9743
2.52181	93.8473
2.52058	93.871
2.51936	93.8676
2.51813	93.8037
2.51691	93.8582
2.51569	93.9253
2.51447	93.9253
2.51325	93.8969
2.51203	93.8426
2.51082	93.8775
2.5096	93.9624
2.50839	93.9192
2.50717	93.9059
2.50596	93.8676
2.50475	93.8396
2.50354	93.8677
2.50233	93.9467
2.50113	94.0837
2.49992	94.0997
2.49872	94.0045
2.49751	93.9351
2.49631	93.9171
2.49511	93.9524
2.49391	93.9804
2.49271	93.943
2.49151	93.8869
2.49031	93.9594
2.48912	93.9828
2.48792	93.9263
2.48673	93.9473
2.48554	93.9947
2.48435	93.9307
2.48316	93.8895
2.48197	94.0361
2.48078	94.0622
2.4796	93.9834
2.47841	93.9969
2.47723	94.0594
2.47604	94.0277
2.47486	94.0248
2.47368	94.0626
2.4725	94.0826
2.47132	93.9534
2.47014	93.9257
2.46897	94.0338
2.46779	94.0692
2.46662	94.1628
2.46545	94.1026
2.46427	94.0059
2.4631	93.9908
2.46193	94.054
2.46077	94.0961
2.4596	94.0975
2.45843	94.2049
2.45727	94.1792
2.4561	94.0736
2.45494	94.0735
2.45378	94.0677
2.45262	94.0456
2.45146	94.1088
2.4503	94.171
2.44914	94.1776
2.44799	94.2128
2.44683	94.156
2.44568	94.1698
2.44452	94.1264
2.44337	94.1798
2.44222	94.2626
2.44107	94.3328
2.43992	94.2644
2.43877	94.2141
2.43763	94.1496
2.43648	94.1732
2.43534	94.1643
2.43419	94.1071
2.43305	94.2106
2.43191	94.2338
2.43077	94.2053
2.42963	94.1685
2.42849	94.0903
2.42736	94.1653
2.42622	94.2639
2.42509	94.2875
2.42395	94.3054
2.42282	94.2944
2.42169	94.2744
2.42056	94.2696
2.41943	94.264
2.4183	94.2922
2.41717	94.3179
2.41605	94.2806
2.41492	94.2156
2.4138	94.206
2.41267	94.1717
2.41155	94.1197
2.41043	94.1679
2.40931	94.1468
2.40819	94.1675
2.40707	94.3074
2.40595	94.3549
2.40484	94.4302
2.40372	94.442
2.40261	94.3664
2.4015	94.303
2.40039	94.2947
2.39928	94.3624
2.39817	94.4928
2.39706	94.5048
2.39595	94.4593
2.39484	94.3833
2.39374	94.3721
2.39263	94.2706
2.39153	94.3538
2.39043	94.5369
2.38932	94.5844
2.38822	94.3841
2.38712	94.2742
2.38603	94.3709
2.38493	94.4159
2.38383	94.4582
2.38274	94.3923
2.38164	94.4177
2.38055	94.4866
2.37946	94.4539
2.37836	94.4542
2.37727	94.4154
2.37618	94.4037
2.3751	94.358
2.37401	94.4249
2.37292	94.4708
2.37184	94.4543
2.37075	94.4456
2.36967	94.518
2.36859	94.5771
2.3675	94.4515
2.36642	94.353
2.36534	94.4514
2.36427	94.5327
2.36319	94.5057
2.36211	94.4527
2.36104	94.4592
2.35996	94.5745
2.35889	94.5979
2.35781	94.6322
2.35674	94.6187
2.35567	94.4911
2.3546	94.3966
2.35353	94.3707
2.35247	94.4334
2.3514	94.4502
2.35033	94.5392
2.34927	94.4461
2.3482	94.3346
2.34714	94.2786
2.34608	94.305
2.34502	94.4073
2.34396	94.2871
2.3429	94.1645
2.34184	94.2447
2.34078	94.3232
2.33973	94.2749
2.33867	94.3071
2.33762	94.3253
2.33656	94.358
2.33551	94.3674
2.33446	94.3153
2.33341	94.3648
2.33236	94.359
2.33131	94.2492
2.33026	94.2177
2.32922	94.2852
2.32817	94.3925
2.32712	94.3644
2.32608	94.3073
2.32504	94.3427
2.324	94.327
2.32295	94.2386
2.32191	94.2697
2.32087	94.3733
2.31984	94.4434
2.3188	94.3823
2.31776	94.37
2.31673	94.4694
2.31569	94.4907
2.31466	94.4665
2.31362	94.4786
2.31259	94.5257
2.31156	94.5911
2.31053	94.54
2.3095	94.4474
2.30847	94.4163
2.30745	94.4986
2.30642	94.6207
2.3054	94.6152
2.30437	94.5176
2.30335	94.4462
2.30232	94.3744
2.3013	94.3825
2.30028	94.5229
2.29926	94.6632
2.29824	94.5881
2.29722	94.5792
2.29621	94.5508
2.29519	94.4566
2.29417	94.5532
2.29316	94.5156
2.29215	94.4268
2.29113	94.4512
2.29012	94.5785
2.28911	94.6611
2.2881	94.591
2.28709	94.5995
2.28608	94.6602
2.28507	94.557
2.28407	94.604
2.28306	94.6896
2.28206	94.6499
2.28105	94.5281
2.28005	94.5712
2.27905	94.578
2.27805	94.6333
2.27705	94.6207
2.27605	94.5042
2.27505	94.4579
2.27405	94.4932
2.27305	94.5255
2.27206	94.5684
2.27106	94.603
2.27007	94.5529
2.26907	94.5654
2.26808	94.5105
2.26709	94.3807
2.2661	94.4425
2.26511	94.5027
2.26412	94.5207
2.26313	94.5321
2.26214	94.625
2.26116	94.637
2.26017	94.576
2.25919	94.6351
2.2582	94.632
2.25722	94.5595
2.25624	94.6367
2.25526	94.6265
2.25428	94.5261
2.2533	94.6783
2.25232	94.8548
2.25134	94.9276
2.25036	94.921
2.24939	94.7439
2.24841	94.6928
2.24744	94.8162
2.24646	94.857
2.24549	94.87
2.24452	94.8396
2.24355	94.7544
2.24257	94.8415
2.24161	94.8625
2.24064	94.8049
2.23967	94.7799
2.2387	94.9316
2.23774	95.0146
2.23677	94.9447
2.23581	94.8361
2.23484	94.8371
2.23388	94.8647
2.23292	94.8723
2.23196	94.904
2.231	94.9541
2.23004	95.0117
2.22908	94.9758
2.22812	94.8309
2.22716	94.768
2.22621	94.9373
2.22525	95.0778
2.2243	95.0606
2.22334	94.9667
2.22239	94.8578
2.22144	95.0001
2.22049	95.0444
2.21953	94.9139
2.21859	94.8468
2.21764	95.0115
2.21669	95.1586
2.21574	95.111
2.21479	94.9878
2.21385	94.8871
2.2129	94.8767
2.21196	95.0082
2.21102	95.1107
2.21007	95.0973
2.20913	95.0897
2.20819	95.0331
2.20725	95.0678
2.20631	95.021
2.20537	94.9968
2.20444	95.0734
2.2035	95.0799
2.20256	95.0969
2.20163	95.0688
2.20069	95.0409
2.19976	94.9148
2.19883	94.9333
2.19789	94.9328
2.19696	95.0594
2.19603	95.229
2.1951	95.0819
2.19417	94.9087
2.19325	94.9431
2.19232	94.9328
2.19139	94.9254
2.19047	94.9375
2.18954	95.0026
2.18862	95.0629
2.18769	95.0185
2.18677	95.0089
2.18585	95.0105
2.18493	94.9538
2.18401	94.8829
2.18309	94.9391
2.18217	95.2026
2.18125	95.2905
2.18033	95.1108
2.17942	95.0759
2.1785	94.9793
2.17759	94.9709
2.17667	94.977
2.17576	95.0774
2.17485	95.1875
2.17393	95.1349
2.17302	95.0405
2.17211	94.9451
2.1712	94.9362
2.17029	95.0888
2.16939	95.1529
2.16848	95.0391
2.16757	94.9066
2.16667	94.9546
2.16576	95.103
2.16486	95.1844
2.16395	95.1281
2.16305	95.1152
2.16215	95.2371
2.16125	95.1993
2.16035	94.9299
2.15945	94.9036
2.15855	95.0955
2.15765	95.1949
2.15675	95.1852
2.15586	95.2066
2.15496	95.2021
2.15406	95.0919
2.15317	95.013
2.15228	94.977
2.15138	94.9805
2.15049	95.1241
2.1496	95.3102
2.14871	95.2803
2.14782	95.2331
2.14693	95.1142
2.14604	95.1654
2.14515	95.2435
2.14427	94.9839
2.14338	94.9192
2.14249	95.0253
2.14161	95.1653
2.14072	95.2234
2.13984	95.075
2.13896	94.957
2.13808	95.0558
2.13719	95.1403
2.13631	95.2241
2.13543	95.2297
2.13455	95.1924
2.13368	95.2092
2.1328	95.1538
2.13192	95.0351
2.13105	95.0962
2.13017	95.1957
2.1293	95.2402
2.12842	95.1989
2.12755	95.0966
2.12668	95.0792
2.1258	95.1306
2.12493	95.1936
2.12406	95.2418
2.12319	95.146
2.12232	95.0286
2.12145	95.0624
2.12059	95.2039
2.11972	95.2085
2.11885	95.2183
2.11799	95.2081
2.11712	95.2473
2.11626	95.3131
2.1154	95.2043
2.11453	95.0533
2.11367	95.1259
2.11281	95.2905
2.11195	95.2268
2.11109	95.1336
2.11023	95.0893
2.10937	95.1231
2.10851	95.1
2.10766	95.0112
2.1068	95.2177
2.10594	95.3281
2.10509	95.2487
2.10423	95.2887
2.10338	95.1522
2.10253	95.0381
2.10168	95.1233
2.10082	95.0299
2.09997	95.0742
2.09912	95.237
2.09827	95.1671
2.09742	95.2217
2.09658	95.2907
2.09573	95.2415
2.09488	95.2154
2.09404	95.3039
2.09319	95.4918
2.09235	95.4422
2.0915	95.1968
2.09066	95.1078
2.08982	95.068
2.08897	95.1061
2.08813	95.0205
2.08729	95.0764
2.08645	95.1743
2.08561	94.9886
2.08477	94.9597
2.08394	95.1043
2.0831	95.2713
2.08226	95.225
2.08143	95.3946
2.08059	95.3205
2.07976	94.95
2.07892	94.9508
2.07809	95.2334
2.07726	95.2608
2.07643	95.2802
2.07559	95.6004
2.07476	95.5887
2.07393	95.27
2.0731	95.4545
2.07228	95.5602
2.07145	95.3292
2.07062	94.9773
2.06979	94.8499
2.06897	94.9029
2.06814	95.0407
2.06732	95.3255
2.06649	95.2084
2.06567	94.9887
2.06485	94.9902
2.06403	95.0947
2.0632	95.0235
2.06238	95.1252
2.06156	95.3069
2.06074	95.2438
2.05993	95.1504
2.05911	95.2496
2.05829	95.2326
2.05747	95.0193
2.05666	95.0897
2.05584	95.2817
2.05503	95.1233
2.05421	95.0818
2.0534	95.2796
2.05259	95.4448
2.05177	95.4808
2.05096	95.3708
2.05015	95.2165
2.04934	95.1734
2.04853	95.165
2.04772	95.1015
2.04691	95.1795
2.04611	95.2621
2.0453	95.2964
2.04449	95.1815
2.04369	95.1192
2.04288	95.1347
2.04208	95.2449
2.04127	95.4569
2.04047	95.4208
2.03967	95.2613
2.03886	95.1228
2.03806	95.1632
2.03726	95.2106
2.03646	95.18
2.03566	95.0849
2.03486	95.0054
2.03407	95.0195
2.03327	95.102
2.03247	95.2626
2.03167	95.3579
2.03088	95.1359
2.03008	95.0974
2.02929	95.1943
2.0285	95.1037
2.0277	95.1991
2.02691	95.3999
2.02612	95.3601
2.02533	95.2817
2.02453	95.2973
2.02374	95.346
2.02295	95.2216
2.02217	95.2598
2.02138	95.2085
2.02059	95.0416
2.0198	95.0928
2.01902	95.0994
2.01823	95.1175
2.01744	95.2494
2.01666	95.2862
2.01588	95.1688
2.01509	95.0886
2.01431	95.2033
2.01353	95.2284
2.01275	95.2084
2.01196	95.1414
2.01118	94.9267
2.0104	94.9255
2.00963	95.1659
2.00885	95.2949
2.00807	95.2236
2.00729	95.2015
2.00651	95.3379
2.00574	95.3111
2.00496	95.2151
2.00419	95.3135
2.00341	95.3438
2.00264	95.2812
2.00187	95.237
2.00109	95.3151
2.00032	95.3457
