Name: Aphthitalite (K,Na)_3Na(SO_4)_2
Type: Mineral
Class: Sulfates
Subclass: 
Particle Size: 0-45um
Sample No.: SO-9A
Owner: JPL
Wavelength range: IR
Origin: USA, California, San Bernadino County, Searles Lake
Collected by Burminco
Description: 





Measurement: Hemispherical reflectance
First Column: X
Second Column: Y
X Units:  Wavelength (micrometers)
Y Units:  Reflectance (percent)
First X Value: 15.3853
Last X Value: 2.00032
Number of X Values: 2256
Additional information: so09aa.txt
 
15.3853	15.8846
15.3397	16.9731
15.2945	18.1162
15.2495	19.1678
15.2048	20.0202
15.1603	20.4656
15.1161	20.8661
15.0722	21.3253
15.0285	21.4216
14.9851	21.4062
14.9419	21.8345
14.8989	22.195
14.8563	22.2059
14.8138	22.3943
14.7716	22.7
14.7296	22.8487
14.6879	22.9636
14.6464	23.1428
14.6052	23.3741
14.5641	23.8324
14.5233	24.3864
14.4828	25.1201
14.4424	25.8847
14.4023	26.5179
14.3624	27.2392
14.3227	27.8675
14.2833	28.2455
14.244	28.406
14.205	28.5617
14.1662	28.8941
14.1276	29.2272
14.0892	29.5617
14.051	29.8082
14.0131	29.9297
13.9753	29.9673
13.9377	29.9346
13.9004	30.0573
13.8632	30.1848
13.8262	29.9857
13.7895	29.8567
13.7529	29.9433
13.7165	29.9719
13.6803	29.8231
13.6443	29.7844
13.6085	29.9917
13.5729	30.4378
13.5374	30.8822
13.5022	31.302
13.4671	31.7799
13.4322	32.2208
13.3975	32.5438
13.363	32.8501
13.3286	32.9733
13.2944	32.9466
13.2604	32.8019
13.2266	32.4332
13.193	32.0792
13.1595	31.8462
13.1262	31.4842
13.093	30.7797
13.06	29.8835
13.0272	29.1867
12.9946	29.012
12.9621	29.9415
12.9298	31.2203
12.8976	31.8384
12.8656	32.2619
12.8337	32.5879
12.8021	32.6608
12.7705	32.9117
12.7391	33.2067
12.7079	33.2625
12.6769	33.2021
12.6459	33.4479
12.6152	34.0335
12.5845	34.7976
12.5541	35.6128
12.5238	36.4227
12.4936	37.2193
12.4635	38.0909
12.4337	38.6381
12.4039	38.8485
12.3743	38.9191
12.3448	39.0004
12.3155	38.9706
12.2863	38.8357
12.2573	38.78
12.2284	38.8272
12.1996	38.7448
12.171	38.5705
12.1425	38.4113
12.1141	38.2993
12.0859	37.9837
12.0578	37.6083
12.0298	37.4372
12.0019	37.5645
11.9742	37.6819
11.9466	37.7188
11.9192	37.723
11.8918	37.5267
11.8646	37.2296
11.8375	36.9847
11.8106	36.732
11.7837	36.7317
11.757	37.1913
11.7304	37.9865
11.7039	38.7142
11.6776	39.1398
11.6513	39.1963
11.6252	38.9476
11.5992	38.5961
11.5733	38.2354
11.5475	37.789
11.5219	37.3399
11.4963	36.7668
11.4709	35.9693
11.4455	34.7029
11.4203	33.5074
11.3952	33.3589
11.3702	33.7995
11.3454	34.1041
11.3206	34.7974
11.2959	35.874
11.2714	36.575
11.2469	36.9012
11.2226	37.0002
11.1983	36.9877
11.1742	36.7873
11.1502	36.536
11.1263	36.4856
11.1024	36.5291
11.0787	36.5241
11.0551	36.5862
11.0316	36.5151
11.0081	36.2159
10.9848	35.9352
10.9616	35.6524
10.9385	35.16
10.9154	34.6897
10.8925	34.3545
10.8697	33.9117
10.8469	33.292
10.8243	32.7819
10.8017	32.4613
10.7793	32.2315
10.7569	32.0302
10.7346	31.8653
10.7125	31.628
10.6904	31.454
10.6684	31.2139
10.6465	30.8887
10.6247	30.5975
10.6029	30.2791
10.5813	29.8292
10.5597	29.3836
10.5383	28.9212
10.5169	28.1623
10.4956	27.2003
10.4744	26.141
10.4533	25.6216
10.4323	25.6036
10.4113	25.302
10.3904	24.6553
10.3697	23.8438
10.349	23.0058
10.3284	22.0285
10.3078	20.5741
10.2874	18.9053
10.267	18.1249
10.2467	17.9716
10.2265	17.3047
10.2064	16.0317
10.1863	14.479
10.1663	12.7917
10.1464	10.7786
10.1266	8.55546
10.1069	6.68696
10.0872	5.91268
10.0676	6.75365
10.0481	8.62662
10.0287	10.6508
10.0093	12.2395
9.99005	13.1576
9.97084	13.7462
9.95169	14.163
9.93263	14.4145
9.91364	14.4646
9.89472	14.3781
9.87587	14.2817
9.8571	14.098
9.83839	13.8726
9.81976	13.8068
9.80119	13.6642
9.78271	13.3778
9.76428	13.0573
9.74592	12.84
9.72764	12.7024
9.70943	12.4779
9.69128	12.1614
9.6732	11.9217
9.65518	11.6482
9.63724	11.4056
9.61935	11.1532
9.60155	10.6677
9.5838	10.2689
9.56611	10.0453
9.5485	9.70789
9.53094	9.40441
9.51345	9.10623
9.49604	8.87224
9.47867	8.57219
9.46137	8.19606
9.44414	7.85858
9.42697	7.52173
9.40986	7.23669
9.39281	6.95316
9.37583	6.46414
9.35891	6.12347
9.34204	5.9944
9.32524	5.71454
9.3085	5.38233
9.29182	5.26495
9.27519	5.2393
9.25863	5.27882
9.24213	5.39574
9.22568	5.58933
9.2093	5.74725
9.19297	6.06902
9.17669	6.53563
9.16048	7.08754
9.14433	7.69095
9.12823	8.31698
9.11218	8.87137
9.0962	9.33815
9.08027	9.50208
9.06439	9.57828
9.04858	9.60048
9.03281	9.46173
9.0171	9.53082
9.00145	9.72603
8.98585	9.73677
8.9703	9.95156
8.9548	10.0798
8.93937	10.0448
8.92398	10.006
8.90865	10.2092
8.89337	10.3259
8.87814	10.2643
8.86296	10.2024
8.84784	10.2188
8.83277	10.4016
8.81774	10.641
8.80277	10.8202
8.78786	10.9221
8.77298	10.9173
8.75816	11.0467
8.7434	11.3778
8.72868	11.4779
8.714	11.3836
8.69938	11.4337
8.68481	11.3961
8.67029	11.2961
8.65581	11.1629
8.64139	10.9994
8.62701	10.9183
8.61268	10.6998
8.5984	10.4087
8.58416	9.87322
8.56997	9.19448
8.55583	8.52001
8.54174	7.97397
8.52769	7.60314
8.51368	7.29098
8.49973	7.06488
8.48582	6.87292
8.47195	6.74229
8.45813	6.65994
8.44436	6.57472
8.43062	6.48021
8.41693	6.48686
8.4033	6.54736
8.3897	6.6862
8.37614	6.91729
8.36264	7.00691
8.34917	7.09581
8.33574	7.24958
8.32236	7.53462
8.30903	7.90925
8.29573	8.23929
8.28248	8.69952
8.26927	9.18359
8.2561	9.32719
8.24298	9.49693
8.2299	9.89841
8.21685	10.3043
8.20385	10.6844
8.19089	11.0285
8.17797	11.5087
8.16509	12.0335
8.15225	12.4829
8.13946	12.6409
8.1267	12.6778
8.11398	12.4944
8.10131	12.0555
8.08867	11.5973
8.07606	11.1936
8.0635	11.0159
8.05099	11.0697
8.0385	11.1993
8.02606	11.3604
8.01366	11.5049
8.00129	11.6621
7.98896	11.7689
7.97667	11.7748
7.96442	11.613
7.9522	11.7777
7.94002	12.5199
7.92788	13.3774
7.91578	14.0539
7.90371	14.5813
7.89168	15.0653
7.87969	15.5767
7.86773	16.0106
7.85581	16.4466
7.84392	16.8822
7.83207	17.2917
7.82026	17.6116
7.80849	18.0036
7.79674	18.4786
7.78503	18.9404
7.77337	19.3707
7.76173	19.7714
7.75012	20.2455
7.73856	20.7683
7.72703	21.2913
7.71553	21.7294
7.70406	22.0722
7.69263	22.4294
7.68123	22.8292
7.66987	23.2997
7.65855	23.7523
7.64725	24.1902
7.63598	24.5518
7.62475	24.8905
7.61356	25.235
7.60239	25.5976
7.59126	25.9143
7.58017	26.1418
7.5691	26.3767
7.55806	26.7127
7.54707	27.0205
7.5361	27.2231
7.52516	27.4056
7.51425	27.5241
7.50338	27.6597
7.49253	27.7536
7.48172	27.7438
7.47094	27.7557
7.46019	27.7816
7.44947	27.7651
7.43879	27.7135
7.42813	27.6065
7.4175	27.4872
7.4069	27.2916
7.39634	27.1525
7.3858	27.144
7.37529	27.1664
7.36482	27.2099
7.35437	27.2406
7.34396	27.1029
7.33357	26.6425
7.32321	26.2083
7.31288	26.3038
7.30258	26.7537
7.29231	27.2388
7.28207	27.7418
7.27185	28.2205
7.26167	28.7043
7.25152	29.2684
7.24139	29.6396
7.23129	29.8465
7.22122	30.0281
7.21117	30.2187
7.20116	30.1824
7.19117	30.0328
7.18121	30.0144
7.17128	30.0495
7.16137	29.8543
7.1515	29.535
7.14164	29.132
7.13182	28.7791
7.12203	28.4739
7.11225	28.0749
7.10251	27.6197
7.0928	27.1341
7.08311	26.5741
7.07344	26.0506
7.06381	25.8932
7.0542	25.9407
7.04461	25.776
7.03506	25.1784
7.02552	24.8136
7.01601	24.6265
7.00653	24.422
6.99708	24.3839
6.98765	24.3871
6.97824	24.3565
6.96886	24.4784
6.95951	24.6241
6.95018	24.4005
6.94087	24.44
6.9316	24.7226
6.92234	25.0265
6.91311	25.5133
6.90391	26.0276
6.89473	26.3459
6.88557	26.7252
6.87644	27.2967
6.86733	28.0917
6.85824	28.3432
6.84918	28.1289
6.84015	28.2831
6.83114	28.7849
6.82215	29.2183
6.81319	29.5607
6.80424	30.1808
6.79532	31.082
6.78643	31.777
6.77756	32.2727
6.76871	32.834
6.75989	33.2782
6.75109	33.9321
6.74231	34.5783
6.73355	35.2234
6.72482	36.0255
6.71611	36.9276
6.70742	37.7236
6.69875	38.3438
6.69011	39.2958
6.68149	40.4049
6.67289	41.0205
6.66431	41.4346
6.65576	41.9083
6.64722	42.8692
6.63871	43.9191
6.63022	43.7677
6.62175	43.2983
6.61331	43.2387
6.60488	43.1432
6.59648	43.1646
6.5881	42.8041
6.57974	42.3105
6.5714	41.6103
6.56308	40.0847
6.55478	38.5291
6.54651	36.77
6.53825	35.1258
6.53001	34.2038
6.5218	33.9419
6.51361	33.5573
6.50544	33.4173
6.49729	33.6826
6.48915	33.4579
6.48104	33.0706
6.47295	33.0688
6.46488	33.3377
6.45683	33.7615
6.4488	33.9877
6.44079	33.9052
6.4328	33.7462
6.42482	33.5219
6.41687	33.5452
6.40894	32.433
6.40103	30.732
6.39314	29.6997
6.38526	28.9022
6.37741	28.213
6.36957	27.4746
6.36176	26.3733
6.35396	25.5723
6.34618	25.2149
6.33843	24.3677
6.33069	23.3503
6.32297	22.7303
6.31527	22.2187
6.30758	21.8019
6.29992	21.4187
6.29227	21.2165
6.28465	21.1408
6.27704	21.1138
6.26945	21.1172
6.26188	21.2134
6.25432	21.2719
6.24679	21.2878
6.23927	21.0899
6.23177	20.6886
6.22429	20.2665
6.21683	20.2086
6.20938	20.7211
6.20195	21.5043
6.19454	22.2512
6.18715	22.9824
6.17978	23.178
6.17242	23.4832
6.16508	24.4984
6.15776	25.6739
6.15045	26.4014
6.14317	27.0391
6.1359	27.5314
6.12864	28.0051
6.12141	28.7787
6.11419	29.6645
6.10699	30.0855
6.0998	30.5323
6.09263	31.1692
6.08549	32.0377
6.07835	33.2011
6.07123	34.218
6.06413	34.8171
6.05705	36.097
6.04998	38.1374
6.04293	38.7978
6.0359	39.0808
6.02888	40.0366
6.02187	41.1514
6.01489	42.2341
6.00792	42.858
6.00096	43.4178
5.99403	44.2203
5.98711	44.6943
5.9802	44.6926
5.97331	45.0145
5.96644	45.2236
5.95958	44.9616
5.95274	45.0115
5.94591	45.3285
5.9391	46.2507
5.9323	46.2262
5.92552	45.6616
5.91876	45.7067
5.91201	45.8626
5.90528	46.335
5.89856	47.1539
5.89186	47.17
5.88517	47.5159
5.8785	47.6898
5.87184	46.9973
5.8652	47.1426
5.85857	47.2345
5.85196	47.2166
5.84536	47.2892
5.83878	47.5524
5.83221	48.0469
5.82566	48.751
5.81912	48.8961
5.81259	48.4398
5.80608	48.392
5.79959	48.7079
5.79311	48.9513
5.78665	49.3148
5.78019	49.7211
5.77376	50.3281
5.76734	51.1119
5.76093	50.922
5.75453	50.7748
5.74815	51.203
5.74179	51.2541
5.73543	51.4115
5.7291	51.5673
5.72277	51.7723
5.71646	52.0162
5.71017	52.1385
5.70389	51.7089
5.69762	51.3175
5.69136	50.9588
5.68513	50.378
5.6789	50.0763
5.67268	49.9254
5.66648	49.718
5.6603	50.155
5.65413	50.8241
5.64797	51.5617
5.64182	52.4405
5.63569	52.7194
5.62957	52.8378
5.62347	53.0802
5.61737	53.4275
5.61129	53.6443
5.60522	53.8094
5.59917	53.9625
5.59313	54.0003
5.5871	54.2933
5.58109	54.689
5.57509	54.6357
5.5691	54.2581
5.56312	54.2027
5.55716	54.2888
5.55121	54.2542
5.54528	54.1737
5.53935	54.205
5.53344	54.2198
5.52754	54.2771
5.52166	54.3936
5.51578	54.4783
5.50992	54.5754
5.50407	54.7976
5.49823	54.9995
5.49241	55.2906
5.4866	55.6469
5.4808	56.0452
5.47501	56.226
5.46923	56.5008
5.46347	56.8371
5.45772	56.9287
5.45198	57.113
5.44625	57.3965
5.44054	57.5564
5.43484	57.6203
5.42914	57.8407
5.42347	58.2876
5.4178	58.322
5.41214	58.1999
5.4065	58.19
5.40087	58.2677
5.39525	58.3781
5.38964	58.4668
5.38404	58.5914
5.37846	58.7193
5.37288	58.8375
5.36732	58.9647
5.36177	59.1488
5.35623	59.4316
5.35071	59.658
5.34519	59.6543
5.33968	59.6518
5.33419	59.7391
5.32871	59.8236
5.32324	59.9189
5.31778	59.9645
5.31233	60.0709
5.30689	60.1636
5.30147	60.2099
5.29605	60.346
5.29065	60.4967
5.28525	60.4909
5.27987	60.5726
5.2745	60.6195
5.26914	60.6114
5.26379	60.652
5.25845	60.699
5.25312	60.7117
5.24781	60.809
5.2425	60.8874
5.23721	60.9187
5.23192	60.9194
5.22665	60.9168
5.22138	60.9928
5.21613	61.1761
5.21089	61.209
5.20566	61.1215
5.20044	61.1756
5.19522	61.1242
5.19002	61.0239
5.18483	61.0443
5.17965	61.0692
5.17448	61.0968
5.16933	61.0674
5.16418	61.084
5.15904	61.0361
5.15391	60.9947
5.14879	61.0756
5.14368	61.0771
5.13859	60.9475
5.1335	60.8692
5.12842	60.8959
5.12335	60.9439
5.1183	60.9801
5.11325	60.9835
5.10821	60.8443
5.10318	60.6118
5.09817	60.4073
5.09316	60.2632
5.08816	60.026
5.08317	59.615
5.07819	58.9526
5.07322	58.0446
5.06826	56.8549
5.06331	55.2686
5.05837	53.4839
5.05344	52.4901
5.04852	53.2235
5.04361	55.095
5.03871	56.8686
5.03382	58.0434
5.02894	58.7587
5.02406	59.1913
5.0192	59.4927
5.01435	59.6559
5.0095	59.6918
5.00467	59.6834
4.99984	59.7061
4.99502	59.7007
4.99021	59.6652
4.98542	59.6489
4.98063	59.6086
4.97585	59.5196
4.97108	59.3956
4.96632	59.2694
4.96156	59.0989
4.95682	58.9064
4.95209	58.6711
4.94736	58.4385
4.94264	58.096
4.93794	57.6725
4.93324	57.2845
4.92855	56.9078
4.92387	56.46
4.9192	55.9204
4.91453	55.2012
4.90988	54.3793
4.90524	53.5251
4.9006	52.6116
4.89597	51.6117
4.89135	50.5212
4.88674	49.2855
4.88214	47.8589
4.87755	46.1409
4.87296	44.1025
4.86839	41.7533
4.86382	39.1371
4.85926	36.2194
4.85471	33.0619
4.85017	29.859
4.84564	26.7675
4.84111	23.9445
4.8366	21.5423
4.83209	19.8052
4.82759	18.9753
4.8231	19.1323
4.81862	19.757
4.81415	20.4354
4.80968	20.9542
4.80522	21.2124
4.80077	21.6041
4.79633	22.4926
4.7919	23.7783
4.78747	25.251
4.78306	26.4389
4.77865	27.3309
4.77425	28.3287
4.76986	29.5022
4.76547	30.8425
4.7611	32.3131
4.75673	33.8853
4.75237	35.4924
4.74802	36.9933
4.74367	38.1866
4.73934	39.0676
4.73501	39.627
4.73069	39.9399
4.72638	40.0373
4.72207	39.8726
4.71777	39.5177
4.71348	39.0937
4.7092	38.5697
4.70493	37.9861
4.70066	37.4887
4.69641	37.0992
4.69216	36.7883
4.68791	36.6047
4.68368	36.4272
4.67945	36.1453
4.67523	35.8802
4.67102	35.658
4.66682	35.3016
4.66262	34.8429
4.65843	34.3742
4.65425	33.9942
4.65007	33.6836
4.64591	33.4564
4.64175	33.1187
4.6376	32.5044
4.63345	31.5407
4.62932	30.2836
4.62519	28.9145
4.62106	27.6268
4.61695	26.4877
4.61284	25.5302
4.60874	24.799
4.60465	24.3046
4.60056	24.0664
4.59648	24.0611
4.59241	24.3647
4.58835	25.024
4.58429	25.9029
4.58024	26.8279
4.5762	27.8485
4.57216	28.8718
4.56814	29.8559
4.56411	30.904
4.5601	32.0765
4.55609	33.4103
4.55209	34.7674
4.5481	36.1178
4.54411	37.4619
4.54013	38.7323
4.53616	39.8556
4.5322	40.83
4.52824	41.7034
4.52429	42.4122
4.52034	42.9598
4.51641	43.4375
4.51247	43.7461
4.50855	43.9096
4.50463	43.9538
4.50072	43.9242
4.49682	43.9741
4.49292	44.0313
4.48903	44.0521
4.48515	44.0338
4.48127	43.9297
4.4774	43.7187
4.47354	43.6002
4.46968	43.6158
4.46584	43.5427
4.46199	43.4215
4.45815	43.3372
4.45432	43.2601
4.4505	43.1912
4.44668	43.2259
4.44287	43.3285
4.43907	43.5782
4.43527	43.9232
4.43148	44.3401
4.4277	44.7947
4.42392	45.2088
4.42015	45.6768
4.41638	46.0998
4.41262	46.4485
4.40887	46.7591
4.40513	46.8517
4.40139	46.839
4.39765	46.837
4.39393	46.879
4.39021	46.9339
4.38649	46.8864
4.38278	46.826
4.37908	46.9279
4.37539	47.0748
4.3717	47.2614
4.36801	47.5583
4.36434	47.9047
4.36067	48.2623
4.357	48.6524
4.35335	49.1364
4.34969	49.6854
4.34605	50.1697
4.34241	50.5337
4.33877	50.6968
4.33514	50.7251
4.33152	50.6077
4.32791	50.4294
4.3243	50.1782
4.32069	49.7826
4.3171	49.3052
4.31351	48.8501
4.30992	48.4022
4.30634	48.0036
4.30277	47.6306
4.2992	47.3104
4.29564	47.0916
4.29208	47.0497
4.28853	47.0489
4.28499	47.1507
4.28145	47.1897
4.27792	47.0863
4.27439	46.8918
4.27087	46.6906
4.26735	46.3597
4.26384	45.8778
4.26034	45.344
4.25684	44.7327
4.25335	43.9745
4.24986	43.2309
4.24638	42.7031
4.24291	42.4914
4.23944	42.5158
4.23598	42.7207
4.23252	43.0454
4.22906	43.3929
4.22562	43.8518
4.22218	44.4074
4.21874	44.9886
4.21531	45.6539
4.21189	46.3877
4.20847	47.0886
4.20506	47.8627
4.20165	48.7231
4.19825	49.5458
4.19485	50.2148
4.19146	50.8051
4.18807	51.4455
4.18469	51.9633
4.18132	52.4011
4.17795	52.8519
4.17458	53.2512
4.17123	53.615
4.16787	53.9853
4.16453	54.3502
4.16118	54.631
4.15785	54.7892
4.15451	54.948
4.15119	55.1956
4.14787	55.438
4.14455	55.5848
4.14124	55.688
4.13794	55.8486
4.13464	56.0271
4.13134	56.1591
4.12805	56.2628
4.12477	56.3873
4.12149	56.5579
4.11822	56.7166
4.11495	56.8496
4.11168	57.0075
4.10843	57.2743
4.10517	57.6364
4.10192	58.0678
4.09868	58.523
4.09545	58.8871
4.09221	59.1435
4.08899	59.4319
4.08576	59.6482
4.08255	59.7898
4.07933	59.9673
4.07613	60.0312
4.07292	60.0611
4.06973	60.0648
4.06654	59.9074
4.06335	59.759
4.06017	59.6502
4.05699	59.5401
4.05382	59.5226
4.05065	59.5527
4.04749	59.6343
4.04433	59.8794
4.04118	60.0754
4.03803	60.2156
4.03489	60.3111
4.03175	60.3378
4.02862	60.3582
4.02549	60.4003
4.02237	60.4545
4.01925	60.5404
4.01614	60.623
4.01303	60.7059
4.00993	60.7154
4.00683	60.7783
4.00373	60.8296
4.00064	60.9028
3.99756	61.0074
3.99448	61.0386
3.9914	61.0234
3.98833	61.0642
3.98527	61.0757
3.98221	61.0344
3.97915	60.966
3.9761	60.9635
3.97305	60.9859
3.97001	60.9736
3.96697	61.0765
3.96394	61.187
3.96091	61.1628
3.95789	61.261
3.95487	61.4072
3.95186	61.5305
3.94885	61.6738
3.94584	61.7568
3.94284	61.8017
3.93984	61.8858
3.93685	61.9524
3.93386	61.9778
3.93088	61.9885
3.9279	61.985
3.92493	62.0964
3.92196	62.3172
3.919	62.4134
3.91604	62.5408
3.91308	62.6632
3.91013	62.6908
3.90718	62.7173
3.90424	62.7697
3.9013	62.8695
3.89837	62.9535
3.89544	62.9451
3.89252	62.9084
3.8896	62.9223
3.88668	62.9185
3.88377	62.8985
3.88086	62.8994
3.87796	62.9366
3.87506	62.9051
3.87217	62.8137
3.86928	62.731
3.86639	62.6836
3.86351	62.5953
3.86064	62.498
3.85776	62.4349
3.8549	62.3373
3.85203	62.3046
3.84917	62.3251
3.84631	62.3464
3.84346	62.3386
3.84062	62.3371
3.83777	62.4114
3.83494	62.5336
3.8321	62.5559
3.82927	62.5535
3.82644	62.6768
3.82362	62.7284
3.82081	62.7256
3.81799	62.693
3.81518	62.6533
3.81238	62.6188
3.80958	62.6456
3.80678	62.7312
3.80399	62.7591
3.8012	62.7784
3.79841	62.8601
3.79563	62.9475
3.79286	62.9512
3.79008	62.9197
3.78731	62.9331
3.78455	62.9459
3.78179	62.9569
3.77903	63.009
3.77628	63.0271
3.77353	63.0376
3.77079	63.0576
3.76805	63.0472
3.76531	63.0044
3.76258	62.9618
3.75985	62.9208
3.75713	62.9218
3.7544	62.8886
3.75169	62.8195
3.74898	62.8027
3.74627	62.8275
3.74356	62.7662
3.74086	62.711
3.73816	62.7014
3.73547	62.64
3.73278	62.4533
3.7301	62.2933
3.72741	62.1938
3.72474	61.979
3.72206	61.6924
3.71939	61.3453
3.71673	60.9583
3.71406	60.4101
3.71141	59.7329
3.70875	59.0893
3.7061	58.6074
3.70345	58.3839
3.70081	58.3859
3.69817	58.5876
3.69553	58.8472
3.6929	59.1683
3.69027	59.4546
3.68765	59.7229
3.68503	59.9111
3.68241	60.0249
3.6798	60.0797
3.67719	60.1333
3.67458	60.1283
3.67198	60.0834
3.66938	60.1531
3.66678	60.1606
3.66419	60.0673
3.66161	60.057
3.65902	60.1282
3.65644	60.1078
3.65387	60.0011
3.65129	60.0087
3.64872	60.0957
3.64616	60.0624
3.64359	60.0127
3.64103	59.9934
3.63848	59.9512
3.63593	59.9508
3.63338	59.9198
3.63084	59.8627
3.6283	59.7668
3.62576	59.7015
3.62322	59.6462
3.62069	59.5174
3.61817	59.3215
3.61564	59.1244
3.61312	58.8509
3.61061	58.4466
3.6081	57.9956
3.60559	57.4881
3.60308	56.9274
3.60058	56.2933
3.59808	55.6114
3.59558	54.9078
3.59309	54.3349
3.59061	53.893
3.58812	53.5528
3.58564	53.4667
3.58316	53.4305
3.58069	53.3964
3.57822	53.4824
3.57575	53.6712
3.57328	53.8111
3.57082	54.0244
3.56836	54.3338
3.56591	54.5856
3.56346	54.7599
3.56101	54.9301
3.55857	54.9899
3.55613	54.9978
3.55369	55.1749
3.55126	55.3879
3.54883	55.4851
3.5464	55.5507
3.54397	55.5567
3.54155	55.6026
3.53914	55.6627
3.53672	55.6856
3.53431	55.7014
3.5319	55.7758
3.5295	55.8603
3.5271	55.8927
3.5247	55.9169
3.52231	55.928
3.51991	55.9225
3.51753	55.9818
3.51514	55.9465
3.51276	55.8321
3.51038	55.7958
3.50801	55.7878
3.50563	55.8021
3.50327	55.7503
3.5009	55.6354
3.49854	55.6225
3.49618	55.6201
3.49382	55.5484
3.49147	55.4901
3.48912	55.4193
3.48677	55.3773
3.48443	55.4193
3.48209	55.4034
3.47975	55.2692
3.47742	55.1405
3.47509	55.068
3.47276	54.9607
3.47044	54.9014
3.46812	54.8664
3.4658	54.8048
3.46348	54.7848
3.46117	54.7165
3.45886	54.5945
3.45656	54.4855
3.45425	54.4111
3.45195	54.3913
3.44966	54.3238
3.44736	54.2251
3.44507	54.1422
3.44279	53.9967
3.4405	53.867
3.43822	53.7009
3.43594	53.6048
3.43367	53.4995
3.43139	53.3396
3.42912	53.2187
3.42686	53.1303
3.42459	52.9158
3.42233	52.7003
3.42007	52.5902
3.41782	52.4573
3.41557	52.3614
3.41332	52.1587
3.41108	51.966
3.40883	51.8644
3.40659	51.8955
3.40435	51.9472
3.40212	51.905
3.39989	51.8232
3.39766	51.8289
3.39544	51.902
3.39322	51.8606
3.391	51.8173
3.38878	51.8127
3.38657	51.8219
3.38436	51.7838
3.38215	51.6079
3.37994	51.3523
3.37774	51.131
3.37554	51.0763
3.37335	51.1079
3.37115	51.1458
3.36896	51.1562
3.36678	51.0443
3.36459	50.9719
3.36241	50.9789
3.36023	50.9933
3.35805	50.9628
3.35588	50.917
3.35371	50.8316
3.35154	50.7536
3.34938	50.7167
3.34721	50.7894
3.34505	50.7929
3.3429	50.7444
3.34074	50.6932
3.33859	50.523
3.33644	50.487
3.3343	50.6018
3.33215	50.5899
3.33001	50.5155
3.32788	50.4224
3.32574	50.3503
3.32361	50.3821
3.32148	50.439
3.31936	50.4098
3.31723	50.4698
3.31511	50.475
3.31299	50.4243
3.31088	50.3657
3.30876	50.2923
3.30665	50.2548
3.30455	50.295
3.30244	50.3421
3.30034	50.3205
3.29824	50.2316
3.29614	50.1321
3.29405	50.1383
3.29196	50.1753
3.28987	50.1425
3.28778	49.986
3.2857	49.8478
3.28362	49.8237
3.28154	49.7791
3.27946	49.7659
3.27739	49.6723
3.27532	49.565
3.27325	49.5895
3.27119	49.6697
3.26913	49.6696
3.26707	49.7132
3.26501	49.8204
3.26295	49.8575
3.2609	49.7997
3.25885	49.7644
3.2568	49.8169
3.25476	49.8665
3.25272	49.9276
3.25068	49.9425
3.24864	49.9788
3.24661	50.0383
3.24458	49.985
3.24255	49.9414
3.24052	49.9315
3.2385	49.9661
3.23648	49.9875
3.23446	50.0774
3.23244	50.1049
3.23043	50.1067
3.22841	50.09
3.2264	50.1677
3.2244	50.2567
3.22239	50.2316
3.22039	50.0923
3.21839	49.9868
3.2164	49.9618
3.2144	49.9634
3.21241	49.9565
3.21042	50.0114
3.20844	49.9676
3.20645	49.8892
3.20447	49.8748
3.20249	49.9141
3.20051	49.9457
3.19854	49.9022
3.19657	49.7759
3.1946	49.7845
3.19263	49.8071
3.19067	49.7539
3.1887	49.7172
3.18674	49.6377
3.18479	49.5861
3.18283	49.4969
3.18088	49.4249
3.17893	49.4687
3.17698	49.5312
3.17504	49.3749
3.17309	49.3448
3.17115	49.4563
3.16921	49.4323
3.16728	49.3158
3.16534	49.3303
3.16341	49.41
3.16148	49.4414
3.15956	49.4522
3.15763	49.3723
3.15571	49.2723
3.15379	49.2901
3.15187	49.3466
3.14996	49.322
3.14805	49.3421
3.14614	49.3163
3.14423	49.3045
3.14232	49.3382
3.14042	49.4001
3.13852	49.5403
3.13662	49.4986
3.13472	49.3672
3.13283	49.3357
3.13094	49.3524
3.12905	49.3465
3.12716	49.22
3.12528	49.1882
3.12339	49.2852
3.12151	49.3371
3.11964	49.2979
3.11776	49.2988
3.11589	49.3406
3.11401	49.3431
3.11214	49.3406
3.11028	49.346
3.10841	49.2811
3.10655	49.1448
3.10469	49.0839
3.10283	49.1122
3.10098	49.1319
3.09912	49.1489
3.09727	49.1418
3.09542	49.0398
3.09358	49.0056
3.09173	49.0322
3.08989	49.0338
3.08805	49.0434
3.08621	49.0884
3.08437	49.0823
3.08254	49.048
3.08071	48.973
3.07888	49.0177
3.07705	48.9998
3.07523	48.8869
3.0734	48.8663
3.07158	48.897
3.06977	48.9214
3.06795	49.01
3.06613	48.9496
3.06432	48.9313
3.06251	48.9912
3.0607	49.0656
3.0589	48.9614
3.0571	48.9373
3.05529	49.026
3.05349	49.0429
3.0517	48.9588
3.0499	48.9301
3.04811	48.9961
3.04632	49.022
3.04453	49.0256
3.04274	49.0129
3.04096	49.0695
3.03918	49.0972
3.0374	49.0403
3.03562	48.9276
3.03384	48.8925
3.03207	48.9629
3.03029	48.983
3.02852	48.8847
3.02676	48.8847
3.02499	48.9457
3.02323	48.9697
3.02146	48.9194
3.0197	48.8217
3.01795	48.7995
3.01619	48.8673
3.01444	48.9398
3.01269	48.8726
3.01094	48.876
3.00919	48.8452
3.00744	48.7404
3.0057	48.7206
3.00396	48.7468
3.00222	48.7592
3.00048	48.7727
2.99875	48.7713
2.99701	48.7382
2.99528	48.6198
2.99355	48.5163
2.99183	48.4796
2.9901	48.4352
2.98838	48.4289
2.98666	48.4523
2.98494	48.4113
2.98322	48.4255
2.9815	48.4511
2.97979	48.4014
2.97808	48.3592
2.97637	48.4101
2.97466	48.4189
2.97295	48.4163
2.97125	48.4297
2.96955	48.3936
2.96785	48.4445
2.96615	48.5177
2.96446	48.497
2.96276	48.4112
2.96107	48.3646
2.95938	48.2451
2.95769	48.2888
2.95601	48.3537
2.95432	48.3204
2.95264	48.3659
2.95096	48.325
2.94928	48.3787
2.9476	48.4463
2.94593	48.409
2.94425	48.3279
2.94258	48.2186
2.94092	48.1372
2.93925	48.201
2.93758	48.2787
2.93592	48.3081
2.93426	48.2175
2.9326	48.036
2.93094	47.9436
2.92928	47.9232
2.92763	47.9315
2.92598	47.8544
2.92433	47.832
2.92268	47.7836
2.92103	47.6067
2.91939	47.5342
2.91775	47.5686
2.9161	47.5771
2.91447	47.3936
2.91283	47.1422
2.91119	47.1352
2.90956	47.1808
2.90793	47.1926
2.9063	47.2429
2.90467	47.2857
2.90304	47.2675
2.90142	47.214
2.89979	47.2167
2.89817	47.3736
2.89656	47.5162
2.89494	47.642
2.89332	47.6598
2.89171	47.5547
2.8901	47.649
2.88849	47.8129
2.88688	47.893
2.88527	47.8623
2.88367	47.9683
2.88206	48.0951
2.88046	48.1924
2.87886	48.3162
2.87727	48.4005
2.87567	48.5338
2.87408	48.676
2.87248	48.8126
2.87089	48.9439
2.8693	48.987
2.86772	49.0117
2.86613	49.0892
2.86455	49.2136
2.86297	49.3463
2.86139	49.4685
2.85981	49.614
2.85823	49.7068
2.85666	49.7636
2.85508	49.8491
2.85351	49.9782
2.85194	50.1111
2.85038	50.1661
2.84881	50.2486
2.84724	50.459
2.84568	50.6795
2.84412	50.7467
2.84256	50.9008
2.841	51.1183
2.83945	51.2613
2.83789	51.4871
2.83634	51.7372
2.83479	51.896
2.83324	52.0785
2.83169	52.2454
2.83015	52.4145
2.82861	52.673
2.82706	52.9328
2.82552	53.0962
2.82398	53.32
2.82245	53.5884
2.82091	53.8607
2.81938	54.0473
2.81784	54.2279
2.81631	54.543
2.81479	54.8924
2.81326	55.2022
2.81173	55.431
2.81021	55.6126
2.80869	55.8719
2.80716	56.17
2.80565	56.5206
2.80413	56.9674
2.80261	57.2187
2.8011	57.2882
2.79959	57.4881
2.79808	57.7823
2.79657	58.0435
2.79506	58.3641
2.79355	58.7364
2.79205	59.0192
2.79055	59.3057
2.78904	59.7642
2.78754	60.2862
2.78605	60.3763
2.78455	60.387
2.78306	60.6878
2.78156	61.0495
2.78007	61.4047
2.77858	61.6155
2.77709	61.8365
2.77561	62.0533
2.77412	62.2934
2.77264	62.7636
2.77116	63.3235
2.76968	63.6055
2.7682	63.8388
2.76672	64.0732
2.76524	64.4171
2.76377	64.9319
2.7623	65.2267
2.76083	65.2607
2.75936	65.5933
2.75789	66.1942
2.75642	67.1476
2.75496	67.5643
2.7535	67.2543
2.75203	67.4569
2.75057	67.9144
2.74912	68.3915
2.74766	68.7222
2.7462	69.1598
2.74475	69.7055
2.7433	70.3274
2.74185	71.2868
2.7404	72.183
2.73895	72.2921
2.7375	72.081
2.73606	72.6136
2.73462	73.2332
2.73318	73.266
2.73174	73.5478
2.7303	73.966
2.72886	74.3074
2.72742	74.8414
2.72599	75.648
2.72456	76.3507
2.72313	76.346
2.7217	76.7905
2.72027	77.3518
2.71884	77.0804
2.71742	77.1509
2.71599	77.2649
2.71457	77.5805
2.71315	78.0491
2.71173	78.8944
2.71032	79.258
2.7089	79.0818
2.70748	78.9428
2.70607	79.1029
2.70466	79.3285
2.70325	79.5851
2.70184	79.9841
2.70043	80.2202
2.69903	80.2828
2.69762	80.4839
2.69622	80.8768
2.69482	81.3697
2.69342	81.4646
2.69202	80.9624
2.69062	80.9782
2.68923	81.2442
2.68783	81.3986
2.68644	81.5342
2.68505	81.5975
2.68366	81.7582
2.68227	81.7068
2.68089	81.8669
2.6795	82.551
2.67812	82.8208
2.67673	83.023
2.67535	82.7875
2.67397	82.5063
2.6726	82.6866
2.67122	83.7943
2.66984	83.9921
2.66847	83.311
2.6671	83.7794
2.66572	84.0167
2.66435	83.5695
2.66299	82.9546
2.66162	82.9699
2.66025	83.077
2.65889	83.1287
2.65753	83.0125
2.65616	83.1182
2.65481	83.2206
2.65345	83.4913
2.65209	83.5202
2.65073	83.2802
2.64938	83.2285
2.64803	83.2859
2.64667	83.4363
2.64532	83.5269
2.64397	83.4222
2.64263	83.5286
2.64128	83.5897
2.63994	83.5757
2.63859	83.6296
2.63725	83.7636
2.63591	83.7545
2.63457	83.9304
2.63323	84.0133
2.6319	84.3242
2.63056	84.9227
2.62923	84.5406
2.62789	84.3905
2.62656	84.6977
2.62523	84.1953
2.6239	83.9449
2.62258	84.0602
2.62125	84.8298
2.61993	85.0519
2.6186	84.7183
2.61728	85.1625
2.61596	85.0482
2.61464	84.5476
2.61332	84.5294
2.61201	84.3962
2.61069	84.5173
2.60938	84.8253
2.60807	84.9063
2.60675	85.1573
2.60544	85.4311
2.60414	85.0953
2.60283	84.7979
2.60152	84.6119
2.60022	84.5255
2.59891	84.5083
2.59761	84.7309
2.59631	85.6618
2.59501	86.7884
2.59371	86.009
2.59242	84.8234
2.59112	84.587
2.58983	84.8925
2.58853	85.189
2.58724	85.1061
2.58595	84.7976
2.58466	85.3841
2.58338	85.5656
2.58209	85.0344
2.5808	84.963
2.57952	84.7957
2.57824	84.9952
2.57695	85.2711
2.57567	85.1199
2.5744	85.3421
2.57312	85.5061
2.57184	84.8928
2.57057	85.0093
2.56929	85.2265
2.56802	84.9263
2.56675	84.8348
2.56548	85.1124
2.56421	85.3581
2.56294	85.3271
2.56168	85.4338
2.56041	85.3862
2.55915	85.0431
2.55789	84.8385
2.55662	84.7629
2.55536	84.6989
2.5541	84.7871
2.55285	84.9792
2.55159	84.9757
2.55034	84.9219
2.54908	84.869
2.54783	84.8385
2.54658	84.7925
2.54533	84.7291
2.54408	84.7552
2.54283	84.8053
2.54159	84.7226
2.54034	84.6245
2.5391	84.6397
2.53785	84.7025
2.53661	84.8148
2.53537	84.8692
2.53413	84.8603
2.53289	84.8719
2.53166	84.7865
2.53042	84.6849
2.52919	84.7427
2.52795	84.8975
2.52672	84.8436
2.52549	84.8338
2.52426	84.9028
2.52303	84.8775
2.52181	84.8352
2.52058	84.8597
2.51936	84.8849
2.51813	84.9008
2.51691	84.8954
2.51569	85.0258
2.51447	84.9377
2.51325	84.9057
2.51203	84.9708
2.51082	85.067
2.5096	85.1188
2.50839	85.1502
2.50717	85.1587
2.50596	85.2504
2.50475	85.3179
2.50354	85.2497
2.50233	85.2827
2.50113	85.3392
2.49992	85.2743
2.49872	85.1779
2.49751	85.2546
2.49631	85.3
2.49511	85.2431
2.49391	85.3178
2.49271	85.3704
2.49151	85.4028
2.49031	85.5092
2.48912	85.5964
2.48792	85.5906
2.48673	85.4594
2.48554	85.3783
2.48435	85.4325
2.48316	85.518
2.48197	85.5775
2.48078	85.5716
2.4796	85.5233
2.47841	85.4608
2.47723	85.5402
2.47604	85.7317
2.47486	85.7203
2.47368	85.6294
2.4725	85.6544
2.47132	85.6715
2.47014	85.6396
2.46897	85.659
2.46779	85.6877
2.46662	85.6999
2.46545	85.6655
2.46427	85.6773
2.4631	85.7144
2.46193	85.7347
2.46077	85.7654
2.4596	85.6763
2.45843	85.6031
2.45727	85.6978
2.4561	85.7865
2.45494	85.8338
2.45378	85.8825
2.45262	85.904
2.45146	85.992
2.4503	86.0222
2.44914	86.0037
2.44799	86.0565
2.44683	86.0177
2.44568	85.9418
2.44452	85.9852
2.44337	85.929
2.44222	85.8335
2.44107	85.8818
2.43992	86.0433
2.43877	86.1205
2.43763	86.1174
2.43648	86.0448
2.43534	86.0286
2.43419	86.1326
2.43305	86.1566
2.43191	86.1059
2.43077	86.1448
2.42963	86.1501
2.42849	86.061
2.42736	86.1398
2.42622	86.2472
2.42509	86.1519
2.42395	86.0648
2.42282	86.014
2.42169	86.0334
2.42056	86.0986
2.41943	85.9518
2.4183	85.8715
2.41717	85.8328
2.41605	85.8355
2.41492	85.796
2.4138	85.9084
2.41267	86.1125
2.41155	86.0623
2.41043	85.9926
2.40931	86.0632
2.40819	86.0794
2.40707	86.1013
2.40595	86.1338
2.40484	86.1263
2.40372	86.0502
2.40261	86.1628
2.4015	86.2177
2.40039	86.159
2.39928	86.2649
2.39817	86.3276
2.39706	86.3218
2.39595	86.3439
2.39484	86.301
2.39374	86.354
2.39263	86.4904
2.39153	86.6167
2.39043	86.5913
2.38932	86.6157
2.38822	86.6244
2.38712	86.5905
2.38603	86.6322
2.38493	86.6486
2.38383	86.6846
2.38274	86.6408
2.38164	86.6751
2.38055	86.8643
2.37946	86.9774
2.37836	86.9755
2.37727	86.9617
2.37618	86.9353
2.3751	86.9484
2.37401	86.9942
2.37292	87.0643
2.37184	87.1201
2.37075	87.2425
2.36967	87.3519
2.36859	87.2185
2.3675	87.1437
2.36642	87.1878
2.36534	87.1827
2.36427	87.2754
2.36319	87.3055
2.36211	87.3502
2.36104	87.2851
2.35996	87.2877
2.35889	87.3252
2.35781	87.3284
2.35674	87.3694
2.35567	87.3424
2.3546	87.4443
2.35353	87.5797
2.35247	87.5363
2.3514	87.3753
2.35033	87.3725
2.34927	87.4472
2.3482	87.448
2.34714	87.4562
2.34608	87.4418
2.34502	87.5807
2.34396	87.6081
2.3429	87.5518
2.34184	87.5226
2.34078	87.5577
2.33973	87.4929
2.33867	87.3959
2.33762	87.5076
2.33656	87.608
2.33551	87.6044
2.33446	87.5083
2.33341	87.3692
2.33236	87.4353
2.33131	87.5907
2.33026	87.654
2.32922	87.5263
2.32817	87.4553
2.32712	87.5717
2.32608	87.6542
2.32504	87.5982
2.324	87.5348
2.32295	87.6354
2.32191	87.7251
2.32087	87.6091
2.31984	87.5067
2.3188	87.5086
2.31776	87.495
2.31673	87.4999
2.31569	87.6116
2.31466	87.6483
2.31362	87.5761
2.31259	87.4958
2.31156	87.5289
2.31053	87.5937
2.3095	87.5872
2.30847	87.571
2.30745	87.649
2.30642	87.7904
2.3054	87.7741
2.30437	87.6122
2.30335	87.491
2.30232	87.5625
2.3013	87.6405
2.30028	87.7427
2.29926	87.7989
2.29824	87.7864
2.29722	87.8495
2.29621	87.9186
2.29519	87.7254
2.29417	87.5947
2.29316	87.7853
2.29215	87.9247
2.29113	87.9229
2.29012	87.8541
2.28911	87.8427
2.2881	87.9234
2.28709	88.0088
2.28608	87.9313
2.28507	87.8823
2.28407	87.9079
2.28306	87.8659
2.28206	87.9027
2.28105	87.8722
2.28005	87.8405
2.27905	87.8743
2.27805	87.8465
2.27705	87.8461
2.27605	88.02
2.27505	88.1639
2.27405	88.0377
2.27305	87.9207
2.27206	87.9279
2.27106	87.9187
2.27007	87.9288
2.26907	87.8874
2.26808	87.8816
2.26709	87.9119
2.2661	87.9975
2.26511	88.0322
2.26412	88.0291
2.26313	88.0681
2.26214	88.1178
2.26116	88.0879
2.26017	88.0323
2.25919	88.1253
2.2582	88.1701
2.25722	88.0497
2.25624	88.0381
2.25526	88.1604
2.25428	88.1162
2.2533	88.1215
2.25232	88.1802
2.25134	88.2074
2.25036	88.2971
2.24939	88.2664
2.24841	88.3063
2.24744	88.3716
2.24646	88.3812
2.24549	88.3138
2.24452	88.1057
2.24355	88.1047
2.24257	88.138
2.24161	88.2712
2.24064	88.4123
2.23967	88.3711
2.2387	88.4287
2.23774	88.4994
2.23677	88.3449
2.23581	88.2364
2.23484	88.3334
2.23388	88.384
2.23292	88.39
2.23196	88.3418
2.231	88.121
2.23004	87.9675
2.22908	88.017
2.22812	88.1073
2.22716	88.1968
2.22621	88.3437
2.22525	88.4694
2.2243	88.3002
2.22334	88.2701
2.22239	88.3578
2.22144	88.2677
2.22049	88.1644
2.21953	88.2179
2.21859	88.1781
2.21764	88.1703
2.21669	88.3372
2.21574	88.4308
2.21479	88.3671
2.21385	88.3695
2.2129	88.4893
2.21196	88.3204
2.21102	88.1405
2.21007	88.2616
2.20913	88.2333
2.20819	88.141
2.20725	88.2816
2.20631	88.4063
2.20537	88.4544
2.20444	88.4868
2.2035	88.3585
2.20256	88.2283
2.20163	88.2462
2.20069	88.3475
2.19976	88.4002
2.19883	88.3307
2.19789	88.3279
2.19696	88.3786
2.19603	88.4289
2.1951	88.4055
2.19417	88.4959
2.19325	88.4605
2.19232	88.3218
2.19139	88.3781
2.19047	88.3868
2.18954	88.4434
2.18862	88.5221
2.18769	88.5264
2.18677	88.4786
2.18585	88.4796
2.18493	88.4039
2.18401	88.4276
2.18309	88.5277
2.18217	88.4457
2.18125	88.3311
2.18033	88.3179
2.17942	88.3611
2.1785	88.396
2.17759	88.4193
2.17667	88.481
2.17576	88.3571
2.17485	88.3962
2.17393	88.5539
2.17302	88.6092
2.17211	88.4162
2.1712	88.2701
2.17029	88.2062
2.16939	88.2423
2.16848	88.3674
2.16757	88.334
2.16667	88.221
2.16576	88.2225
2.16486	88.2986
2.16395	88.3789
2.16305	88.439
2.16215	88.4284
2.16125	88.4484
2.16035	88.5392
2.15945	88.4593
2.15855	88.3561
2.15765	88.2446
2.15675	88.1081
2.15586	88.1574
2.15496	88.3529
2.15406	88.3826
2.15317	88.328
2.15228	88.3274
2.15138	88.4538
2.15049	88.592
2.1496	88.4538
2.14871	88.2574
2.14782	88.2209
2.14693	88.301
2.14604	88.4071
2.14515	88.3207
2.14427	88.2023
2.14338	88.3467
2.14249	88.4523
2.14161	88.4473
2.14072	88.4169
2.13984	88.3671
2.13896	88.2709
2.13808	88.3136
2.13719	88.261
2.13631	88.3503
2.13543	88.4779
2.13455	88.4291
2.13368	88.428
2.1328	88.5492
2.13192	88.6901
2.13105	88.5573
2.13017	88.4666
2.1293	88.4408
2.12842	88.3293
2.12755	88.4478
2.12668	88.5709
2.1258	88.4153
2.12493	88.3691
2.12406	88.4071
2.12319	88.3956
2.12232	88.2666
2.12145	88.1918
2.12059	88.2704
2.11972	88.3785
2.11885	88.3265
2.11799	88.1953
2.11712	88.2414
2.11626	88.3578
2.1154	88.4626
2.11453	88.5268
2.11367	88.4568
2.11281	88.2839
2.11195	88.2081
2.11109	88.1853
2.11023	88.1356
2.10937	88.2625
2.10851	88.2661
2.10766	88.3332
2.1068	88.5179
2.10594	88.4363
2.10509	88.3658
2.10423	88.4851
2.10338	88.4349
2.10253	88.2706
2.10168	88.0307
2.10082	87.9858
2.09997	87.9355
2.09912	88.0438
2.09827	88.3042
2.09742	88.3073
2.09658	88.217
2.09573	88.1959
2.09488	88.1403
2.09404	88.1324
2.09319	88.085
2.09235	88.1145
2.0915	88.1506
2.09066	88.2179
2.08982	88.3452
2.08897	88.1389
2.08813	88.1175
2.08729	88.1679
2.08645	88.0274
2.08561	87.9543
2.08477	87.9473
2.08394	87.9701
2.0831	88.0763
2.08226	88.0602
2.08143	88.0946
2.08059	88.2
2.07976	88.1224
2.07892	87.963
2.07809	88.0171
2.07726	87.9597
2.07643	88.0137
2.07559	88.1707
2.07476	88.0829
2.07393	87.9465
2.0731	87.9486
2.07228	88.0319
2.07145	87.8793
2.07062	87.6385
2.06979	87.849
2.06897	87.8739
2.06814	87.9174
2.06732	88.1611
2.06649	88.0827
2.06567	87.9994
2.06485	88.0003
2.06403	87.8979
2.0632	87.7883
2.06238	87.8434
2.06156	87.8061
2.06074	87.6441
2.05993	87.683
2.05911	87.9041
2.05829	87.9607
2.05747	88.0112
2.05666	88.0356
2.05584	87.9021
2.05503	87.8585
2.05421	87.5668
2.0534	87.3357
2.05259	87.5889
2.05177	87.7595
2.05096	87.9363
2.05015	87.9432
2.04934	87.8074
2.04853	87.6611
2.04772	87.5193
2.04691	87.6868
2.04611	87.9082
2.0453	87.8053
2.04449	87.8102
2.04369	87.9015
2.04288	88.0013
2.04208	87.8766
2.04127	87.7721
2.04047	87.6953
2.03967	87.5745
2.03886	87.5221
2.03806	87.5508
2.03726	87.6356
2.03646	87.7068
2.03566	87.83
2.03486	87.908
2.03407	87.7435
2.03327	87.5514
2.03247	87.5429
2.03167	87.6506
2.03088	87.5506
2.03008	87.4397
2.02929	87.6772
2.0285	87.9247
2.0277	87.7615
2.02691	87.7837
2.02612	87.9724
2.02533	87.9722
2.02453	87.9272
2.02374	87.8644
2.02295	87.7023
2.02217	87.6632
2.02138	87.8141
2.02059	87.923
2.0198	87.8923
2.01902	87.9498
2.01823	88.1625
2.01744	88.1331
2.01666	88.1038
2.01588	88.1056
2.01509	88.0075
2.01431	88.1258
2.01353	88.1142
2.01275	87.8832
2.01196	87.99
2.01118	88.1769
2.0104	88.0687
2.00963	88.0496
2.00885	88.1399
2.00807	88.0303
2.00729	87.8797
2.00651	87.9051
2.00574	88.0628
2.00496	88.1315
2.00419	88.2229
2.00341	88.1404
2.00264	87.9246
2.00187	87.9023
2.00109	87.8446
2.00032	87.8123
