Name: White Marble
Type: Rock
Class: Metamorphic
Subclass:  Marble 
Particle Size: Solid surface
Sample No.: Ward95.txt
Owner: JPL
Wavelength range:  IR 
Origin: Ward's Collection of American Rocks.  Sample locality - West Rutland, Rutland County, Vermont.  Collected by - JPL.
Collected by:  Ward's Natural Science
Description: A white, saccharoidal rock with occasional pale green
patches.  Geologic age - Ordovician




Measurement: Hemispherical reflectance
First Column: X
Second Column: Y
X Units: Wavelength (micrometers)
Y Units: Reflectance (percent)
First X Value: 15.3871
Last X Value: 1.9998
Number of X Values: 2257
Additional information: None

15.3871   4.00728
15.3416   3.94253
15.2964   4.01500
15.2514   4.07882
15.2066   4.21455
15.1622   4.16953
15.1180   3.83903
15.0740   4.00060
15.0303   4.37161
14.9869   4.16896
14.9437   3.93115
14.9008   4.19516
14.8581   4.73070
14.8156   4.98671
14.7734   5.02288
14.7314   5.07548
14.6897   5.16348
14.6482   4.85541
14.6069   4.67841
14.5659   4.92810
14.5251   4.85087
14.4845   4.89297
14.4442   5.08805
14.4041   4.90725
14.3642   4.78440
14.3245   4.74707
14.2850   4.72026
14.2458   4.76571
14.2068   4.86034
14.1679   4.88921
14.1293   4.89414
14.0909   5.48984
14.0528   6.27508
14.0148   4.70696
13.9770   2.39129
13.9394   2.24002
13.9021   2.86480
13.8649   3.03455
13.8279   3.32039
13.7911   3.80060
13.7546   4.03967
13.7182   4.05423
13.6820   4.17057
13.6460   4.35991
13.6101   4.46374
13.5745   4.79940
13.5391   5.11259
13.5038   5.38674
13.4687   5.39277
13.4339   5.18310
13.3991   5.12518
13.3646   5.31161
13.3302   5.51410
13.2961   5.58419
13.2621   5.56413
13.2282   5.44804
13.1946   5.27567
13.1611   5.21390
13.1278   5.31599
13.0946   5.30998
13.0616   5.09494
13.0288   5.06213
12.9962   5.08454
12.9637   5.17599
12.9313   5.20157
12.8992   5.01452
12.8672   4.89895
12.8353   4.92071
12.8036   5.06729
12.7721   5.08577
12.7407   5.13019
12.7095   5.27302
12.6784   5.27691
12.6475   5.33039
12.6167   5.36099
12.5861   5.36266
12.5556   5.46904
12.5253   5.56050
12.4951   5.64483
12.4651   5.63202
12.4352   5.52748
12.4054   5.68045
12.3758   5.92247
12.3463   5.88846
12.3170   5.92296
12.2878   5.98987
12.2588   6.01181
12.2299   5.99130
12.2011   6.08787
12.1725   6.04341
12.1439   5.80966
12.1156   5.81238
12.0873   6.04514
12.0592   6.20818
12.0312   6.26777
12.0034   6.45113
11.9757   6.50773
11.9481   6.51018
11.9206   6.52042
11.8933   6.47515
11.8661   6.39778
11.8390   6.25445
11.8120   5.87330
11.7852   5.61116
11.7584   5.98414
11.7318   6.33142
11.7053   6.60802
11.6790   6.76512
11.6527   6.74103
11.6266   7.11518
11.6006   7.36285
11.5747   7.53733
11.5489   8.02092
11.5233   8.94719
11.4977  10.24820
11.4723  12.07830
11.4469  14.25920
11.4217  17.19900
11.3966  21.13860
11.3716  24.35620
11.3468  25.99050
11.3220  27.21000
11.2973  28.03650
11.2728  25.77850
11.2483  18.75060
11.2240  11.42210
11.1997   7.55854
11.1756   6.21211
11.1515   5.66262
11.1276   5.41261
11.1038   5.26236
11.0801   5.05801
11.0564   5.07009
11.0329   5.22506
11.0095   5.34918
10.9862   5.39038
10.9629   5.41255
10.9398   5.38901
10.9168   5.23546
10.8938   5.16677
10.8710   5.20490
10.8483   5.17583
10.8256   5.20798
10.8031   5.17470
10.7806   5.04995
10.7582   4.96063
10.7360   4.94546
10.7138   5.08211
10.6917   5.13700
10.6697   5.05917
10.6478   4.98048
10.6260   5.05031
10.6042   5.27682
10.5826   5.41501
10.5610   5.45387
10.5396   5.40536
10.5182   5.20634
10.4969   5.17802
10.4757   5.35467
10.4546   5.45215
10.4335   5.58791
10.4126   5.75913
10.3917   5.67626
10.3709   5.73143
10.3502   5.71850
10.3296   5.64835
10.3091   5.75557
10.2886   5.84760
10.2683   5.82116
10.2480   5.72608
10.2277   5.73396
10.2076   5.65719
10.1876   5.76210
10.1676   5.96291
10.1477   5.92537
10.1279   5.78370
10.1081   5.80088
10.0885   5.66017
10.0689   5.62040
10.0494   5.69992
10.0299   5.68345
10.0106   5.58970
 9.9913   5.65791
 9.9720   5.77945
 9.9529   5.75892
 9.9338   5.77805
 9.9148   5.85287
 9.8959   5.84050
 9.8771   5.74201
 9.8583   5.64407
 9.8396   5.71641
 9.8210   5.84248
 9.8024   5.80815
 9.7839   5.86259
 9.7655   6.10109
 9.7471   6.32414
 9.7288   6.37818
 9.7106   6.22175
 9.6925   6.13176
 9.6744   6.28801
 9.6564   6.52306
 9.6384   6.64442
 9.6205   6.89045
 9.6027   6.96895
 9.5850   6.79285
 9.5673   6.88584
 9.5497   6.99240
 9.5321   7.11116
 9.5146   7.16782
 9.4972   7.09841
 9.4798   7.13323
 9.4625   7.06921
 9.4453   6.96304
 9.4281   6.98770
 9.4110   7.08955
 9.3940   6.98320
 9.3770   6.81582
 9.3600   6.74000
 9.3432   6.78887
 9.3264   6.94949
 9.3096   6.96379
 9.2930   6.94937
 9.2763   6.99796
 9.2598   6.93907
 9.2432   6.84663
 9.2268   6.67723
 9.2104   6.92064
 9.1941   7.30418
 9.1778   7.34219
 9.1616   7.41667
 9.1454   7.49508
 9.1293   7.49994
 9.1133   7.56313
 9.0973   7.49347
 9.0814   7.44427
 9.0655   7.50061
 9.0497   7.45596
 9.0339   7.31913
 9.0182   7.46854
 9.0025   7.52554
 8.9870   7.52068
 8.9714   7.33580
 8.9559   7.37786
 8.9405   7.60310
 8.9251   7.61131
 8.9097   7.37337
 8.8945   7.42995
 8.8792   7.47393
 8.8641   7.35704
 8.8489   7.23704
 8.8338   7.27426
 8.8188   7.33165
 8.8039   7.32422
 8.7889   7.33876
 8.7741   7.44110
 8.7592   7.40670
 8.7445   7.28168
 8.7297   7.29121
 8.7151   7.19130
 8.7005   7.13585
 8.6859   6.90644
 8.6714   6.72961
 8.6569   6.78298
 8.6425   6.66599
 8.6281   6.60062
 8.6137   6.63652
 8.5994   6.71426
 8.5852   6.82068
 8.5710   6.76734
 8.5569   6.82928
 8.5428   6.76438
 8.5287   6.73426
 8.5147   6.68473
 8.5008   6.68073
 8.4869   6.72254
 8.4730   6.60770
 8.4592   6.50078
 8.4454   6.54165
 8.4316   6.66948
 8.4180   6.76644
 8.4043   6.68394
 8.3907   6.79721
 8.3772   6.90108
 8.3637   6.91694
 8.3502   6.99940
 8.3368   7.13905
 8.3234   7.04808
 8.3100   6.88079
 8.2967   6.87253
 8.2835   7.01405
 8.2703   7.08146
 8.2571   7.15500
 8.2440   7.18643
 8.2309   7.20254
 8.2179   7.09446
 8.2049   7.04135
 8.1919   7.13600
 8.1790   7.24085
 8.1661   7.23181
 8.1532   7.03360
 8.1404   7.01687
 8.1277   7.05361
 8.1150   7.14499
 8.1023   7.30520
 8.0897   7.24632
 8.0770   7.18790
 8.0645   7.24384
 8.0520   7.40829
 8.0395   7.50898
 8.0270   7.40640
 8.0146   7.38235
 8.0023   7.45740
 7.9899   7.61619
 7.9776   7.63973
 7.9654   7.55395
 7.9532   7.53553
 7.9410   7.60925
 7.9288   7.69860
 7.9167   7.69884
 7.9047   7.71818
 7.8926   7.72071
 7.8807   7.75015
 7.8687   7.81343
 7.8568   7.81367
 7.8449   7.83578
 7.8330   7.94894
 7.8212   8.03918
 7.8094   8.05236
 7.7977   8.04112
 7.7860   8.06152
 7.7743   8.18941
 7.7627   8.28346
 7.7511   8.27174
 7.7395   8.37899
 7.7280   8.38007
 7.7165   8.31347
 7.7050   8.53375
 7.6936   8.61646
 7.6822   8.53706
 7.6708   8.47080
 7.6595   8.54791
 7.6482   8.61626
 7.6369   8.65580
 7.6257   8.82204
 7.6145   8.99515
 7.6033   9.08170
 7.5922   9.10542
 7.5811   9.12699
 7.5700   9.13113
 7.5590   9.13259
 7.5480   9.18912
 7.5370   9.30142
 7.5261   9.49527
 7.5152   9.69350
 7.5043   9.81948
 7.4935   9.84546
 7.4826   9.91454
 7.4718  10.06890
 7.4611  10.20000
 7.4504  10.24360
 7.4397  10.47520
 7.4290  10.57170
 7.4184  10.65620
 7.4078  10.91940
 7.3972  11.16930
 7.3867  11.32890
 7.3762  11.46810
 7.3657  11.73850
 7.3553  11.97060
 7.3449  12.08190
 7.3345  12.18790
 7.3241  12.35760
 7.3138  12.64910
 7.3035  13.00600
 7.2932  13.31500
 7.2830  13.69460
 7.2727  13.84920
 7.2626  14.19380
 7.2524  14.70210
 7.2423  15.14350
 7.2322  15.53730
 7.2221  16.09390
 7.2120  16.77120
 7.2020  17.45190
 7.1921  18.14700
 7.1821  19.01820
 7.1722  19.84340
 7.1623  20.77880
 7.1524  21.61470
 7.1425  22.09980
 7.1327  22.60220
 7.1229  23.84730
 7.1131  25.54850
 7.1034  27.05540
 7.0937  28.25560
 7.0840  29.18400
 7.0743  29.83120
 7.0647  30.17640
 7.0551  30.39640
 7.0455  30.54050
 7.0359  30.73710
 7.0264  30.96700
 7.0169  31.07490
 7.0074  31.11740
 6.9979  31.25910
 6.9885  31.41010
 6.9791  31.61500
 6.9697  31.78100
 6.9604  31.77990
 6.9510  31.79850
 6.9417  32.06440
 6.9324  32.35140
 6.9232  32.53180
 6.9140  32.70360
 6.9047  33.02280
 6.8956  33.44940
 6.8864  33.77880
 6.8773  34.02420
 6.8682  34.23650
 6.8591  34.50860
 6.8500  34.77540
 6.8410  35.04270
 6.8320  35.36260
 6.8230  35.75940
 6.8140  36.26650
 6.8051  36.63300
 6.7962  36.93540
 6.7873  37.37820
 6.7784  37.83290
 6.7695  38.32530
 6.7607  38.88970
 6.7519  39.39520
 6.7431  40.01630
 6.7344  40.76190
 6.7256  41.50840
 6.7169  42.17350
 6.7082  42.84160
 6.6996  43.41850
 6.6909  43.97900
 6.6823  44.39450
 6.6737  44.71730
 6.6651  45.20130
 6.6566  45.78110
 6.6480  46.16200
 6.6395  46.42980
 6.6310  46.75820
 6.6226  47.19520
 6.6141  47.67850
 6.6057  48.08780
 6.5973  48.43640
 6.5889  48.80180
 6.5805  49.07390
 6.5722  49.36490
 6.5639  49.58760
 6.5556  49.79280
 6.5473  49.82230
 6.5390  49.84890
 6.5308  49.75150
 6.5226  49.56280
 6.5144  49.39230
 6.5062  49.13090
 6.4981  48.57590
 6.4900  48.08310
 6.4818  47.27460
 6.4737  46.02370
 6.4657  44.29690
 6.4576  41.83530
 6.4496  38.27530
 6.4416  34.19080
 6.4336  30.09840
 6.4256  26.58720
 6.4177  23.46180
 6.4097  20.78210
 6.4018  18.65720
 6.3939  16.68490
 6.3860  14.78330
 6.3782  13.05800
 6.3704  11.46830
 6.3625  10.16910
 6.3547   8.85689
 6.3470   7.64862
 6.3392   6.56370
 6.3315   5.62025
 6.3237   4.88434
 6.3160   4.28861
 6.3083   3.73227
 6.3007   3.40998
 6.2930   3.07938
 6.2854   2.76117
 6.2778   2.50121
 6.2702   2.35193
 6.2626   2.05618
 6.2551   1.79895
 6.2476   1.66923
 6.2400   1.58591
 6.2325   1.39084
 6.2251   1.23076
 6.2176   0.98376
 6.2101   0.87735
 6.2027   0.80298
 6.1953   0.79285
 6.1879   0.81701
 6.1805   0.78063
 6.1732   0.78901
 6.1658   0.83976
 6.1585   0.80932
 6.1512   0.77611
 6.1439   0.68302
 6.1367   0.65582
 6.1294   0.57357
 6.1222   0.61372
 6.1149   0.54958
 6.1077   0.68265
 6.1006   0.84674
 6.0934   0.87943
 6.0862   0.77329
 6.0791   0.65713
 6.0720   0.68363
 6.0649   0.76042
 6.0578   0.72348
 6.0507   0.76817
 6.0437   0.80765
 6.0366   0.88365
 6.0296   0.87716
 6.0226   0.83268
 6.0156   0.90543
 6.0087   0.98096
 6.0017   0.94717
 5.9948   0.91885
 5.9878   0.92429
 5.9809   1.00850
 5.9740   1.00191
 5.9672   1.02857
 5.9603   1.06432
 5.9535   1.03874
 5.9466   1.05968
 5.9398   1.06160
 5.9330   0.93577
 5.9262   1.00826
 5.9195   1.13029
 5.9127   1.11270
 5.9060   1.12998
 5.8993   1.25807
 5.8926   1.28461
 5.8859   1.21020
 5.8792   1.25393
 5.8726   1.27210
 5.8659   1.27238
 5.8593   1.22787
 5.8527   1.26832
 5.8461   1.31114
 5.8395   1.33742
 5.8329   1.38550
 5.8264   1.29168
 5.8198   1.35995
 5.8133   1.42865
 5.8068   1.36217
 5.8003   1.35639
 5.7938   1.45776
 5.7874   1.51084
 5.7809   1.51515
 5.7745   1.46764
 5.7680   1.50020
 5.7616   1.53405
 5.7552   1.44206
 5.7489   1.37434
 5.7425   1.39208
 5.7361   1.42285
 5.7298   1.42742
 5.7235   1.42481
 5.7172   1.45099
 5.7109   1.48609
 5.7046   1.52132
 5.6983   1.57984
 5.6921   1.64352
 5.6858   1.68349
 5.6796   1.76626
 5.6734   1.79620
 5.6672   1.82867
 5.6610   1.82552
 5.6548   1.82599
 5.6487   1.88352
 5.6425   1.91178
 5.6364   1.91619
 5.6303   1.93683
 5.6242   1.95993
 5.6181   2.00086
 5.6120   1.95715
 5.6059   1.86587
 5.5999   1.81947
 5.5938   1.74968
 5.5878   1.75756
 5.5818   1.75206
 5.5758   1.61533
 5.5698   1.54510
 5.5638   1.51455
 5.5578   1.35222
 5.5519   1.28974
 5.5460   1.44002
 5.5400   1.61161
 5.5341   1.69045
 5.5282   1.85938
 5.5223   1.92310
 5.5164   2.04801
 5.5106   2.26295
 5.5047   2.30491
 5.4989   2.34312
 5.4931   2.38907
 5.4873   2.45731
 5.4815   2.52358
 5.4757   2.60463
 5.4699   2.59845
 5.4641   2.68628
 5.4584   2.85857
 5.4527   2.92952
 5.4469   2.99125
 5.4412   3.06480
 5.4355   3.12682
 5.4298   3.16583
 5.4241   3.30052
 5.4185   3.41635
 5.4128   3.58267
 5.4072   3.72220
 5.4015   3.75114
 5.3959   3.76031
 5.3903   3.87517
 5.3847   4.14706
 5.3791   4.27385
 5.3735   4.24375
 5.3680   4.22213
 5.3624   4.27621
 5.3569   4.33897
 5.3514   4.44464
 5.3458   4.62452
 5.3403   4.77768
 5.3348   4.91682
 5.3294   4.97532
 5.3239   5.01415
 5.3184   5.13360
 5.3130   5.21362
 5.3075   5.26808
 5.3021   5.38038
 5.2967   5.46342
 5.2913   5.58074
 5.2859   5.66511
 5.2805   5.64333
 5.2751   5.73914
 5.2698   5.88595
 5.2644   5.99559
 5.2591   6.10698
 5.2538   6.13132
 5.2485   6.11880
 5.2431   6.20529
 5.2378   6.36734
 5.2326   6.43896
 5.2273   6.44870
 5.2220   6.51276
 5.2168   6.59926
 5.2115   6.73077
 5.2063   6.85749
 5.2011   6.91822
 5.1959   6.90578
 5.1907   7.02460
 5.1855   7.13704
 5.1803   7.20389
 5.1751   7.15949
 5.1700   7.11397
 5.1648   7.23045
 5.1597   7.39809
 5.1545   7.40134
 5.1494   7.46797
 5.1443   7.60886
 5.1392   7.61313
 5.1341   7.59643
 5.1291   7.58449
 5.1240   7.51455
 5.1189   7.37185
 5.1139   6.96820
 5.1088   6.25105
 5.1038   5.72864
 5.0988   5.65228
 5.0938   6.13044
 5.0888   6.96464
 5.0838   7.65512
 5.0788   8.04112
 5.0738   8.24168
 5.0689   8.37297
 5.0639   8.41007
 5.0590   8.45940
 5.0541   8.53895
 5.0491   8.63677
 5.0442   8.69380
 5.0393   8.70942
 5.0344   8.70108
 5.0296   8.64942
 5.0247   8.70210
 5.0198   8.67455
 5.0150   8.74269
 5.0101   8.84811
 5.0053   8.71829
 5.0004   8.62759
 4.9956   8.66443
 4.9908   8.75725
 4.9860   8.69637
 4.9812   8.61027
 4.9765   8.67518
 4.9717   8.76794
 4.9669   8.72140
 4.9622   8.66917
 4.9574   8.64775
 4.9527   8.61265
 4.9480   8.62745
 4.9432   8.66001
 4.9385   8.68088
 4.9338   8.69718
 4.9291   8.71812
 4.9245   8.75274
 4.9198   8.80878
 4.9151   8.94868
 4.9105   8.99672
 4.9058   8.93083
 4.9012   8.80192
 4.8966   8.82401
 4.8919   8.92867
 4.8873   9.01233
 4.8827   9.06286
 4.8781   9.10239
 4.8736   9.14608
 4.8690   9.13630
 4.8644   9.16699
 4.8599   9.22302
 4.8553   9.24249
 4.8508   9.18207
 4.8462   9.21171
 4.8417   9.31232
 4.8372   9.29394
 4.8327   9.32675
 4.8282   9.43339
 4.8237   9.43034
 4.8192   9.43401
 4.8147   9.45363
 4.8103   9.48039
 4.8058   9.50146
 4.8014   9.50737
 4.7969   9.49129
 4.7925   9.49369
 4.7881   9.45815
 4.7836   9.38713
 4.7792   9.39056
 4.7748   9.35812
 4.7704   9.25420
 4.7660   9.13738
 4.7617   8.93416
 4.7573   8.76188
 4.7530   8.59122
 4.7486   8.49855
 4.7443   8.37199
 4.7399   8.24447
 4.7356   7.97105
 4.7313   7.63437
 4.7270   7.35676
 4.7226   6.95329
 4.7184   6.59314
 4.7141   6.22890
 4.7098   5.76926
 4.7055   5.53063
 4.7012   5.35282
 4.6970   5.10471
 4.6927   4.90140
 4.6885   4.85028
 4.6842   4.82595
 4.6800   4.73579
 4.6758   4.67252
 4.6716   4.70940
 4.6674   4.82299
 4.6632   4.92015
 4.6590   4.92823
 4.6548   5.00494
 4.6506   5.17782
 4.6465   5.28705
 4.6423   5.44479
 4.6382   5.66389
 4.6340   6.07413
 4.6299   6.37976
 4.6258   6.44469
 4.6216   6.51752
 4.6175   6.70328
 4.6134   6.97185
 4.6093   7.10979
 4.6052   7.08596
 4.6011   7.10111
 4.5971   7.16019
 4.5930   7.30902
 4.5889   7.47660
 4.5849   7.53158
 4.5808   7.51373
 4.5768   7.50052
 4.5727   7.60027
 4.5687   7.60433
 4.5647   7.53168
 4.5607   7.42841
 4.5567   7.42271
 4.5526   7.47581
 4.5487   7.47933
 4.5447   7.50997
 4.5407   7.52067
 4.5367   7.53416
 4.5328   7.65430
 4.5288   7.68530
 4.5248   7.64445
 4.5209   7.65435
 4.5170   7.64842
 4.5130   7.70815
 4.5091   7.73880
 4.5052   7.78793
 4.5013   7.82186
 4.4974   7.93744
 4.4935   8.06060
 4.4896   8.21806
 4.4857   8.30346
 4.4818   8.39253
 4.4779   8.47460
 4.4741   8.63341
 4.4702   8.88800
 4.4664   9.04858
 4.4625   9.06818
 4.4587   9.06939
 4.4549   9.13028
 4.4510   9.37176
 4.4472   9.60209
 4.4434   9.73341
 4.4396   9.84120
 4.4358  10.05710
 4.4320  10.25570
 4.4282  10.41260
 4.4245  10.43380
 4.4207  10.50070
 4.4169  10.69330
 4.4132  10.76890
 4.4094  10.89970
 4.4057  10.99280
 4.4019  10.97680
 4.3982  10.98620
 4.3945  11.03670
 4.3907  11.25470
 4.3870  11.43020
 4.3833  11.38500
 4.3796  11.30260
 4.3759  11.27240
 4.3722  11.23070
 4.3685  10.96790
 4.3649  10.77570
 4.3612  10.73950
 4.3575  10.58830
 4.3539  10.46990
 4.3502  10.37710
 4.3466  10.23120
 4.3429  10.14190
 4.3393  10.15460
 4.3357  10.08180
 4.3320  10.07610
 4.3284  10.13430
 4.3248  10.11730
 4.3212  10.06570
 4.3176  10.00240
 4.3140   9.98366
 4.3105  10.05740
 4.3069  10.16570
 4.3033  10.20160
 4.2997  10.23800
 4.2962  10.33070
 4.2926  10.39570
 4.2890  10.37900
 4.2855  10.46950
 4.2820  10.53260
 4.2784  10.48270
 4.2749  10.46620
 4.2714  10.48960
 4.2679  10.46310
 4.2644  10.37510
 4.2609  10.34490
 4.2574  10.25680
 4.2539  10.17040
 4.2504  10.10670
 4.2469  10.04530
 4.2434  10.01210
 4.2400  10.00230
 4.2365   9.97622
 4.2330   9.94151
 4.2296   9.79473
 4.2261   9.68566
 4.2227   9.73025
 4.2193   9.74508
 4.2158   9.73143
 4.2124   9.76591
 4.2090   9.68181
 4.2056   9.59183
 4.2022   9.60967
 4.1988   9.49629
 4.1954   9.40545
 4.1920   9.38253
 4.1886   9.37413
 4.1852   9.32670
 4.1818   9.27647
 4.1785   9.12840
 4.1751   9.00873
 4.1717   9.09713
 4.1684   9.06829
 4.1650   8.93916
 4.1617   8.88797
 4.1584   8.82720
 4.1550   8.68885
 4.1517   8.60186
 4.1484   8.47795
 4.1451   8.37034
 4.1418   8.09437
 4.1384   7.89535
 4.1351   7.88326
 4.1319   7.91931
 4.1286   7.82804
 4.1253   7.68908
 4.1220   7.56256
 4.1187   7.44817
 4.1155   7.27113
 4.1122   7.04166
 4.1089   6.89172
 4.1057   6.92862
 4.1024   6.92048
 4.0992   6.77678
 4.0959   6.70319
 4.0927   6.73469
 4.0895   6.61296
 4.0863   6.43047
 4.0830   6.15060
 4.0798   5.93208
 4.0766   5.72766
 4.0734   5.69795
 4.0702   5.80266
 4.0670   5.76638
 4.0639   5.66804
 4.0607   5.57827
 4.0575   5.44104
 4.0543   5.17647
 4.0511   4.99589
 4.0480   4.92409
 4.0448   4.75433
 4.0417   4.53265
 4.0385   4.33778
 4.0354   4.23636
 4.0323   4.04740
 4.0291   3.86774
 4.0260   3.76445
 4.0229   3.64457
 4.0197   3.61603
 4.0166   3.63998
 4.0135   3.56832
 4.0104   3.44769
 4.0073   3.36681
 4.0042   3.30134
 4.0011   3.29236
 3.9981   3.23527
 3.9950   3.14083
 3.9919   3.18551
 3.9888   3.13931
 3.9857   3.00560
 3.9827   2.97995
 3.9796   3.00456
 3.9766   3.01260
 3.9735   2.92136
 3.9705   2.89569
 3.9675   2.93964
 3.9644   2.94964
 3.9614   2.96926
 3.9584   2.93451
 3.9554   2.93152
 3.9523   2.97698
 3.9493   3.17598
 3.9463   3.39218
 3.9433   3.28063
 3.9403   3.28540
 3.9373   3.49186
 3.9343   3.59662
 3.9314   3.50087
 3.9284   3.43162
 3.9254   3.52228
 3.9224   3.46165
 3.9195   3.44986
 3.9165   3.52676
 3.9136   3.56169
 3.9106   3.44119
 3.9077   3.39555
 3.9047   3.39311
 3.9018   3.49982
 3.8988   3.69322
 3.8959   3.76144
 3.8930   3.67787
 3.8901   3.65492
 3.8872   3.67715
 3.8842   3.65564
 3.8813   3.65316
 3.8784   3.62325
 3.8755   3.69971
 3.8726   3.81546
 3.8697   3.82648
 3.8669   3.76267
 3.8640   3.59565
 3.8611   3.47814
 3.8582   3.42650
 3.8554   3.49851
 3.8525   3.74505
 3.8496   3.82255
 3.8468   3.69661
 3.8439   3.73637
 3.8411   3.77114
 3.8382   3.81567
 3.8354   3.89382
 3.8326   3.89783
 3.8297   4.02170
 3.8269   4.28554
 3.8241   4.42396
 3.8213   4.30768
 3.8185   4.25122
 3.8157   4.32963
 3.8128   4.64500
 3.8100   4.73258
 3.8072   4.90170
 3.8045   5.16632
 3.8017   5.34228
 3.7989   5.54237
 3.7961   5.97116
 3.7933   6.48827
 3.7906   6.80527
 3.7878   7.17548
 3.7850   7.63266
 3.7822   7.87876
 3.7795   8.04856
 3.7767   8.16235
 3.7740   8.31182
 3.7713   8.60707
 3.7685   8.76192
 3.7658   8.82042
 3.7630   8.85346
 3.7603   8.98907
 3.7576   9.18790
 3.7549   9.33179
 3.7521   9.42002
 3.7494   9.49824
 3.7467   9.52064
 3.7440   9.62241
 3.7413   9.76983
 3.7386   9.88327
 3.7359  10.04660
 3.7332  10.33080
 3.7306  10.40110
 3.7279  10.32490
 3.7252  10.52320
 3.7225  10.70250
 3.7199  10.69730
 3.7172  10.60950
 3.7145  10.62130
 3.7119  10.76430
 3.7092  10.95100
 3.7066  11.03970
 3.7039  11.10930
 3.7013  11.16760
 3.6986  11.15270
 3.6960  11.12200
 3.6934  11.16910
 3.6907  11.19060
 3.6881  11.21310
 3.6855  11.22380
 3.6829  11.19140
 3.6803  11.24130
 3.6776  11.25720
 3.6750  11.26110
 3.6724  11.30350
 3.6698  11.32560
 3.6672  11.24380
 3.6646  11.05550
 3.6620  11.18070
 3.6595  11.14650
 3.6569  11.02670
 3.6543  10.92500
 3.6517  11.01900
 3.6492  11.14250
 3.6466  10.96220
 3.6440  10.72360
 3.6415  10.71450
 3.6389  10.74810
 3.6364  10.70080
 3.6338  10.61280
 3.6313  10.49010
 3.6287  10.39460
 3.6262  10.44020
 3.6237  10.35670
 3.6211  10.07950
 3.6186   9.94746
 3.6161   9.98936
 3.6136   9.87594
 3.6111   9.78918
 3.6085   9.76671
 3.6060   9.61658
 3.6035   9.47729
 3.6010   9.49915
 3.5985   9.45211
 3.5960   9.13609
 3.5935   8.92268
 3.5910   8.67165
 3.5886   8.42544
 3.5861   8.10523
 3.5836   7.79647
 3.5811   7.65338
 3.5787   7.29833
 3.5762   6.94007
 3.5737   6.86747
 3.5713   6.81550
 3.5688   6.81904
 3.5663   6.84209
 3.5639   6.96845
 3.5614   7.01956
 3.5590   7.10099
 3.5566   7.16196
 3.5541   6.98776
 3.5517   6.75538
 3.5493   6.45640
 3.5468   6.12142
 3.5444   5.96524
 3.5420   6.02648
 3.5396   5.87243
 3.5372   5.56076
 3.5347   5.31454
 3.5323   5.17583
 3.5299   5.06266
 3.5275   4.76954
 3.5251   4.55573
 3.5227   4.26233
 3.5203   4.06565
 3.5180   3.92763
 3.5156   3.96498
 3.5132   4.01717
 3.5108   4.00978
 3.5084   4.01341
 3.5061   3.87300
 3.5037   3.98032
 3.5013   3.83319
 3.4990   3.49814
 3.4966   3.63052
 3.4943   3.76665
 3.4919   3.66202
 3.4895   3.57739
 3.4872   3.51518
 3.4849   3.51836
 3.4825   3.60060
 3.4802   3.59603
 3.4778   3.45468
 3.4755   3.52282
 3.4732   3.69551
 3.4709   3.55861
 3.4685   3.54283
 3.4662   3.70343
 3.4639   3.91582
 3.4616   3.88630
 3.4593   3.93812
 3.4570   3.91179
 3.4547   3.83460
 3.4524   3.95737
 3.4501   3.87163
 3.4478   3.87451
 3.4455   4.11964
 3.4432   4.13298
 3.4409   4.24186
 3.4386   4.29146
 3.4364   4.16260
 3.4341   4.06386
 3.4318   4.17440
 3.4295   4.34607
 3.4273   4.34799
 3.4250   4.14556
 3.4228   4.04532
 3.4205   4.01201
 3.4182   3.91198
 3.4160   4.07133
 3.4137   4.28613
 3.4115   4.23978
 3.4093   4.01448
 3.4070   3.86288
 3.4048   4.18264
 3.4025   4.13401
 3.4003   3.87876
 3.3981   3.89624
 3.3958   3.89287
 3.3936   3.90005
 3.3914   4.02767
 3.3892   4.02778
 3.3870   3.93110
 3.3848   3.83617
 3.3826   3.74826
 3.3804   3.94678
 3.3782   4.00740
 3.3760   3.86598
 3.3738   3.71756
 3.3716   3.65757
 3.3694   3.73334
 3.3672   3.67816
 3.3650   3.69254
 3.3628   3.90681
 3.3606   3.81383
 3.3585   3.78030
 3.3563   3.72863
 3.3541   3.72876
 3.3520   3.87613
 3.3498   3.87675
 3.3476   3.73845
 3.3455   3.75616
 3.3433   4.04541
 3.3411   4.48208
 3.3390   4.86297
 3.3369   5.01567
 3.3347   5.03072
 3.3326   5.42000
 3.3304   5.70656
 3.3283   5.95154
 3.3262   6.19515
 3.3240   6.37571
 3.3219   6.61277
 3.3198   6.91182
 3.3176   7.11838
 3.3155   7.21327
 3.3134   7.32828
 3.3113   7.51096
 3.3092   7.54357
 3.3071   7.37749
 3.3049   7.23822
 3.3028   7.43458
 3.3007   7.81716
 3.2986   8.00709
 3.2965   8.34204
 3.2944   8.28051
 3.2924   8.21321
 3.2903   8.49922
 3.2882   8.85485
 3.2861   8.96994
 3.2840   9.00651
 3.2819   9.16819
 3.2799   9.25331
 3.2778   9.24939
 3.2757   9.16244
 3.2736   9.40263
 3.2716   9.59463
 3.2695   9.79695
 3.2675   9.87785
 3.2654   9.93842
 3.2634  10.01940
 3.2613   9.99924
 3.2593  10.10340
 3.2572  10.19970
 3.2552  10.39770
 3.2531  10.66370
 3.2511  10.65090
 3.2490  10.40650
 3.2470  10.49860
 3.2450  10.75330
 3.2429  10.65960
 3.2409  10.72610
 3.2389  10.92330
 3.2369  11.07750
 3.2348  11.03640
 3.2328  11.05390
 3.2308  11.15810
 3.2288  11.29550
 3.2268  11.58510
 3.2248  11.35120
 3.2228  11.36090
 3.2208  11.64210
 3.2188  12.04200
 3.2168  12.26700
 3.2148  12.07570
 3.2128  12.00860
 3.2108  12.02050
 3.2088  11.93890
 3.2068  12.02910
 3.2049  12.36820
 3.2029  12.53380
 3.2009  12.56270
 3.1989  12.60390
 3.1970  12.86870
 3.1950  12.91290
 3.1930  12.78940
 3.1911  12.43950
 3.1891  12.27890
 3.1871  12.34380
 3.1852  12.21910
 3.1832  12.27170
 3.1813  12.55120
 3.1793  12.62870
 3.1774  12.52170
 3.1754  12.39540
 3.1735  12.20590
 3.1715  12.10770
 3.1696  11.92970
 3.1677  11.43730
 3.1657  11.04490
 3.1638  10.93540
 3.1619  10.91250
 3.1599  10.75860
 3.1580  10.44530
 3.1561  10.09960
 3.1542  10.01850
 3.1523  10.27600
 3.1503  10.32900
 3.1484  10.25500
 3.1465  10.12120
 3.1446   9.98609
 3.1427  10.34930
 3.1408  10.63270
 3.1389  10.59140
 3.1370  10.45250
 3.1351  10.45180
 3.1332  10.80460
 3.1313  10.72920
 3.1294  10.61050
 3.1275  10.94250
 3.1257  11.05520
 3.1238  10.80300
 3.1219  10.35840
 3.1200  10.20440
 3.1181   9.95832
 3.1163   9.91827
 3.1144   9.87714
 3.1125   9.61038
 3.1107   9.47471
 3.1088   9.41698
 3.1069   9.42706
 3.1051   9.64780
 3.1032  10.06360
 3.1014  10.15770
 3.0995   9.94634
 3.0976   9.91787
 3.0958  10.30000
 3.0940  10.63490
 3.0921  10.64050
 3.0903  10.96250
 3.0884  11.19340
 3.0866  11.38730
 3.0848  11.42270
 3.0829  11.26880
 3.0811  11.26950
 3.0793  11.50370
 3.0774  11.87080
 3.0756  12.10650
 3.0738  11.94950
 3.0720  11.80910
 3.0701  11.82900
 3.0683  11.99930
 3.0665  11.97710
 3.0647  11.87300
 3.0629  12.23220
 3.0611  12.56970
 3.0593  12.40660
 3.0575  12.42180
 3.0557  12.43810
 3.0539  12.40600
 3.0521  12.78480
 3.0503  13.29160
 3.0485  13.35350
 3.0467  13.29010
 3.0449  13.16330
 3.0431  13.10060
 3.0413  12.88790
 3.0396  13.25930
 3.0378  13.47100
 3.0360  13.51710
 3.0342  13.78240
 3.0324  13.80320
 3.0307  13.90210
 3.0289  14.09780
 3.0271  14.03600
 3.0254  14.14600
 3.0236  14.16620
 3.0218  14.05360
 3.0201  14.06670
 3.0183  14.29020
 3.0166  14.13060
 3.0148  14.29630
 3.0130  14.53780
 3.0113  14.70750
 3.0096  14.83230
 3.0078  15.15300
 3.0061  15.19610
 3.0043  14.73440
 3.0026  14.45690
 3.0008  14.50060
 2.9991  15.39250
 2.9974  15.97830
 2.9956  15.74470
 2.9939  15.77330
 2.9922  15.60040
 2.9905  15.33350
 2.9887  15.35960
 2.9870  15.67360
 2.9853  15.80510
 2.9836  16.02050
 2.9819  15.98910
 2.9802  15.92160
 2.9784  15.80590
 2.9767  15.69880
 2.9750  15.81050
 2.9733  15.92820
 2.9716  16.04990
 2.9699  15.86450
 2.9682  15.77480
 2.9665  15.82130
 2.9648  15.89630
 2.9631  15.99350
 2.9614  16.09460
 2.9597  16.18330
 2.9581  16.15690
 2.9564  16.22330
 2.9547  16.37310
 2.9530  16.50720
 2.9513  16.23630
 2.9496  15.95160
 2.9480  15.86610
 2.9463  16.02170
 2.9446  16.03170
 2.9429  15.97420
 2.9413  16.24460
 2.9396  16.39720
 2.9379  16.04130
 2.9363  15.92470
 2.9346  16.40650
 2.9330  16.65380
 2.9313  16.59800
 2.9296  16.55060
 2.9280  16.51530
 2.9263  16.29060
 2.9247  16.29730
 2.9230  16.49040
 2.9214  16.59030
 2.9197  16.74300
 2.9181  16.78930
 2.9165  16.63190
 2.9148  16.70290
 2.9132  16.83110
 2.9116  16.48870
 2.9099  16.17020
 2.9083  16.63320
 2.9067  16.61730
 2.9050  16.67980
 2.9034  16.82850
 2.9018  16.90960
 2.9002  16.87740
 2.8985  16.70260
 2.8969  16.62930
 2.8953  16.88560
 2.8937  16.87580
 2.8921  17.11070
 2.8905  17.22400
 2.8888  17.43370
 2.8872  17.54950
 2.8856  17.48430
 2.8840  17.46270
 2.8824  17.45680
 2.8808  17.48190
 2.8792  17.19140
 2.8776  17.11340
 2.8760  17.38730
 2.8744  17.56160
 2.8728  17.51160
 2.8712  17.41600
 2.8697  17.42830
 2.8681  17.43460
 2.8665  17.40920
 2.8649  17.40420
 2.8633  17.31830
 2.8617  17.34770
 2.8602  17.77790
 2.8586  18.05620
 2.8570  18.07940
 2.8554  17.94730
 2.8539  17.92820
 2.8523  17.61470
 2.8507  17.50660
 2.8492  17.68900
 2.8476  17.63530
 2.8460  17.30590
 2.8445  17.27150
 2.8429  17.43910
 2.8413  17.52790
 2.8398  17.84770
 2.8382  17.34800
 2.8367  16.66810
 2.8351  16.73610
 2.8336  16.94520
 2.8320  17.22290
 2.8305  17.03100
 2.8289  16.47140
 2.8274  15.95380
 2.8259  15.94240
 2.8243  15.77640
 2.8228  15.66770
 2.8213  15.65200
 2.8197  15.69100
 2.8182  15.39620
 2.8167  14.86250
 2.8151  14.60290
 2.8136  14.46710
 2.8121  14.04210
 2.8106  13.68820
 2.8090  13.50790
 2.8075  13.71280
 2.8060  13.49520
 2.8045  12.95540
 2.8030  12.82560
 2.8014  12.52340
 2.7999  11.99360
 2.7984  12.17900
 2.7969  11.94620
 2.7954  10.78970
 2.7939  10.04850
 2.7924  10.24830
 2.7909  10.49960
 2.7894  10.25250
 2.7879  10.50340
 2.7864  10.55670
 2.7849  10.29770
 2.7834  10.33330
 2.7819  10.61590
 2.7804  10.27080
 2.7789  10.68750
 2.7774  11.59940
 2.7759  12.20270
 2.7745  12.36820
 2.7730  12.49840
 2.7715  12.64140
 2.7700  12.82470
 2.7685  13.23860
 2.7671  13.35500
 2.7656  13.84510
 2.7641  14.57610
 2.7626  14.72750
 2.7612  14.30560
 2.7597  14.39460
 2.7582  14.84900
 2.7568  15.08640
 2.7553  15.12870
 2.7538  15.62270
 2.7524  15.80210
 2.7509  15.52400
 2.7494  15.54680
 2.7480  15.82200
 2.7465  16.01460
 2.7451  16.21520
 2.7436  16.51000
 2.7422  17.03560
 2.7407  17.33550
 2.7393  17.52850
 2.7378  17.56360
 2.7364  17.59590
 2.7350  18.00940
 2.7335  18.39800
 2.7321  18.49270
 2.7306  18.54930
 2.7292  18.87280
 2.7278  19.28310
 2.7263  19.94570
 2.7249  20.25200
 2.7235  20.57720
 2.7220  20.86700
 2.7206  21.54730
 2.7192  22.20920
 2.7178  22.90490
 2.7163  23.51530
 2.7149  23.81060
 2.7135  23.87820
 2.7121  24.19340
 2.7106  25.02860
 2.7092  25.96380
 2.7078  26.43640
 2.7064  26.90930
 2.7050  27.63750
 2.7036  28.44210
 2.7022  28.92020
 2.7008  29.41530
 2.6994  29.71370
 2.6980  30.46530
 2.6965  31.40460
 2.6951  32.08720
 2.6938  32.60960
 2.6923  32.96400
 2.6910  33.34490
 2.6896  34.19900
 2.6882  34.71320
 2.6868  35.02080
 2.6854  35.33660
 2.6840  35.72930
 2.6826  35.94840
 2.6812  36.25990
 2.6798  36.57170
 2.6784  36.80350
 2.6771  37.18580
 2.6757  37.57160
 2.6743  37.94530
 2.6729  38.16730
 2.6715  38.41950
 2.6702  38.46980
 2.6688  38.39500
 2.6674  38.90820
 2.6660  39.34110
 2.6647  39.66330
 2.6633  39.67510
 2.6619  39.62490
 2.6606  40.19700
 2.6592  40.86730
 2.6578  41.13100
 2.6565  40.87800
 2.6551  40.68840
 2.6538  40.85980
 2.6524  41.03780
 2.6511  41.39820
 2.6497  41.15970
 2.6484  40.53380
 2.6470  40.39920
 2.6456  40.69650
 2.6443  40.79380
 2.6429  41.28080
 2.6416  41.63590
 2.6403  41.18120
 2.6389  41.20010
 2.6376  41.21040
 2.6362  40.45380
 2.6349  40.38780
 2.6336  40.48460
 2.6322  40.41610
 2.6309  40.37090
 2.6296  40.04760
 2.6282  39.77530
 2.6269  39.81130
 2.6256  39.76210
 2.6242  39.75390
 2.6229  39.71870
 2.6216  39.46880
 2.6203  38.99350
 2.6189  39.02100
 2.6176  38.76810
 2.6163  38.45060
 2.6150  38.04360
 2.6136  37.99220
 2.6123  37.81810
 2.6110  37.49100
 2.6097  37.36160
 2.6084  37.29020
 2.6071  36.99730
 2.6058  36.68070
 2.6044  36.19210
 2.6031  35.91700
 2.6018  35.89300
 2.6005  35.88180
 2.5992  35.03640
 2.5979  34.43360
 2.5966  34.37380
 2.5953  33.98120
 2.5940  33.37470
 2.5927  32.88370
 2.5914  32.20530
 2.5901  31.39920
 2.5888  30.67970
 2.5876  30.09770
 2.5863  30.00830
 2.5850  29.64480
 2.5837  29.12870
 2.5824  29.11510
 2.5811  28.75280
 2.5798  28.31930
 2.5785  28.32290
 2.5773  28.04500
 2.5760  27.71920
 2.5747  27.23680
 2.5734  26.58570
 2.5722  26.10490
 2.5709  25.49870
 2.5696  24.34640
 2.5683  23.66740
 2.5671  23.42600
 2.5658  23.16560
 2.5645  22.86000
 2.5633  22.20840
 2.5620  20.93000
 2.5607  19.93460
 2.5595  19.38060
 2.5582  18.52220
 2.5569  17.82850
 2.5557  17.03610
 2.5544  16.06320
 2.5532  15.31540
 2.5519  14.71990
 2.5507  14.57160
 2.5494  14.21100
 2.5481  13.74600
 2.5469  13.36970
 2.5456  12.56690
 2.5444  12.26150
 2.5431  12.38360
 2.5419  12.33680
 2.5406  12.12770
 2.5394  11.53900
 2.5382  11.11070
 2.5369  11.03490
 2.5357  11.17100
 2.5344  11.62750
 2.5332  11.54040
 2.5320  11.57120
 2.5307  12.08000
 2.5295  12.65940
 2.5283  12.09890
 2.5270  11.91640
 2.5258  12.50690
 2.5246  13.10350
 2.5233  13.17260
 2.5221  13.07980
 2.5209  13.09560
 2.5197  13.30270
 2.5184  13.79310
 2.5172  14.13180
 2.5160  14.46350
 2.5148  14.50860
 2.5136  14.42250
 2.5123  14.87460
 2.5111  14.87800
 2.5099  15.31320
 2.5087  15.69030
 2.5075  15.27850
 2.5063  15.10710
 2.5051  15.27230
 2.5038  14.99040
 2.5026  14.71970
 2.5014  14.70930
 2.5002  15.47570
 2.4990  15.80440
 2.4978  15.67710
 2.4966  15.79650
 2.4954  15.44570
 2.4942  15.27540
 2.4930  15.53020
 2.4918  16.00600
 2.4906  16.32560
 2.4894  16.35250
 2.4882  16.22600
 2.4870  16.36450
 2.4858  16.53140
 2.4846  16.21280
 2.4835  16.39960
 2.4823  17.00390
 2.4811  17.44330
 2.4799  17.46150
 2.4787  17.45710
 2.4775  17.92090
 2.4764  18.22880
 2.4752  18.29600
 2.4740  18.84840
 2.4728  19.87050
 2.4716  20.13620
 2.4705  19.97130
 2.4693  20.50250
 2.4681  20.91050
 2.4669  20.61080
 2.4657  21.44810
 2.4646  22.48030
 2.4634  23.00760
 2.4622  22.94390
 2.4611  22.99700
 2.4599  23.22730
 2.4587  23.89510
 2.4576  24.87150
 2.4564  25.32280
 2.4552  25.26610
 2.4541  25.12040
 2.4529  25.54890
 2.4518  25.95680
 2.4506  26.74290
 2.4494  26.93920
 2.4483  27.24830
 2.4471  27.37510
 2.4460  27.31060
 2.4448  27.83500
 2.4437  28.39620
 2.4425  28.71360
 2.4414  28.87080
 2.4402  29.02060
 2.4391  29.01090
 2.4379  29.37790
 2.4368  30.01000
 2.4356  30.80750
 2.4345  31.19780
 2.4333  31.77230
 2.4322  31.99100
 2.4311  32.02450
 2.4299  31.97180
 2.4288  32.31760
 2.4276  33.13120
 2.4265  33.02700
 2.4254  33.28050
 2.4242  34.06430
 2.4231  34.87530
 2.4220  35.74040
 2.4209  36.40540
 2.4197  36.31880
 2.4186  36.38740
 2.4175  36.92560
 2.4163  37.25950
 2.4152  37.21100
 2.4141  37.32140
 2.4130  37.51290
 2.4118  37.27840
 2.4107  37.00140
 2.4096  37.08740
 2.4085  36.94770
 2.4074  36.81180
 2.4063  36.76310
 2.4051  36.17320
 2.4040  36.46260
 2.4029  36.94490
 2.4018  36.43910
 2.4007  36.41160
 2.3996  37.17140
 2.3985  37.80630
 2.3973  37.94990
 2.3962  38.11720
 2.3951  38.29770
 2.3940  38.01940
 2.3929  37.36180
 2.3918  37.84350
 2.3907  38.74500
 2.3896  38.49160
 2.3885  37.97220
 2.3874  37.78810
 2.3863  37.65520
 2.3852  37.96410
 2.3841  37.75760
 2.3830  37.51400
 2.3819  37.22520
 2.3808  36.61350
 2.3798  36.02000
 2.3786  35.76710
 2.3776  35.39430
 2.3765  34.88400
 2.3754  34.25040
 2.3743  32.87300
 2.3732  32.17340
 2.3721  31.66170
 2.3710  31.29260
 2.3700  31.12050
 2.3689  31.10670
 2.3678  30.39440
 2.3667  29.35270
 2.3656  28.27720
 2.3645  27.16380
 2.3635  26.28910
 2.3624  25.48030
 2.3613  24.70270
 2.3603  23.74290
 2.3592  22.32800
 2.3581  21.59420
 2.3570  21.79610
 2.3560  21.73990
 2.3549  20.83360
 2.3538  19.61530
 2.3527  18.78750
 2.3517  18.56140
 2.3506  18.64130
 2.3495  18.68160
 2.3485  18.13250
 2.3474  17.90320
 2.3464  17.59920
 2.3453  17.28530
 2.3442  17.19770
 2.3432  17.50040
 2.3421  17.99000
 2.3411  17.75640
 2.3400  16.89780
 2.3390  15.92050
 2.3379  16.03740
 2.3369  16.94570
 2.3358  17.04770
 2.3347  17.04910
 2.3337  17.66990
 2.3326  18.04040
 2.3316  17.76800
 2.3306  17.83350
 2.3295  18.11940
 2.3285  18.37100
 2.3274  19.07760
 2.3264  19.68900
 2.3253  19.05470
 2.3243  19.38680
 2.3232  19.46770
 2.3222  19.10430
 2.3212  19.87260
 2.3201  20.34600
 2.3191  20.01300
 2.3180  20.40190
 2.3170  20.63320
 2.3160  20.57750
 2.3149  21.20720
 2.3139  21.56580
 2.3129  21.28000
 2.3118  20.98890
 2.3108  21.21810
 2.3098  21.39980
 2.3088  21.74730
 2.3077  22.35530
 2.3067  22.03660
 2.3057  21.95510
 2.3047  22.34880
 2.3036  22.75880
 2.3026  22.36650
 2.3016  22.06640
 2.3006  21.76760
 2.2995  21.87330
 2.2985  22.13060
 2.2975  22.63390
 2.2965  23.07370
 2.2955  23.55160
 2.2944  23.84340
 2.2934  23.64420
 2.2924  23.69470
 2.2914  23.74530
 2.2904  23.65370
 2.2894  23.36160
 2.2884  23.55960
 2.2874  24.55440
 2.2864  25.23530
 2.2854  25.09590
 2.2843  25.58770
 2.2833  25.64590
 2.2823  26.07580
 2.2813  26.56020
 2.2803  27.31660
 2.2793  27.88310
 2.2783  28.48100
 2.2773  28.10850
 2.2763  27.77970
 2.2753  28.41330
 2.2743  28.89280
 2.2733  29.61030
 2.2723  30.62290
 2.2713  30.72230
 2.2703  30.70550
 2.2694  31.21920
 2.2684  31.34320
 2.2674  31.21030
 2.2664  30.73800
 2.2654  30.56340
 2.2644  31.18110
 2.2634  32.34470
 2.2624  32.80760
 2.2614  32.70800
 2.2605  33.41620
 2.2595  34.39840
 2.2585  34.34140
 2.2575  34.55630
 2.2565  35.37150
 2.2555  36.22660
 2.2546  36.26440
 2.2536  36.44800
 2.2526  36.45850
 2.2516  36.34190
 2.2506  37.33750
 2.2497  38.02370
 2.2487  37.69770
 2.2477  37.65460
 2.2467  37.08530
 2.2458  36.44900
 2.2448  36.83590
 2.2438  37.99340
 2.2428  38.91650
 2.2419  39.26320
 2.2409  39.25370
 2.2399  39.68450
 2.2390  39.86660
 2.2380  39.53710
 2.2370  39.81090
 2.2361  40.55200
 2.2351  41.24780
 2.2342  41.34860
 2.2332  41.04410
 2.2322  41.40260
 2.2313  41.55780
 2.2303  41.41280
 2.2294  41.40940
 2.2284  41.28260
 2.2274  40.98450
 2.2265  42.02040
 2.2255  43.48080
 2.2246  43.23780
 2.2236  42.21960
 2.2227  42.69680
 2.2217  43.80290
 2.2208  43.71020
 2.2198  44.10920
 2.2189  45.36260
 2.2179  45.74890
 2.2170  45.48740
 2.2160  44.94560
 2.2151  44.30540
 2.2141  43.74390
 2.2132  44.62350
 2.2122  44.88720
 2.2113  45.00010
 2.2103  45.43050
 2.2094  46.49850
 2.2085  46.98790
 2.2075  46.91480
 2.2066  46.80630
 2.2056  47.36830
 2.2047  47.45200
 2.2038  47.16790
 2.2028  46.90490
 2.2019  47.95390
 2.2010  48.71280
 2.2000  48.12060
 2.1991  48.32390
 2.1982  48.66490
 2.1972  48.41080
 2.1963  48.67010
 2.1954  49.29610
 2.1944  49.78770
 2.1935  49.09380
 2.1926  49.10930
 2.1917  49.60880
 2.1907  49.49340
 2.1898  49.32840
 2.1889  49.61420
 2.1880  49.37940
 2.1870  49.32280
 2.1861  50.03280
 2.1852  49.86690
 2.1843  49.55760
 2.1833  49.32380
 2.1824  49.01520
 2.1815  48.77480
 2.1806  48.62800
 2.1797  48.99860
 2.1788  48.97990
 2.1778  48.50750
 2.1769  48.61710
 2.1760  48.50170
 2.1751  48.41740
 2.1742  48.47020
 2.1733  48.14200
 2.1724  47.76160
 2.1715  47.14630
 2.1706  46.02960
 2.1696  45.94920
 2.1687  46.50420
 2.1678  47.06170
 2.1669  46.96480
 2.1660  45.97130
 2.1651  45.45340
 2.1642  45.85480
 2.1633  46.33000
 2.1624  45.71560
 2.1615  44.56040
 2.1606  44.18970
 2.1597  44.98400
 2.1588  45.15530
 2.1579  45.53680
 2.1570  45.15040
 2.1561  44.87110
 2.1552  45.50430
 2.1543  46.01320
 2.1534  44.94930
 2.1525  45.04030
 2.1517  46.06960
 2.1507  45.97400
 2.1499  45.06070
 2.1490  45.20380
 2.1481  45.17010
 2.1472  45.56520
 2.1463  46.63080
 2.1454  47.51560
 2.1445  48.71950
 2.1436  49.00320
 2.1428  48.39300
 2.1419  49.10500
 2.1410  50.17010
 2.1401  49.84220
 2.1392  49.12530
 2.1383  49.88050
 2.1375  50.65860
 2.1366  51.13870
 2.1357  52.08630
 2.1348  52.13480
 2.1339  51.47400
 2.1331  51.89350
 2.1322  51.56210
 2.1313  52.04710
 2.1304  52.24930
 2.1296  52.45730
 2.1287  53.20970
 2.1278  53.68190
 2.1269  53.80650
 2.1261  53.76130
 2.1252  53.69860
 2.1243  53.66410
 2.1235  53.80480
 2.1226  53.78070
 2.1217  53.83410
 2.1208  54.81440
 2.1200  55.24610
 2.1191  55.35670
 2.1183  55.26920
 2.1174  55.25050
 2.1165  54.95700
 2.1157  54.69850
 2.1148  54.28960
 2.1139  54.89540
 2.1131  55.31040
 2.1122  55.60790
 2.1113  55.82950
 2.1105  56.11560
 2.1096  55.40570
 2.1088  55.53190
 2.1079  55.36900
 2.1071  56.37060
 2.1062  57.67150
 2.1054  57.78650
 2.1045  57.78730
 2.1036  57.96210
 2.1028  57.75410
 2.1019  57.39200
 2.1011  57.32020
 2.1002  57.92790
 2.0994  59.30570
 2.0985  60.16660
 2.0977  59.28430
 2.0968  58.09840
 2.0960  57.97950
 2.0951  57.68550
 2.0943  58.77640
 2.0934  60.39110
 2.0926  61.12790
 2.0918  59.68220
 2.0909  59.02420
 2.0901  59.74130
 2.0892  59.76100
 2.0884  59.97760
 2.0875  58.92300
 2.0867  58.71550
 2.0859  59.22800
 2.0850  59.97420
 2.0842  61.33430
 2.0833  61.21760
 2.0825  61.98840
 2.0817  62.68890
 2.0808  62.52220
 2.0800  61.63430
 2.0792  61.07850
 2.0783  60.12820
 2.0775  59.12460
 2.0767  59.17450
 2.0759  59.58890
 2.0750  60.46390
 2.0742  60.78490
 2.0734  60.36740
 2.0725  60.74130
 2.0717  60.92100
 2.0709  61.99990
 2.0701  61.00280
 2.0692  59.24720
 2.0684  61.41900
 2.0676  63.00270
 2.0667  62.52470
 2.0659  61.53460
 2.0651  61.36770
 2.0643  62.68110
 2.0635  62.82720
 2.0626  62.30770
 2.0618  62.26460
 2.0610  62.81920
 2.0602  62.56470
 2.0594  61.63580
 2.0585  62.19090
 2.0577  61.88080
 2.0569  61.34030
 2.0561  61.52930
 2.0553  61.04330
 2.0545  60.53300
 2.0537  59.33070
 2.0528  59.72530
 2.0520  60.62980
 2.0512  59.70240
 2.0504  59.39550
 2.0496  60.91590
 2.0488  61.73040
 2.0480  61.70800
 2.0472  61.34820
 2.0464  61.39530
 2.0456  61.90380
 2.0447  61.09000
 2.0439  60.67430
 2.0431  60.50770
 2.0423  60.81960
 2.0415  61.33290
 2.0407  62.12910
 2.0399  62.24470
 2.0391  62.77680
 2.0383  62.07850
 2.0375  61.31780
 2.0367  60.72170
 2.0359  60.57290
 2.0351  60.47340
 2.0343  60.07380
 2.0335  60.17240
 2.0327  59.85760
 2.0319  59.10460
 2.0311  58.95970
 2.0303  58.73220
 2.0295  58.43970
 2.0287  59.25420
 2.0280  59.22440
 2.0272  57.76910
 2.0264  57.86760
 2.0256  57.50800
 2.0248  57.04650
 2.0240  57.22500
 2.0232  57.63370
 2.0224  57.20090
 2.0216  56.59710
 2.0208  55.18050
 2.0200  54.92110
 2.0193  55.70880
 2.0185  54.96500
 2.0177  55.18840
 2.0169  56.73710
 2.0161  56.91030
 2.0153  55.77710
 2.0146  55.05190
 2.0138  55.40470
 2.0130  55.09530
 2.0122  53.53460
 2.0114  53.43310
 2.0107  53.62170
 2.0099  53.26630
 2.0091  52.68050
 2.0083  52.08680
 2.0075  51.11000
 2.0068  50.62920
 2.0060  50.46830
 2.0052  50.00700
 2.0044  50.18660
 2.0037  48.51730
 2.0029  45.93500
 2.0021  44.79400
 2.0013  45.30010
 2.0006  46.07880
 1.9998  45.82930
