Name: Tuff
Type: Rock
Class: Igneous
Subclass:  Felsic 
Particle Size: Solid surface
Sample No.: Ward04.txt
Owner: JPL
Wavelength range: IR 
Origin: Ward's Collection of American Rocks.  Sample locality - Cripple Creek, Teller county, Colorado.
Collected by:  Ward's Natural Science
Description: A light-gray felsitic rock, somewhat porous and earthy in
appearance, with speckles of pyrite.
Geologic age - Tertiary (Oligocene).



Measurement: Hemispherical reflectance
First Column: X
Second Column: Y
X Units: Wavelength (micrometers)
Y Units: Reflectance (percent)
First X Value: 15.3871
Last X Value: 1.9998
Number of X Values: 2257
Additional information: None

15.3871   3.45868
15.3416   3.34528
15.2964   3.25966
15.2514   3.00695
15.2066   2.86622
15.1622   2.94140
15.1180   2.74405
15.0740   2.37107
15.0303   2.40673
14.9869   2.60433
14.9437   2.65048
14.9008   2.75033
14.8581   2.77524
14.8156   2.70424
14.7734   2.68015
14.7314   2.53656
14.6897   2.38428
14.6482   2.74369
14.6069   2.94204
14.5659   2.79753
14.5251   2.76560
14.4845   2.60015
14.4442   2.58224
14.4041   2.78936
14.3642   2.74766
14.3245   2.47031
14.2850   2.43360
14.2458   2.56649
14.2068   2.55188
14.1679   2.67266
14.1293   2.70972
14.0909   2.68306
14.0528   2.98267
14.0148   3.21738
13.9770   3.12999
13.9394   3.03803
13.9021   3.05631
13.8649   3.17598
13.8279   3.24029
13.7911   3.00316
13.7546   2.74646
13.7182   2.67757
13.6820   2.70269
13.6460   2.73978
13.6101   2.77704
13.5745   2.77497
13.5391   3.04279
13.5038   3.28712
13.4687   3.31768
13.4339   3.24056
13.3991   3.14152
13.3646   3.10756
13.3302   2.92317
13.2961   2.88819
13.2621   2.97492
13.2282   3.22212
13.1946   3.27639
13.1611   3.36146
13.1278   3.39970
13.0946   3.20282
13.0616   3.22584
13.0288   3.21355
12.9962   2.95932
12.9637   2.88136
12.9313   3.02008
12.8992   3.13169
12.8672   3.22573
12.8353   3.34386
12.8036   3.30738
12.7721   3.17471
12.7407   3.19308
12.7095   3.10476
12.6784   3.00372
12.6475   2.99274
12.6167   2.93507
12.5861   2.80242
12.5556   2.87501
12.5253   2.95664
12.4951   2.99254
12.4651   2.93301
12.4352   2.72966
12.4054   2.65550
12.3758   2.51523
12.3463   2.25121
12.3170   2.33927
12.2878   2.61886
12.2588   2.70071
12.2299   2.74252
12.2011   2.90472
12.1725   3.03354
12.1439   3.08306
12.1156   3.23745
12.0873   3.32564
12.0592   3.17605
12.0312   3.24981
12.0034   3.43064
11.9757   3.56790
11.9481   3.76177
11.9206   3.69881
11.8933   3.51702
11.8661   3.45730
11.8390   3.56738
11.8120   3.78594
11.7852   3.86427
11.7584   3.89374
11.7318   3.92614
11.7053   4.02690
11.6790   4.04335
11.6527   3.92115
11.6266   3.91557
11.6006   4.13788
11.5747   4.31728
11.5489   4.37587
11.5233   4.42305
11.4977   4.43287
11.4723   4.42067
11.4469   4.36928
11.4217   4.42065
11.3966   4.41063
11.3716   4.40806
11.3468   4.45606
11.3220   4.55837
11.2973   4.72018
11.2728   4.77175
11.2483   4.75310
11.2240   4.86895
11.1997   4.89789
11.1756   4.81974
11.1515   5.00738
11.1276   5.01413
11.1038   4.95480
11.0801   5.12138
11.0564   5.24617
11.0329   5.26815
11.0095   5.33787
10.9862   5.33211
10.9629   5.26084
10.9398   5.23962
10.9168   5.31086
10.8938   5.29075
10.8710   5.29328
10.8483   5.28786
10.8256   5.31431
10.8031   5.30663
10.7806   5.29874
10.7582   5.44665
10.7360   5.67126
10.7138   5.71096
10.6917   5.71184
10.6697   5.77380
10.6478   5.95652
10.6260   5.87504
10.6042   5.83186
10.5826   6.01222
10.5610   6.10736
10.5396   6.28430
10.5182   6.53178
10.4969   6.55592
10.4757   6.57274
10.4546   6.79842
10.4335   6.98814
10.4126   7.04124
10.3917   7.14671
10.3709   7.26779
10.3502   7.32537
10.3296   7.49049
10.3091   7.62842
10.2886   7.85286
10.2683   8.07438
10.2480   8.37518
10.2277   8.34681
10.2076   8.34670
10.1876   8.65371
10.1676   8.87261
10.1477   9.17349
10.1279   9.53653
10.1081   9.56725
10.0885   9.56252
10.0689   9.68833
10.0494   9.85744
10.0299  10.00640
10.0106  10.20990
 9.9913  10.52100
 9.9720  10.70710
 9.9529  10.72430
 9.9338  10.74270
 9.9148  10.92210
 9.8959  11.08850
 9.8771  11.13280
 9.8583  10.90770
 9.8396  10.74330
 9.8210  10.67850
 9.8024  10.61370
 9.7839  10.67670
 9.7655  10.69450
 9.7471  10.73030
 9.7288  10.98190
 9.7106  11.31260
 9.6925  11.65050
 9.6744  11.93720
 9.6564  12.20370
 9.6384  12.37180
 9.6205  12.28980
 9.6027  12.03710
 9.5850  12.00500
 9.5673  12.04180
 9.5497  11.87400
 9.5321  11.59600
 9.5146  11.32350
 9.4972  11.10160
 9.4798  10.85180
 9.4625  10.63460
 9.4453  10.44960
 9.4281  10.34510
 9.4110  10.40920
 9.3940  10.58080
 9.3770  10.62640
 9.3600  10.55300
 9.3432  10.52480
 9.3264  10.65420
 9.3096  10.60500
 9.2930  10.57090
 9.2763  10.60690
 9.2598  10.50690
 9.2432  10.35590
 9.2268  10.28010
 9.2104  10.27920
 9.1941  10.17060
 9.1778  10.04770
 9.1616   9.87054
 9.1454   9.75621
 9.1293   9.65439
 9.1133   9.52238
 9.0973   9.36458
 9.0814   9.19276
 9.0655   9.06908
 9.0497   8.94222
 9.0339   8.85569
 9.0182   8.82944
 9.0025   8.77548
 8.9870   8.76686
 8.9714   8.79919
 8.9559   8.79298
 8.9405   8.78126
 8.9251   8.86894
 8.9097   9.03827
 8.8945   9.00550
 8.8792   8.98117
 8.8641   8.97067
 8.8489   8.90173
 8.8338   9.00637
 8.8188   9.22287
 8.8039   9.20609
 8.7889   9.08959
 8.7741   9.07717
 8.7592   9.23011
 8.7445   9.29931
 8.7297   9.17106
 8.7151   9.14388
 8.7005   9.22727
 8.6859   9.30332
 8.6714   9.32335
 8.6569   9.17777
 8.6425   8.91273
 8.6281   8.83139
 8.6137   8.92221
 8.5994   9.14464
 8.5852   9.49693
 8.5710   9.84418
 8.5569  10.03350
 8.5428  10.07650
 8.5287  10.06000
 8.5147  10.17500
 8.5008  10.22930
 8.4869  10.30270
 8.4730  10.45010
 8.4592  10.48610
 8.4454  10.57380
 8.4316  10.76550
 8.4180  10.75770
 8.4043  10.68990
 8.3907  10.70060
 8.3772  10.76990
 8.3637  10.72900
 8.3502  10.63350
 8.3368  10.56850
 8.3234  10.61090
 8.3100  10.49310
 8.2967  10.34810
 8.2835  10.35070
 8.2703  10.20090
 8.2571  10.03390
 8.2440   9.99640
 8.2309   9.97175
 8.2179   9.79842
 8.2049   9.46054
 8.1919   9.17385
 8.1790   9.00382
 8.1661   8.66625
 8.1532   8.11528
 8.1404   7.59199
 8.1277   7.22398
 8.1150   6.81961
 8.1023   6.42070
 8.0897   6.01547
 8.0770   5.78678
 8.0645   5.49768
 8.0520   5.21432
 8.0395   4.99079
 8.0270   4.67534
 8.0146   4.55556
 8.0023   4.50944
 7.9899   4.32723
 7.9776   4.24181
 7.9654   4.19137
 7.9532   4.00227
 7.9410   3.76788
 7.9288   3.64575
 7.9167   3.54180
 7.9047   3.47984
 7.8926   3.47219
 7.8807   3.27176
 7.8687   3.08074
 7.8568   3.00566
 7.8449   2.94967
 7.8330   3.04150
 7.8212   3.06092
 7.8094   3.00793
 7.7977   2.88818
 7.7860   2.87219
 7.7743   2.97698
 7.7627   3.01795
 7.7511   2.92239
 7.7395   2.78263
 7.7280   2.58792
 7.7165   2.57198
 7.7050   2.65646
 7.6936   2.61065
 7.6822   2.60360
 7.6708   2.61718
 7.6595   2.51988
 7.6482   2.52115
 7.6369   2.51984
 7.6257   2.39667
 7.6145   2.24149
 7.6033   2.12608
 7.5922   2.08539
 7.5811   2.03779
 7.5700   2.04221
 7.5590   2.09216
 7.5480   2.08697
 7.5370   2.07038
 7.5261   2.18764
 7.5152   2.26325
 7.5043   2.28455
 7.4935   2.16028
 7.4826   2.12987
 7.4718   2.21557
 7.4611   2.21393
 7.4504   2.13252
 7.4397   2.19114
 7.4290   2.23989
 7.4184   2.08065
 7.4078   2.10407
 7.3972   2.24186
 7.3867   2.23958
 7.3762   2.19748
 7.3657   2.19503
 7.3553   2.22765
 7.3449   2.22709
 7.3345   2.20804
 7.3241   2.18358
 7.3138   2.24245
 7.3035   2.26145
 7.2932   2.15417
 7.2830   2.09093
 7.2727   2.07516
 7.2626   2.08883
 7.2524   2.03881
 7.2423   2.06402
 7.2322   2.16178
 7.2221   2.31971
 7.2120   2.26994
 7.2020   2.13145
 7.1921   2.18515
 7.1821   2.23248
 7.1722   2.27016
 7.1623   2.33842
 7.1524   2.37521
 7.1425   2.33140
 7.1327   2.27787
 7.1229   2.30165
 7.1131   2.36928
 7.1034   2.37905
 7.0937   2.40566
 7.0840   2.39871
 7.0743   2.27504
 7.0647   2.20415
 7.0551   2.23431
 7.0455   2.30165
 7.0359   2.21716
 7.0264   2.24098
 7.0169   2.40745
 7.0074   2.42971
 6.9979   2.40202
 6.9885   2.45303
 6.9791   2.43128
 6.9697   2.42822
 6.9604   2.44213
 6.9510   2.43259
 6.9417   2.47324
 6.9324   2.46370
 6.9232   2.52141
 6.9140   2.47217
 6.9047   2.35134
 6.8956   2.32658
 6.8864   2.41719
 6.8773   2.48359
 6.8682   2.42397
 6.8591   2.45426
 6.8500   2.58436
 6.8410   2.55523
 6.8320   2.39334
 6.8230   2.41053
 6.8140   2.47863
 6.8051   2.44232
 6.7962   2.46507
 6.7873   2.53658
 6.7784   2.57428
 6.7695   2.64758
 6.7607   2.66657
 6.7519   2.65738
 6.7431   2.61452
 6.7344   2.61068
 6.7256   2.61421
 6.7169   2.66224
 6.7082   2.63330
 6.6996   2.62519
 6.6909   2.63898
 6.6823   2.66374
 6.6737   2.67078
 6.6651   2.63520
 6.6566   2.63065
 6.6480   2.72646
 6.6395   2.74583
 6.6310   2.79391
 6.6226   2.76805
 6.6141   2.66343
 6.6057   2.60501
 6.5973   2.65395
 6.5889   2.74315
 6.5805   2.72932
 6.5722   2.70922
 6.5639   2.75796
 6.5556   2.74250
 6.5473   2.71078
 6.5390   2.69308
 6.5308   2.72489
 6.5226   2.79422
 6.5144   2.81549
 6.5062   2.74926
 6.4981   2.71309
 6.4900   2.76878
 6.4818   2.74413
 6.4737   2.86144
 6.4657   3.02482
 6.4576   3.03137
 6.4496   3.00771
 6.4416   2.92176
 6.4336   2.88979
 6.4256   2.95371
 6.4177   2.89199
 6.4097   2.85685
 6.4018   2.87647
 6.3939   2.90957
 6.3860   2.90304
 6.3782   2.87457
 6.3704   2.88548
 6.3625   2.91973
 6.3547   2.89550
 6.3470   2.79961
 6.3392   2.70626
 6.3315   2.76681
 6.3237   2.84992
 6.3160   2.81817
 6.3083   2.72689
 6.3007   2.62864
 6.2930   2.58785
 6.2854   2.56011
 6.2778   2.59914
 6.2702   2.63357
 6.2626   2.49357
 6.2551   2.37291
 6.2476   2.35392
 6.2400   2.41268
 6.2325   2.44929
 6.2251   2.40990
 6.2176   2.27891
 6.2101   2.21248
 6.2027   2.20602
 6.1953   2.17293
 6.1879   2.24101
 6.1805   2.19403
 6.1732   2.07469
 6.1658   2.09608
 6.1585   2.19634
 6.1512   2.35037
 6.1439   2.37614
 6.1367   2.27187
 6.1294   2.22815
 6.1222   2.26035
 6.1149   2.30656
 6.1077   2.46665
 6.1006   2.53426
 6.0934   2.50029
 6.0862   2.36737
 6.0791   2.37411
 6.0720   2.42878
 6.0649   2.33698
 6.0578   2.19110
 6.0507   2.14700
 6.0437   2.25578
 6.0366   2.43350
 6.0296   2.58483
 6.0226   2.57191
 6.0156   2.57165
 6.0087   2.53542
 6.0017   2.49987
 5.9948   2.55859
 5.9878   2.56351
 5.9809   2.60529
 5.9740   2.60882
 5.9672   2.63990
 5.9603   2.68448
 5.9535   2.68697
 5.9466   2.70232
 5.9398   2.71286
 5.9330   2.65141
 5.9262   2.63912
 5.9195   2.78864
 5.9127   2.76661
 5.9060   2.71791
 5.8993   2.80797
 5.8926   2.83056
 5.8859   2.85323
 5.8792   2.93352
 5.8726   2.99113
 5.8659   2.93541
 5.8593   3.04647
 5.8527   3.11692
 5.8461   3.03885
 5.8395   3.06167
 5.8329   3.12744
 5.8264   3.19310
 5.8198   3.28319
 5.8133   3.34447
 5.8068   3.28837
 5.8003   3.24823
 5.7938   3.37263
 5.7874   3.43376
 5.7809   3.48624
 5.7745   3.48781
 5.7680   3.49186
 5.7616   3.52027
 5.7552   3.50528
 5.7489   3.51604
 5.7425   3.56664
 5.7361   3.58321
 5.7298   3.54839
 5.7235   3.52777
 5.7172   3.50905
 5.7109   3.57017
 5.7046   3.66520
 5.6983   3.68975
 5.6921   3.69784
 5.6858   3.67184
 5.6796   3.67967
 5.6734   3.71766
 5.6672   3.73265
 5.6610   3.66276
 5.6548   3.68582
 5.6487   3.74303
 5.6425   3.65684
 5.6364   3.66411
 5.6303   3.75618
 5.6242   3.81880
 5.6181   3.73149
 5.6120   3.63297
 5.6059   3.62732
 5.5999   3.65594
 5.5938   3.68558
 5.5878   3.74316
 5.5818   3.80575
 5.5758   3.76260
 5.5698   3.67322
 5.5638   3.72305
 5.5578   3.82007
 5.5519   3.84428
 5.5460   3.82540
 5.5400   3.84182
 5.5341   3.92904
 5.5282   3.92220
 5.5223   3.85968
 5.5164   3.97187
 5.5106   4.17253
 5.5047   4.19951
 5.4989   4.14427
 5.4931   4.17898
 5.4873   4.27168
 5.4815   4.26734
 5.4757   4.25917
 5.4699   4.35104
 5.4641   4.45764
 5.4584   4.46680
 5.4527   4.41671
 5.4469   4.42391
 5.4412   4.47657
 5.4355   4.52387
 5.4298   4.52753
 5.4241   4.52733
 5.4185   4.56514
 5.4128   4.48791
 5.4072   4.44612
 5.4015   4.50118
 5.3959   4.55568
 5.3903   4.50750
 5.3847   4.46840
 5.3791   4.44506
 5.3735   4.49015
 5.3680   4.51436
 5.3624   4.43103
 5.3569   4.40187
 5.3514   4.44494
 5.3458   4.45596
 5.3403   4.47166
 5.3348   4.52749
 5.3294   4.50140
 5.3239   4.50675
 5.3184   4.53043
 5.3130   4.54171
 5.3075   4.57146
 5.3021   4.73038
 5.2967   4.84756
 5.2913   4.81561
 5.2859   4.79032
 5.2805   4.78764
 5.2751   4.84795
 5.2698   4.93082
 5.2644   4.94630
 5.2591   5.00965
 5.2538   5.02489
 5.2485   5.13038
 5.2431   5.18898
 5.2378   5.12851
 5.2326   5.19637
 5.2273   5.24516
 5.2220   5.35180
 5.2168   5.50229
 5.2115   5.58156
 5.2063   5.59338
 5.2011   5.62322
 5.1959   5.63905
 5.1907   5.63408
 5.1855   5.65052
 5.1803   5.68681
 5.1751   5.74716
 5.1700   5.83143
 5.1648   5.86945
 5.1597   5.85709
 5.1545   5.86681
 5.1494   5.91103
 5.1443   6.02333
 5.1392   6.02400
 5.1341   5.95599
 5.1291   5.93065
 5.1240   5.93139
 5.1189   5.95468
 5.1139   6.10999
 5.1088   6.11312
 5.1038   6.03104
 5.0988   6.19416
 5.0938   6.26949
 5.0888   6.18330
 5.0838   6.22323
 5.0788   6.25471
 5.0738   6.24438
 5.0689   6.31479
 5.0639   6.42401
 5.0590   6.43668
 5.0541   6.37066
 5.0491   6.33182
 5.0442   6.36471
 5.0393   6.41002
 5.0344   6.45545
 5.0296   6.51343
 5.0247   6.54596
 5.0198   6.49843
 5.0150   6.57314
 5.0101   6.70665
 5.0053   6.68785
 5.0004   6.68616
 4.9956   6.74135
 4.9908   6.80564
 4.9860   6.84105
 4.9812   6.90873
 4.9765   7.01690
 4.9717   7.20485
 4.9669   7.40208
 4.9622   7.50881
 4.9574   7.61761
 4.9527   7.69875
 4.9480   7.75027
 4.9432   7.81999
 4.9385   7.87907
 4.9338   7.93675
 4.9291   8.07918
 4.9245   8.20847
 4.9198   8.20441
 4.9151   8.13532
 4.9105   8.26335
 4.9058   8.42900
 4.9012   8.53934
 4.8966   8.68821
 4.8919   8.72867
 4.8873   8.83073
 4.8827   9.02380
 4.8781   9.19284
 4.8736   9.29150
 4.8690   9.42700
 4.8644   9.48825
 4.8599   9.51904
 4.8553   9.60631
 4.8508   9.73586
 4.8462   9.90235
 4.8417  10.03660
 4.8372  10.13370
 4.8327  10.18290
 4.8282  10.26290
 4.8237  10.22820
 4.8192  10.18820
 4.8147  10.29500
 4.8103  10.30230
 4.8058  10.30980
 4.8014  10.22700
 4.7969  10.23310
 4.7925  10.35780
 4.7881  10.33270
 4.7836  10.27860
 4.7792  10.34340
 4.7748  10.34400
 4.7704  10.37300
 4.7660  10.50460
 4.7617  10.56650
 4.7573  10.70140
 4.7530  10.81490
 4.7486  10.88710
 4.7443  10.96540
 4.7399  11.05030
 4.7356  11.14380
 4.7313  11.15440
 4.7270  11.19210
 4.7226  11.26050
 4.7184  11.24960
 4.7141  11.34620
 4.7098  11.41440
 4.7055  11.40880
 4.7012  11.48780
 4.6970  11.57550
 4.6927  11.65670
 4.6885  11.72380
 4.6842  11.78690
 4.6800  11.78320
 4.6758  11.86110
 4.6716  12.06260
 4.6674  12.06560
 4.6632  11.98950
 4.6590  12.09950
 4.6548  12.29170
 4.6506  12.35690
 4.6465  12.40130
 4.6423  12.51820
 4.6382  12.55330
 4.6340  12.71530
 4.6299  12.90250
 4.6258  12.98070
 4.6216  13.12770
 4.6175  13.32920
 4.6134  13.43200
 4.6093  13.46870
 4.6052  13.59310
 4.6011  13.69780
 4.5971  13.79800
 4.5930  13.99730
 4.5889  14.10060
 4.5849  14.13810
 4.5808  14.28460
 4.5768  14.38010
 4.5727  14.43430
 4.5687  14.52340
 4.5647  14.60970
 4.5607  14.69220
 4.5567  14.83410
 4.5526  14.99700
 4.5487  15.01740
 4.5447  15.03620
 4.5407  15.10050
 4.5367  15.15840
 4.5328  15.18320
 4.5288  15.18550
 4.5248  15.19980
 4.5209  15.21480
 4.5170  15.25150
 4.5130  15.29130
 4.5091  15.30370
 4.5052  15.42280
 4.5013  15.50930
 4.4974  15.51350
 4.4935  15.50920
 4.4896  15.55080
 4.4857  15.63850
 4.4818  15.67800
 4.4779  15.73450
 4.4741  15.82340
 4.4702  15.92710
 4.4664  16.05200
 4.4625  16.18990
 4.4587  16.24560
 4.4549  16.26460
 4.4510  16.34790
 4.4472  16.53060
 4.4434  16.62490
 4.4396  16.65270
 4.4358  16.66410
 4.4320  16.70360
 4.4282  16.80980
 4.4245  16.86440
 4.4207  17.01420
 4.4169  17.20090
 4.4132  17.31250
 4.4094  17.38590
 4.4057  17.39560
 4.4019  17.44120
 4.3982  17.47290
 4.3945  17.60170
 4.3907  17.80730
 4.3870  17.85300
 4.3833  17.91270
 4.3796  18.05850
 4.3759  18.18920
 4.3722  18.25500
 4.3685  18.39990
 4.3649  18.44100
 4.3612  18.48950
 4.3575  18.63600
 4.3539  18.65580
 4.3502  18.66110
 4.3466  18.71670
 4.3429  18.85220
 4.3393  18.99870
 4.3357  19.01480
 4.3320  18.98900
 4.3284  19.11890
 4.3248  19.18350
 4.3212  19.05000
 4.3176  18.97650
 4.3140  19.12430
 4.3105  19.18300
 4.3069  19.20670
 4.3033  19.16450
 4.2997  19.09870
 4.2962  19.14530
 4.2926  19.12740
 4.2890  19.02790
 4.2855  19.05780
 4.2820  19.09870
 4.2784  19.05300
 4.2749  19.08380
 4.2714  19.04120
 4.2679  19.01340
 4.2644  19.26750
 4.2609  19.66170
 4.2574  19.92130
 4.2539  19.91280
 4.2504  19.79330
 4.2469  19.82000
 4.2434  19.80340
 4.2400  19.69950
 4.2365  19.67970
 4.2330  19.63510
 4.2296  19.67970
 4.2261  19.91920
 4.2227  20.17880
 4.2193  20.43750
 4.2158  20.70160
 4.2124  20.90810
 4.2090  21.04690
 4.2056  21.14200
 4.2022  21.33060
 4.1988  21.48800
 4.1954  21.53110
 4.1920  21.51030
 4.1886  21.51190
 4.1852  21.56680
 4.1818  21.62650
 4.1785  21.68500
 4.1751  21.76620
 4.1717  21.91160
 4.1684  21.86810
 4.1650  21.89210
 4.1617  22.03330
 4.1584  22.11350
 4.1550  22.13570
 4.1517  22.17400
 4.1484  22.41720
 4.1451  22.45350
 4.1418  22.41540
 4.1384  22.32590
 4.1351  22.28680
 4.1319  22.31700
 4.1286  22.45500
 4.1253  22.58630
 4.1220  22.62480
 4.1187  22.65290
 4.1155  22.68210
 4.1122  22.77760
 4.1089  22.79910
 4.1057  22.74380
 4.1024  22.72960
 4.0992  22.84540
 4.0959  22.92890
 4.0927  23.03480
 4.0895  23.10130
 4.0863  23.05020
 4.0830  23.01400
 4.0798  23.14440
 4.0766  23.20600
 4.0734  23.14970
 4.0702  23.20960
 4.0670  23.32200
 4.0639  23.25630
 4.0607  23.25180
 4.0575  23.31410
 4.0543  23.34450
 4.0511  23.38680
 4.0480  23.36310
 4.0448  23.40340
 4.0417  23.48360
 4.0385  23.39860
 4.0354  23.32520
 4.0323  23.35000
 4.0291  23.43400
 4.0260  23.41590
 4.0229  23.43540
 4.0197  23.49790
 4.0166  23.41110
 4.0135  23.45210
 4.0104  23.51340
 4.0073  23.40860
 4.0042  23.48650
 4.0011  23.69150
 3.9981  23.74220
 3.9950  23.61460
 3.9919  23.48670
 3.9888  23.54300
 3.9857  23.60010
 3.9827  23.72950
 3.9796  23.81880
 3.9766  23.94930
 3.9735  23.83890
 3.9705  23.60390
 3.9675  23.74520
 3.9644  23.90570
 3.9614  23.77960
 3.9584  23.61240
 3.9554  23.71260
 3.9523  23.75600
 3.9493  23.70400
 3.9463  23.81590
 3.9433  23.84050
 3.9403  23.85490
 3.9373  23.87550
 3.9343  23.96740
 3.9314  24.09360
 3.9284  24.07710
 3.9254  24.00230
 3.9224  23.92350
 3.9195  23.88290
 3.9165  23.87780
 3.9136  23.89470
 3.9106  24.00830
 3.9077  24.00260
 3.9047  23.97450
 3.9018  24.00130
 3.8988  23.95560
 3.8959  23.88340
 3.8930  23.97360
 3.8901  23.99030
 3.8872  23.88600
 3.8842  23.94590
 3.8813  24.01550
 3.8784  24.01000
 3.8755  23.95270
 3.8726  23.90080
 3.8697  23.80260
 3.8669  23.74750
 3.8640  23.71920
 3.8611  23.81350
 3.8582  23.83950
 3.8554  23.68520
 3.8525  23.58300
 3.8496  23.54830
 3.8468  23.62240
 3.8439  23.80870
 3.8411  23.75320
 3.8382  23.58610
 3.8354  23.56680
 3.8326  23.61910
 3.8297  23.62190
 3.8269  23.68120
 3.8241  23.67870
 3.8213  23.53170
 3.8185  23.42490
 3.8157  23.36820
 3.8128  23.45120
 3.8100  23.54120
 3.8072  23.53330
 3.8045  23.48540
 3.8017  23.41960
 3.7989  23.35230
 3.7961  23.28510
 3.7933  23.26060
 3.7906  23.22340
 3.7878  23.12150
 3.7850  23.12110
 3.7822  23.14530
 3.7795  23.09720
 3.7767  22.92830
 3.7740  22.87380
 3.7713  22.86810
 3.7685  22.82710
 3.7658  22.79010
 3.7630  22.81960
 3.7603  22.78570
 3.7576  22.68120
 3.7549  22.62350
 3.7521  22.55880
 3.7494  22.49960
 3.7467  22.45770
 3.7440  22.47790
 3.7413  22.38800
 3.7386  22.26600
 3.7359  22.27690
 3.7332  22.13820
 3.7306  22.20270
 3.7279  22.35960
 3.7252  22.18310
 3.7225  21.98430
 3.7199  21.97470
 3.7172  21.95620
 3.7145  21.93220
 3.7119  21.75800
 3.7092  21.52460
 3.7066  21.52630
 3.7039  21.60910
 3.7013  21.61330
 3.6986  21.49930
 3.6960  21.37380
 3.6934  21.24200
 3.6907  21.13270
 3.6881  21.08920
 3.6855  21.12230
 3.6829  21.10520
 3.6803  21.04930
 3.6776  21.04310
 3.6750  21.05630
 3.6724  21.02360
 3.6698  20.77380
 3.6672  20.65570
 3.6646  20.59420
 3.6620  20.61840
 3.6595  20.56940
 3.6569  20.44580
 3.6543  20.44740
 3.6517  20.40730
 3.6492  20.37810
 3.6466  20.45640
 3.6440  20.47380
 3.6415  20.32420
 3.6389  20.09740
 3.6364  19.99830
 3.6338  19.92970
 3.6313  19.84220
 3.6287  19.85360
 3.6262  19.84620
 3.6237  19.63160
 3.6211  19.47520
 3.6186  19.48720
 3.6161  19.52120
 3.6136  19.43270
 3.6111  19.25750
 3.6085  19.09440
 3.6060  19.05020
 3.6035  19.13370
 3.6010  19.14900
 3.5985  18.97440
 3.5960  18.83730
 3.5935  18.68610
 3.5910  18.69150
 3.5886  18.78440
 3.5861  18.75270
 3.5836  18.70560
 3.5811  18.68500
 3.5787  18.37250
 3.5762  18.20370
 3.5737  18.13780
 3.5713  17.96450
 3.5688  17.87830
 3.5663  17.77860
 3.5639  17.78840
 3.5614  17.80740
 3.5590  17.69370
 3.5566  17.52930
 3.5541  17.44470
 3.5517  17.27170
 3.5493  17.19040
 3.5468  17.17510
 3.5444  17.18740
 3.5420  17.21540
 3.5396  17.09830
 3.5372  16.93090
 3.5347  16.65880
 3.5323  16.67470
 3.5299  16.68230
 3.5275  16.48390
 3.5251  16.30130
 3.5227  16.24070
 3.5203  16.08930
 3.5180  15.87990
 3.5156  15.87690
 3.5132  15.80640
 3.5108  15.60350
 3.5084  15.60730
 3.5061  15.60070
 3.5037  15.21990
 3.5013  15.03080
 3.4990  15.07900
 3.4966  15.06830
 3.4943  14.98170
 3.4919  14.75940
 3.4895  14.59240
 3.4872  14.57390
 3.4849  14.66520
 3.4825  14.83640
 3.4802  14.68820
 3.4778  14.54470
 3.4755  14.51720
 3.4732  14.43380
 3.4709  14.46170
 3.4685  14.49900
 3.4662  14.46850
 3.4639  14.33320
 3.4616  14.26240
 3.4593  14.24310
 3.4570  14.10260
 3.4547  14.18130
 3.4524  14.14410
 3.4501  13.87960
 3.4478  13.75380
 3.4455  13.70220
 3.4432  13.45990
 3.4409  13.34420
 3.4386  13.45610
 3.4364  13.43260
 3.4341  13.20940
 3.4318  13.11480
 3.4295  13.12640
 3.4273  12.91170
 3.4250  12.78900
 3.4228  12.63740
 3.4205  12.47190
 3.4182  12.46010
 3.4160  12.29760
 3.4137  12.16590
 3.4115  12.32910
 3.4093  12.40660
 3.4070  12.31920
 3.4048  12.22410
 3.4025  12.20410
 3.4003  12.16410
 3.3981  12.06150
 3.3958  12.03010
 3.3936  12.00710
 3.3914  11.97740
 3.3892  11.91710
 3.3870  11.81370
 3.3848  11.71480
 3.3826  11.63010
 3.3804  11.71840
 3.3782  11.81250
 3.3760  11.72090
 3.3738  11.59790
 3.3716  11.51990
 3.3694  11.44530
 3.3672  11.49560
 3.3650  11.55560
 3.3628  11.70130
 3.3606  11.62610
 3.3585  11.24530
 3.3563  11.12820
 3.3541  11.21350
 3.3520  11.25810
 3.3498  11.21360
 3.3476  11.11510
 3.3455  11.18350
 3.3433  11.32540
 3.3411  11.24280
 3.3390  10.88900
 3.3369  10.73630
 3.3347  10.87820
 3.3326  10.93830
 3.3304  10.84410
 3.3283  10.77610
 3.3262  10.71290
 3.3240  10.88920
 3.3219  10.75640
 3.3198  10.76950
 3.3176  10.79310
 3.3155  10.64390
 3.3134  10.47840
 3.3113  10.36640
 3.3092  10.37850
 3.3071  10.40300
 3.3049  10.31570
 3.3028  10.38560
 3.3007  10.21380
 3.2986   9.94983
 3.2965  10.02570
 3.2944  10.32370
 3.2924  10.19190
 3.2903   9.58835
 3.2882   9.38560
 3.2861   9.66743
 3.2840   9.91307
 3.2819   9.97348
 3.2799  10.04870
 3.2778  10.04330
 3.2757   9.60127
 3.2736   9.47106
 3.2716   9.69840
 3.2695   9.61261
 3.2675   9.23973
 3.2654   9.56422
 3.2634   9.78210
 3.2613   9.61554
 3.2593   9.70469
 3.2572   9.69961
 3.2552   9.58315
 3.2531   9.59568
 3.2511   9.42955
 3.2490   9.25883
 3.2470   9.15340
 3.2450   9.27120
 3.2429   9.30855
 3.2409   9.27764
 3.2389   9.17550
 3.2369   9.00561
 3.2348   8.97628
 3.2328   8.95792
 3.2308   8.83866
 3.2288   8.78169
 3.2268   8.70786
 3.2248   8.54246
 3.2228   8.54421
 3.2208   8.57990
 3.2188   8.57354
 3.2168   8.50250
 3.2148   8.61773
 3.2128   8.65049
 3.2108   8.76255
 3.2088   8.87211
 3.2068   8.72882
 3.2049   8.36620
 3.2029   8.33514
 3.2009   8.43658
 3.1989   8.41742
 3.1970   8.17874
 3.1950   8.17721
 3.1930   8.18092
 3.1911   8.05365
 3.1891   8.07550
 3.1871   8.10064
 3.1852   8.35954
 3.1832   8.30247
 3.1813   8.05470
 3.1793   7.97653
 3.1774   8.06579
 3.1754   8.13740
 3.1735   8.07135
 3.1715   8.04454
 3.1696   7.81778
 3.1677   8.01664
 3.1657   8.14696
 3.1638   7.88559
 3.1619   7.61308
 3.1599   7.84051
 3.1580   8.01089
 3.1561   8.07713
 3.1542   7.94790
 3.1523   7.71902
 3.1503   7.45366
 3.1484   7.29946
 3.1465   7.46681
 3.1446   7.56401
 3.1427   7.47099
 3.1408   7.41365
 3.1389   7.53957
 3.1370   7.52918
 3.1351   7.35203
 3.1332   7.34284
 3.1313   7.37146
 3.1294   7.31666
 3.1275   7.46688
 3.1257   7.59818
 3.1238   7.53557
 3.1219   7.35779
 3.1200   7.11107
 3.1181   7.18201
 3.1163   7.13770
 3.1144   7.10571
 3.1125   6.92612
 3.1107   7.20841
 3.1088   7.53436
 3.1069   7.54941
 3.1051   7.25478
 3.1032   6.92143
 3.1014   6.76295
 3.0995   6.81473
 3.0976   6.66349
 3.0958   6.48643
 3.0940   6.50791
 3.0921   6.46444
 3.0903   6.57491
 3.0884   6.86446
 3.0866   6.90527
 3.0848   6.65440
 3.0829   6.50944
 3.0811   7.07960
 3.0793   6.99056
 3.0774   7.05204
 3.0756   7.24045
 3.0738   6.83630
 3.0720   6.51141
 3.0701   6.97090
 3.0683   7.19032
 3.0665   6.81490
 3.0647   6.56254
 3.0629   6.54558
 3.0611   6.89946
 3.0593   7.10878
 3.0575   6.95573
 3.0557   6.80483
 3.0539   6.75677
 3.0521   6.67149
 3.0503   6.56493
 3.0485   6.55296
 3.0467   6.56277
 3.0449   6.66047
 3.0431   6.77347
 3.0413   6.46435
 3.0396   6.39004
 3.0378   6.41896
 3.0360   6.57168
 3.0342   6.66710
 3.0324   6.61152
 3.0307   6.82355
 3.0289   6.77383
 3.0271   6.31841
 3.0254   6.56654
 3.0236   6.77768
 3.0218   6.61180
 3.0201   6.80100
 3.0183   6.46643
 3.0166   6.30679
 3.0148   6.56399
 3.0130   6.51182
 3.0113   6.22878
 3.0096   6.24937
 3.0078   6.07433
 3.0061   6.08250
 3.0043   6.27136
 3.0026   6.45386
 3.0008   6.31907
 2.9991   5.92237
 2.9974   5.84099
 2.9956   6.08561
 2.9939   6.13491
 2.9922   6.08194
 2.9905   6.04709
 2.9887   6.19328
 2.9870   6.70696
 2.9853   6.63229
 2.9836   5.99414
 2.9819   5.66956
 2.9802   5.77242
 2.9784   6.00252
 2.9767   6.23089
 2.9750   6.33403
 2.9733   6.47201
 2.9716   6.38694
 2.9699   6.01356
 2.9682   5.70356
 2.9665   6.22884
 2.9648   6.36771
 2.9631   5.95430
 2.9614   5.75928
 2.9597   6.16411
 2.9581   6.52693
 2.9564   6.20352
 2.9547   6.03525
 2.9530   6.23369
 2.9513   6.04442
 2.9496   5.76215
 2.9480   6.11962
 2.9463   6.38522
 2.9446   6.48432
 2.9429   6.21487
 2.9413   6.14737
 2.9396   6.34771
 2.9379   6.40267
 2.9363   5.94735
 2.9346   5.69637
 2.9330   6.08077
 2.9313   6.38305
 2.9296   6.27768
 2.9280   6.21909
 2.9263   6.24684
 2.9247   5.73626
 2.9230   5.71035
 2.9214   5.92247
 2.9197   5.81172
 2.9181   6.47142
 2.9165   6.87986
 2.9148   6.51320
 2.9132   6.14116
 2.9116   5.67329
 2.9099   5.46852
 2.9083   5.89999
 2.9067   6.42930
 2.9050   5.97699
 2.9034   5.80407
 2.9018   6.22919
 2.9002   6.63913
 2.8985   6.21414
 2.8969   5.80628
 2.8953   6.04867
 2.8937   6.35720
 2.8921   6.18681
 2.8905   5.63920
 2.8888   5.41343
 2.8872   5.51581
 2.8856   5.88092
 2.8840   6.17730
 2.8824   6.38471
 2.8808   6.12870
 2.8792   5.96343
 2.8776   6.15239
 2.8760   6.37303
 2.8744   6.60799
 2.8728   6.45509
 2.8712   6.13426
 2.8697   5.80474
 2.8681   5.78407
 2.8665   5.95345
 2.8649   6.05619
 2.8633   6.14902
 2.8617   6.23860
 2.8602   6.33972
 2.8586   6.32040
 2.8570   6.38787
 2.8554   6.35078
 2.8539   6.18672
 2.8523   6.42546
 2.8507   6.50905
 2.8492   6.37428
 2.8476   6.33916
 2.8460   6.42406
 2.8445   6.68059
 2.8429   6.40049
 2.8413   5.99791
 2.8398   6.14977
 2.8382   6.27101
 2.8367   6.19998
 2.8351   6.23964
 2.8336   6.02754
 2.8320   5.91034
 2.8305   6.04102
 2.8289   6.04979
 2.8274   6.20493
 2.8259   6.03317
 2.8243   6.00972
 2.8228   6.12555
 2.8213   6.30570
 2.8197   6.34063
 2.8182   5.92877
 2.8167   5.46745
 2.8151   5.66777
 2.8136   6.05142
 2.8121   5.97040
 2.8106   5.90178
 2.8090   6.00480
 2.8075   6.37996
 2.8060   6.64902
 2.8045   6.17372
 2.8030   5.92393
 2.8014   6.20673
 2.7999   6.15932
 2.7984   5.98573
 2.7969   5.92967
 2.7954   6.07687
 2.7939   6.52397
 2.7924   6.50511
 2.7909   6.00660
 2.7894   5.98745
 2.7879   5.83587
 2.7864   5.58952
 2.7849   5.33626
 2.7834   5.79524
 2.7819   6.50699
 2.7804   6.35586
 2.7789   5.67523
 2.7774   5.77545
 2.7759   5.64076
 2.7745   5.61808
 2.7730   5.93993
 2.7715   5.71488
 2.7700   5.64274
 2.7685   5.61314
 2.7671   5.15805
 2.7656   4.96638
 2.7641   5.08247
 2.7626   5.12843
 2.7612   4.75967
 2.7597   4.63775
 2.7582   4.90271
 2.7568   5.12115
 2.7553   5.47082
 2.7538   5.52371
 2.7524   5.63898
 2.7509   5.79386
 2.7494   5.98270
 2.7480   5.61944
 2.7465   5.51275
 2.7451   5.58739
 2.7436   5.73535
 2.7422   6.07364
 2.7407   6.13315
 2.7393   6.12272
 2.7378   5.76034
 2.7364   5.70187
 2.7350   5.62501
 2.7335   5.65271
 2.7321   5.71787
 2.7306   5.64599
 2.7292   5.79145
 2.7278   5.99601
 2.7263   5.96712
 2.7249   5.89029
 2.7235   5.64116
 2.7220   5.41930
 2.7206   6.03669
 2.7192   6.57225
 2.7178   6.20297
 2.7163   6.04774
 2.7149   6.08548
 2.7135   6.00297
 2.7121   6.14587
 2.7106   5.81538
 2.7092   5.48405
 2.7078   5.43458
 2.7064   5.32282
 2.7050   5.39727
 2.7036   5.19653
 2.7022   5.29500
 2.7008   5.87868
 2.6994   6.37058
 2.6980   6.54382
 2.6965   6.76836
 2.6951   7.03430
 2.6938   7.54105
 2.6923   8.07782
 2.6910   8.81955
 2.6896   9.57987
 2.6882  10.53810
 2.6868  11.73520
 2.6854  12.62380
 2.6840  13.58340
 2.6826  14.55560
 2.6812  15.31220
 2.6798  15.98320
 2.6784  16.82970
 2.6771  17.72490
 2.6757  18.58850
 2.6743  19.06930
 2.6729  19.37670
 2.6715  19.81550
 2.6702  20.82320
 2.6688  21.21060
 2.6674  21.37850
 2.6660  21.67520
 2.6647  22.57610
 2.6633  23.31600
 2.6619  23.51060
 2.6606  23.83970
 2.6592  24.26080
 2.6578  24.44010
 2.6565  24.73420
 2.6551  25.35110
 2.6538  25.59580
 2.6524  25.46710
 2.6511  25.74530
 2.6497  26.14570
 2.6484  26.21200
 2.6470  26.27710
 2.6456  26.67430
 2.6443  26.95520
 2.6429  27.12840
 2.6416  27.45470
 2.6403  27.52300
 2.6389  27.68410
 2.6376  28.06800
 2.6362  28.15510
 2.6349  28.17320
 2.6336  28.48390
 2.6322  28.73800
 2.6309  29.02040
 2.6296  29.24440
 2.6282  29.13830
 2.6269  29.34140
 2.6256  29.51140
 2.6242  29.63580
 2.6229  29.87240
 2.6216  29.93590
 2.6203  29.95970
 2.6189  30.30280
 2.6176  30.33450
 2.6163  30.28270
 2.6150  30.63240
 2.6136  30.88150
 2.6123  30.60790
 2.6110  30.51930
 2.6097  30.99670
 2.6084  31.08210
 2.6071  30.49290
 2.6058  30.60840
 2.6044  31.04790
 2.6031  31.19540
 2.6018  31.43700
 2.6005  31.82320
 2.5992  31.85310
 2.5979  31.61640
 2.5966  31.13160
 2.5953  30.93100
 2.5940  31.32180
 2.5927  31.70240
 2.5914  31.92730
 2.5901  32.06510
 2.5888  32.02420
 2.5876  31.91050
 2.5863  31.69430
 2.5850  31.66940
 2.5837  31.76310
 2.5824  32.24820
 2.5811  32.43780
 2.5798  32.27830
 2.5785  32.32690
 2.5773  32.57230
 2.5760  32.83750
 2.5747  32.91650
 2.5734  32.76670
 2.5722  32.78050
 2.5709  32.78140
 2.5696  33.08320
 2.5683  33.52010
 2.5671  33.90670
 2.5658  33.95910
 2.5645  33.33220
 2.5633  32.96380
 2.5620  32.99260
 2.5607  33.16010
 2.5595  33.22170
 2.5582  33.39770
 2.5569  33.60870
 2.5557  33.48940
 2.5544  33.31010
 2.5532  33.42380
 2.5519  33.70400
 2.5507  33.84840
 2.5494  33.86900
 2.5481  33.86490
 2.5469  33.71990
 2.5456  34.12600
 2.5444  34.52200
 2.5431  34.47430
 2.5419  34.23510
 2.5406  34.37340
 2.5394  34.72840
 2.5382  34.61350
 2.5369  34.40700
 2.5357  34.51910
 2.5344  34.62260
 2.5332  34.53540
 2.5320  34.54540
 2.5307  34.84220
 2.5295  35.11370
 2.5283  35.36800
 2.5270  35.42810
 2.5258  34.98690
 2.5246  34.70440
 2.5233  34.97270
 2.5221  35.15180
 2.5209  35.44540
 2.5197  35.61240
 2.5184  35.61020
 2.5172  35.63110
 2.5160  35.35630
 2.5148  35.21380
 2.5136  35.70620
 2.5123  35.81180
 2.5111  35.64960
 2.5099  35.55450
 2.5087  35.63420
 2.5075  35.70020
 2.5063  36.09940
 2.5051  36.00100
 2.5038  35.81160
 2.5026  35.92010
 2.5014  35.99740
 2.5002  36.25820
 2.4990  36.63120
 2.4978  36.78440
 2.4966  36.70710
 2.4954  36.12790
 2.4942  35.80360
 2.4930  36.20290
 2.4918  36.56460
 2.4906  36.67970
 2.4894  36.75500
 2.4882  37.11530
 2.4870  37.15810
 2.4858  36.80980
 2.4846  36.71100
 2.4835  36.84930
 2.4823  36.64820
 2.4811  36.98940
 2.4799  37.37780
 2.4787  37.46560
 2.4775  37.31370
 2.4764  37.19820
 2.4752  37.48340
 2.4740  37.79230
 2.4728  37.51470
 2.4716  37.43870
 2.4705  37.91150
 2.4693  38.29720
 2.4681  38.06930
 2.4669  37.43110
 2.4657  37.44680
 2.4646  37.84410
 2.4634  37.99970
 2.4622  38.40610
 2.4611  38.41690
 2.4599  38.06930
 2.4587  38.28320
 2.4576  38.79960
 2.4564  38.87740
 2.4552  38.85230
 2.4541  38.49190
 2.4529  38.14010
 2.4518  38.40620
 2.4506  38.90510
 2.4494  38.82550
 2.4483  38.27780
 2.4471  38.05680
 2.4460  38.76330
 2.4448  39.32740
 2.4437  39.16170
 2.4425  39.18830
 2.4414  39.24220
 2.4402  39.13760
 2.4391  39.03320
 2.4379  39.04640
 2.4368  38.95410
 2.4356  39.49140
 2.4345  39.89010
 2.4333  40.17440
 2.4322  39.97210
 2.4311  39.53110
 2.4299  39.80240
 2.4288  40.38840
 2.4276  40.61260
 2.4265  40.43530
 2.4254  40.21420
 2.4242  40.14130
 2.4231  40.45160
 2.4220  40.87900
 2.4209  40.89980
 2.4197  40.46820
 2.4186  40.63100
 2.4175  40.82660
 2.4163  40.80220
 2.4152  40.74860
 2.4141  40.70250
 2.4130  40.84120
 2.4118  41.05040
 2.4107  41.34160
 2.4096  41.31950
 2.4085  41.06220
 2.4074  41.34640
 2.4063  41.10500
 2.4051  41.06940
 2.4040  41.25520
 2.4029  41.03250
 2.4018  40.97830
 2.4007  41.22390
 2.3996  40.93660
 2.3985  40.72520
 2.3973  41.00780
 2.3962  40.70150
 2.3951  40.39140
 2.3940  40.72810
 2.3929  40.72990
 2.3918  40.69650
 2.3907  40.80750
 2.3896  40.51940
 2.3885  39.89570
 2.3874  39.90330
 2.3863  40.31680
 2.3852  40.86960
 2.3841  40.99940
 2.3830  40.46430
 2.3819  39.86000
 2.3808  39.90850
 2.3798  40.20920
 2.3786  40.93730
 2.3776  41.19100
 2.3765  41.25280
 2.3754  41.44450
 2.3743  41.84080
 2.3732  41.96950
 2.3721  41.86750
 2.3710  42.15300
 2.3700  42.24110
 2.3689  42.28750
 2.3678  42.29540
 2.3667  42.50810
 2.3656  42.78620
 2.3645  42.78580
 2.3635  42.39250
 2.3624  42.23360
 2.3613  42.68150
 2.3603  43.29890
 2.3592  43.07990
 2.3581  42.94610
 2.3570  43.21430
 2.3560  43.49110
 2.3549  43.31890
 2.3538  43.19610
 2.3527  43.16740
 2.3517  42.93520
 2.3506  43.16280
 2.3495  43.11380
 2.3485  42.24930
 2.3474  42.31230
 2.3464  42.70370
 2.3453  42.82550
 2.3442  43.00630
 2.3432  43.27100
 2.3421  43.20100
 2.3411  43.24350
 2.3400  43.27980
 2.3390  43.11060
 2.3379  42.98320
 2.3369  42.81470
 2.3358  42.82530
 2.3347  42.70430
 2.3337  42.29840
 2.3326  42.10210
 2.3316  42.02700
 2.3306  42.43570
 2.3295  42.95380
 2.3285  42.99470
 2.3274  42.66980
 2.3264  42.86980
 2.3253  43.22530
 2.3243  43.07320
 2.3232  42.91560
 2.3222  43.29570
 2.3212  43.28930
 2.3201  43.09240
 2.3191  42.98950
 2.3180  43.02580
 2.3170  43.24920
 2.3160  43.43700
 2.3149  44.06200
 2.3139  44.28540
 2.3129  43.76750
 2.3118  43.93310
 2.3108  44.23370
 2.3098  44.44720
 2.3088  44.64700
 2.3077  44.67710
 2.3067  45.40120
 2.3057  45.44670
 2.3047  45.20990
 2.3036  45.31630
 2.3026  45.61220
 2.3016  45.87100
 2.3006  46.34590
 2.2995  46.70590
 2.2985  46.17960
 2.2975  45.82210
 2.2965  46.11450
 2.2955  46.50440
 2.2944  46.68910
 2.2934  46.73850
 2.2924  47.01190
 2.2914  47.37290
 2.2904  47.33540
 2.2894  47.18170
 2.2884  47.22680
 2.2874  47.06340
 2.2864  47.52710
 2.2854  47.95710
 2.2843  48.34890
 2.2833  48.41480
 2.2823  48.05320
 2.2813  48.19230
 2.2803  48.10860
 2.2793  48.09530
 2.2783  48.03960
 2.2773  47.97850
 2.2763  48.65090
 2.2753  49.01940
 2.2743  48.64430
 2.2733  48.61400
 2.2723  49.35600
 2.2713  49.46040
 2.2703  48.76250
 2.2694  48.76340
 2.2684  48.91220
 2.2674  48.99870
 2.2664  49.01400
 2.2654  48.70480
 2.2644  48.61580
 2.2634  48.87230
 2.2624  48.76810
 2.2614  48.62010
 2.2605  48.94800
 2.2595  49.14410
 2.2585  49.25210
 2.2575  48.75410
 2.2565  48.55950
 2.2555  48.94390
 2.2546  48.82440
 2.2536  48.46890
 2.2526  48.68210
 2.2516  48.44390
 2.2506  47.49110
 2.2497  47.36450
 2.2487  47.83200
 2.2477  48.39880
 2.2467  49.00900
 2.2458  49.10330
 2.2448  48.73030
 2.2438  48.06090
 2.2428  47.77530
 2.2419  48.30830
 2.2409  48.43850
 2.2399  48.34020
 2.2390  48.52170
 2.2380  49.10530
 2.2370  48.83230
 2.2361  48.42180
 2.2351  48.21090
 2.2342  48.33170
 2.2332  48.67280
 2.2322  48.66130
 2.2313  48.68630
 2.2303  49.08520
 2.2294  49.11150
 2.2284  48.53010
 2.2274  48.16160
 2.2265  48.94760
 2.2255  49.33140
 2.2246  48.83540
 2.2236  48.80550
 2.2227  48.92880
 2.2217  48.45190
 2.2208  47.76980
 2.2198  47.51010
 2.2189  46.93920
 2.2179  46.21770
 2.2170  45.69890
 2.2160  45.34180
 2.2151  44.93600
 2.2141  44.20020
 2.2132  43.14610
 2.2122  42.27740
 2.2113  42.10830
 2.2103  41.69730
 2.2094  41.29910
 2.2085  41.39020
 2.2075  41.66980
 2.2066  41.75630
 2.2056  42.15540
 2.2047  42.50800
 2.2038  42.96460
 2.2028  42.99720
 2.2019  43.60180
 2.2010  44.33910
 2.2000  44.52870
 2.1991  45.19400
 2.1982  45.53650
 2.1972  45.43050
 2.1963  45.76450
 2.1954  45.86410
 2.1944  45.95180
 2.1935  45.73970
 2.1926  45.71740
 2.1917  46.63630
 2.1907  47.18000
 2.1898  47.64490
 2.1889  47.90610
 2.1880  47.52760
 2.1870  47.22050
 2.1861  47.82300
 2.1852  48.32250
 2.1843  48.25480
 2.1833  47.60250
 2.1824  47.27310
 2.1815  47.72920
 2.1806  48.44940
 2.1797  48.42700
 2.1788  48.87290
 2.1778  48.55680
 2.1769  48.27480
 2.1760  48.14720
 2.1751  47.74620
 2.1742  47.48820
 2.1733  47.37320
 2.1724  47.78570
 2.1715  48.36370
 2.1706  48.25800
 2.1696  47.70450
 2.1687  47.22040
 2.1678  47.50140
 2.1669  47.87560
 2.1660  48.15280
 2.1651  48.40030
 2.1642  48.24660
 2.1633  47.97530
 2.1624  47.77390
 2.1615  48.00230
 2.1606  48.79140
 2.1597  48.24020
 2.1588  48.46510
 2.1579  48.90620
 2.1570  48.51900
 2.1561  48.57350
 2.1552  49.09050
 2.1543  49.76080
 2.1534  49.98390
 2.1525  49.86180
 2.1517  49.81390
 2.1507  49.93850
 2.1499  50.42820
 2.1490  50.94250
 2.1481  50.80620
 2.1472  50.70710
 2.1463  51.08080
 2.1454  51.19100
 2.1445  50.76440
 2.1436  51.18930
 2.1428  52.25590
 2.1419  52.79560
 2.1410  52.10920
 2.1401  52.31400
 2.1392  52.37750
 2.1383  51.34460
 2.1375  50.71550
 2.1366  51.19780
 2.1357  52.14630
 2.1348  52.65520
 2.1339  52.79400
 2.1331  52.35040
 2.1322  52.22650
 2.1313  52.36250
 2.1304  52.92550
 2.1296  52.81020
 2.1287  53.18490
 2.1278  53.60240
 2.1269  53.00740
 2.1261  52.21990
 2.1252  52.28650
 2.1243  52.94100
 2.1235  53.05290
 2.1226  52.48470
 2.1217  52.02140
 2.1208  52.75570
 2.1200  53.20940
 2.1191  53.52540
 2.1183  54.15290
 2.1174  53.77700
 2.1165  52.73850
 2.1157  52.41870
 2.1148  52.71440
 2.1139  53.22030
 2.1131  53.05620
 2.1122  52.53420
 2.1113  52.45750
 2.1105  52.97880
 2.1096  52.85790
 2.1088  52.21100
 2.1079  52.79250
 2.1071  54.03620
 2.1062  54.12600
 2.1054  53.71310
 2.1045  53.30620
 2.1036  53.15390
 2.1028  53.39730
 2.1019  53.93740
 2.1011  53.22130
 2.1002  52.89460
 2.0994  53.26110
 2.0985  53.12960
 2.0977  52.56470
 2.0968  53.19130
 2.0960  54.04650
 2.0951  53.79360
 2.0943  54.13100
 2.0934  54.62420
 2.0926  53.51810
 2.0918  52.84030
 2.0909  53.86280
 2.0901  54.63770
 2.0892  53.68860
 2.0884  53.20360
 2.0875  53.23320
 2.0867  53.12270
 2.0859  53.46770
 2.0850  53.83160
 2.0842  53.48600
 2.0833  52.18010
 2.0825  52.08870
 2.0817  52.67610
 2.0808  53.21280
 2.0800  53.68930
 2.0792  54.23610
 2.0783  54.49690
 2.0775  54.07140
 2.0767  53.14820
 2.0759  52.82250
 2.0750  52.58140
 2.0742  53.35240
 2.0734  54.53450
 2.0725  54.02760
 2.0717  53.09180
 2.0709  53.70380
 2.0701  53.46070
 2.0692  53.50710
 2.0684  54.03100
 2.0676  53.99590
 2.0667  53.85660
 2.0659  54.08050
 2.0651  54.00050
 2.0643  53.42910
 2.0635  53.92620
 2.0626  54.73080
 2.0618  54.37550
 2.0610  53.62290
 2.0602  52.69430
 2.0594  51.97120
 2.0585  53.38080
 2.0577  54.59500
 2.0569  55.66650
 2.0561  53.78030
 2.0553  51.68640
 2.0545  52.62160
 2.0537  53.51370
 2.0528  54.85950
 2.0520  55.13890
 2.0512  54.99220
 2.0504  54.10360
 2.0496  52.19250
 2.0488  52.00350
 2.0480  53.83090
 2.0472  53.94830
 2.0464  52.81910
 2.0456  51.94660
 2.0447  53.14230
 2.0439  52.75470
 2.0431  51.53530
 2.0423  52.96280
 2.0415  53.90150
 2.0407  53.51100
 2.0399  52.39760
 2.0391  52.16070
 2.0383  53.14630
 2.0375  53.20450
 2.0367  52.82960
 2.0359  54.04890
 2.0351  53.87200
 2.0343  52.13360
 2.0335  52.52680
 2.0327  53.28690
 2.0319  53.01640
 2.0311  53.71800
 2.0303  55.18030
 2.0295  54.93280
 2.0287  54.29340
 2.0280  53.59930
 2.0272  53.25330
 2.0264  54.30220
 2.0256  53.43130
 2.0248  52.57040
 2.0240  53.39150
 2.0232  52.95050
 2.0224  52.62810
 2.0216  52.73820
 2.0208  51.96340
 2.0200  52.00530
 2.0193  52.22690
 2.0185  51.79500
 2.0177  51.32350
 2.0169  52.15350
 2.0161  53.06790
 2.0153  53.23460
 2.0146  53.09440
 2.0138  53.42230
 2.0130  53.48910
 2.0122  51.46320
 2.0114  50.13760
 2.0107  51.55310
 2.0099  52.54970
 2.0091  52.35750
 2.0083  50.92930
 2.0075  50.46780
 2.0068  51.10210
 2.0060  51.69690
 2.0052  52.18100
 2.0044  52.77610
 2.0037  53.22600
 2.0029  53.30660
 2.0021  53.06370
 2.0013  53.18590
 2.0006  52.92430
 1.9998  53.74960
