Name: Hornblende Granite
Type: Rock
Class: Igneous
Subclass:  Felsic 
Particle Size: Solid surface
Sample No.: Ward14.txt
Owner: JPL
Wavelength range:  IR  
Origin: Ward's Collection of American Rocks.  Sample locality - Rockport, Essex County, Massachusetts.
Collected by:  Ward's Natural Science
Description: A gray, granular rock consisting of feldspar, quartz and
hornblende.
Geologic age - Carboniferous (probably Mississippian).



Measurement: Hemispherical reflectance
First Column: X
Second Column: Y
X Units: Wavelength (micrometers)
Y Units: Reflectance (percent)
First X Value: 15.3871
Last X Value: 1.9998
Number of X Values: 2257
Additional information: None

15.3871   6.11039
15.3416   6.26876
15.2964   6.45001
15.2514   6.57823
15.2066   6.43514
15.1622   5.89884
15.1180   5.18337
15.0740   4.64263
15.0303   4.09651
14.9869   3.77180
14.9437   3.86153
14.9008   3.85370
14.8581   3.87600
14.8156   4.11743
14.7734   4.26480
14.7314   4.22050
14.6897   4.21768
14.6482   4.48450
14.6069   4.64304
14.5659   4.55862
14.5251   4.54117
14.4845   4.66106
14.4442   4.83264
14.4041   4.92762
14.3642   4.64947
14.3245   4.29999
14.2850   4.41426
14.2458   4.52022
14.2068   4.56100
14.1679   4.70685
14.1293   4.84766
14.0909   5.10539
14.0528   5.36092
14.0148   5.50358
13.9770   5.61718
13.9394   5.57181
13.9021   5.80875
13.8649   6.19682
13.8279   6.32191
13.7911   6.21206
13.7546   6.00352
13.7182   5.88665
13.6820   5.86730
13.6460   5.98471
13.6101   5.83383
13.5745   5.58244
13.5391   5.67659
13.5038   5.99410
13.4687   6.13988
13.4339   5.96180
13.3991   5.71350
13.3646   5.62194
13.3302   5.47426
13.2961   5.47128
13.2621   5.77038
13.2282   6.18911
13.1946   6.44429
13.1611   6.73092
13.1278   7.18018
13.0946   7.29275
13.0616   7.32490
13.0288   7.45788
12.9962   7.65932
12.9637   7.80030
12.9313   7.88415
12.8992   8.13024
12.8672   8.41728
12.8353   8.91425
12.8036   9.36910
12.7721   9.22173
12.7407   8.71670
12.7095   8.07849
12.6784   7.33481
12.6475   6.70260
12.6167   6.59844
12.5861   6.77779
12.5556   7.23386
12.5253   7.81239
12.4951   8.19131
12.4651   7.98607
12.4352   7.37938
12.4054   6.56627
12.3758   5.14687
12.3463   3.89333
12.3170   3.34832
12.2878   3.27570
12.2588   3.33254
12.2299   3.49768
12.2011   3.69929
12.1725   3.80086
12.1439   3.94972
12.1156   4.05812
12.0873   4.04303
12.0592   4.25903
12.0312   4.48189
12.0034   4.53681
11.9757   4.56153
11.9481   4.72390
11.9206   4.96280
11.8933   5.02101
11.8661   5.14822
11.8390   5.18404
11.8120   5.26561
11.7852   5.49586
11.7584   5.58169
11.7318   5.61288
11.7053   5.67349
11.6790   5.76726
11.6527   5.92530
11.6266   6.06425
11.6006   5.99036
11.5747   5.99955
11.5489   6.14525
11.5233   6.19839
11.4977   6.18146
11.4723   6.19509
11.4469   6.30883
11.4217   6.47382
11.3966   6.63617
11.3716   6.69933
11.3468   6.72777
11.3220   6.82655
11.2973   6.87723
11.2728   7.00959
11.2483   7.11372
11.2240   7.09617
11.1997   7.17601
11.1756   7.20452
11.1515   7.21493
11.1276   7.25796
11.1038   7.39646
11.0801   7.56882
11.0564   7.72777
11.0329   7.73305
11.0095   7.79336
10.9862   7.89058
10.9629   8.03338
10.9398   8.13965
10.9168   8.27933
10.8938   8.41174
10.8710   8.48281
10.8483   8.52814
10.8256   8.61912
10.8031   8.70941
10.7806   8.83536
10.7582   9.02134
10.7360   9.19400
10.7138   9.31949
10.6917   9.35619
10.6697   9.42427
10.6478   9.60874
10.6260   9.73611
10.6042   9.91570
10.5826  10.07860
10.5610  10.26230
10.5396  10.45910
10.5182  10.58780
10.4969  10.76860
10.4757  10.93950
10.4546  11.15890
10.4335  11.43830
10.4126  11.67050
10.3917  11.94540
10.3709  12.25440
10.3502  12.68130
10.3296  12.96490
10.3091  13.27990
10.2886  13.81600
10.2683  14.25720
10.2480  14.65480
10.2277  15.17250
10.2076  15.67310
10.1876  16.20980
10.1676  16.71760
10.1477  17.11380
10.1279  17.72940
10.1081  18.46760
10.0885  18.90490
10.0689  19.17700
10.0494  19.41700
10.0299  19.68770
10.0106  20.15080
 9.9913  20.68980
 9.9720  21.30200
 9.9529  21.94270
 9.9338  22.64900
 9.9148  23.15810
 9.8959  23.54670
 9.8771  23.84320
 9.8583  23.93370
 9.8396  23.73100
 9.8210  23.21960
 9.8024  22.76980
 9.7839  22.68160
 9.7655  22.82750
 9.7471  23.11490
 9.7288  23.42120
 9.7106  23.75330
 9.6925  24.23750
 9.6744  24.81300
 9.6564  25.31430
 9.6384  25.79320
 9.6205  26.24530
 9.6027  26.37890
 9.5850  26.50430
 9.5673  26.74430
 9.5497  26.74880
 9.5321  26.56330
 9.5146  26.39760
 9.4972  26.38320
 9.4798  26.75930
 9.4625  27.09220
 9.4453  27.36460
 9.4281  27.68340
 9.4110  27.93380
 9.3940  28.34760
 9.3770  29.05770
 9.3600  29.70410
 9.3432  30.38470
 9.3264  30.90480
 9.3096  31.44530
 9.2930  32.02960
 9.2763  32.61230
 9.2598  33.06210
 9.2432  33.37780
 9.2268  33.48520
 9.2104  33.58240
 9.1941  33.60180
 9.1778  33.56470
 9.1616  33.45850
 9.1454  33.08250
 9.1293  32.63400
 9.1133  32.01090
 9.0973  31.19950
 9.0814  30.72990
 9.0655  30.22490
 9.0497  29.73750
 9.0339  29.49020
 9.0182  29.30460
 9.0025  29.10600
 8.9870  29.01460
 8.9714  29.14500
 8.9559  29.32560
 8.9405  29.52380
 8.9251  29.75010
 8.9097  29.93010
 8.8945  30.23440
 8.8792  30.49760
 8.8641  30.83670
 8.8489  31.26810
 8.8338  31.71950
 8.8188  32.02520
 8.8039  32.18290
 8.7889  32.27460
 8.7741  32.47670
 8.7592  32.63510
 8.7445  32.72590
 8.7297  32.49260
 8.7151  32.27010
 8.7005  31.94370
 8.6859  31.35110
 8.6714  30.49030
 8.6569  29.22830
 8.6425  27.87270
 8.6281  27.33840
 8.6137  28.05230
 8.5994  29.51250
 8.5852  30.93040
 8.5710  31.98650
 8.5569  32.70290
 8.5428  33.08470
 8.5287  33.13740
 8.5147  33.15090
 8.5008  33.15920
 8.4869  33.09610
 8.4730  33.04140
 8.4592  33.01250
 8.4454  32.97150
 8.4316  32.89070
 8.4180  32.59660
 8.4043  32.29780
 8.3907  31.97860
 8.3772  31.78210
 8.3637  31.45640
 8.3502  30.94390
 8.3368  30.52690
 8.3234  30.01200
 8.3100  29.38130
 8.2967  28.79800
 8.2835  28.28840
 8.2703  27.79130
 8.2571  27.21760
 8.2440  26.55350
 8.2309  25.98250
 8.2179  25.43600
 8.2049  24.79740
 8.1919  24.09860
 8.1790  23.15360
 8.1661  22.00970
 8.1532  20.79810
 8.1404  19.66070
 8.1277  18.32790
 8.1150  16.87640
 8.1023  15.63330
 8.0897  14.39340
 8.0770  13.22690
 8.0645  12.23440
 8.0520  11.28770
 8.0395  10.41650
 8.0270   9.61281
 8.0146   8.92032
 8.0023   8.27722
 7.9899   7.56307
 7.9776   6.90211
 7.9654   6.26988
 7.9532   5.81017
 7.9410   5.31171
 7.9288   4.79265
 7.9167   4.43374
 7.9047   4.13354
 7.8926   3.78899
 7.8807   3.47249
 7.8687   3.17828
 7.8568   2.91134
 7.8449   2.62655
 7.8330   2.42989
 7.8212   2.34335
 7.8094   2.26808
 7.7977   2.18981
 7.7860   1.99904
 7.7743   1.89817
 7.7627   1.76867
 7.7511   1.56235
 7.7395   1.60228
 7.7280   1.67332
 7.7165   1.54170
 7.7050   1.37235
 7.6936   1.25681
 7.6822   1.22050
 7.6708   1.17248
 7.6595   1.09903
 7.6482   1.03450
 7.6369   0.95678
 7.6257   0.90799
 7.6145   0.92301
 7.6033   0.85416
 7.5922   0.86472
 7.5811   0.89480
 7.5700   0.86193
 7.5590   0.84694
 7.5480   0.90003
 7.5370   0.83968
 7.5261   0.72537
 7.5152   0.68783
 7.5043   0.71177
 7.4935   0.79456
 7.4826   0.88905
 7.4718   0.92376
 7.4611   0.77233
 7.4504   0.78707
 7.4397   0.99505
 7.4290   0.92439
 7.4184   0.77699
 7.4078   0.66436
 7.3972   0.70129
 7.3867   0.77575
 7.3762   0.83062
 7.3657   0.81892
 7.3553   0.75775
 7.3449   0.79961
 7.3345   0.88249
 7.3241   0.88592
 7.3138   0.87916
 7.3035   0.85564
 7.2932   0.79678
 7.2830   0.69414
 7.2727   0.76763
 7.2626   0.88485
 7.2524   0.92557
 7.2423   0.99627
 7.2322   1.11062
 7.2221   1.02940
 7.2120   0.97823
 7.2020   1.07674
 7.1921   1.08626
 7.1821   1.02238
 7.1722   0.99120
 7.1623   0.95599
 7.1524   0.96430
 7.1425   1.09561
 7.1327   1.12253
 7.1229   1.11042
 7.1131   1.20101
 7.1034   1.27474
 7.0937   1.22073
 7.0840   1.20418
 7.0743   1.21583
 7.0647   1.27769
 7.0551   1.30429
 7.0455   1.19618
 7.0359   1.11199
 7.0264   1.19112
 7.0169   1.25738
 7.0074   1.21217
 6.9979   1.21680
 6.9885   1.30818
 6.9791   1.43417
 6.9697   1.45629
 6.9604   1.43933
 6.9510   1.49482
 6.9417   1.52445
 6.9324   1.40730
 6.9232   1.36463
 6.9140   1.43813
 6.9047   1.51085
 6.8956   1.48451
 6.8864   1.41923
 6.8773   1.38815
 6.8682   1.40754
 6.8591   1.40673
 6.8500   1.46148
 6.8410   1.55881
 6.8320   1.61185
 6.8230   1.47150
 6.8140   1.43816
 6.8051   1.61807
 6.7962   1.68388
 6.7873   1.61809
 6.7784   1.59816
 6.7695   1.65728
 6.7607   1.66331
 6.7519   1.67196
 6.7431   1.63439
 6.7344   1.61759
 6.7256   1.63631
 6.7169   1.59211
 6.7082   1.58946
 6.6996   1.67076
 6.6909   1.70899
 6.6823   1.73303
 6.6737   1.81107
 6.6651   1.83279
 6.6566   1.82456
 6.6480   1.87251
 6.6395   1.96022
 6.6310   1.93918
 6.6226   1.80368
 6.6141   1.72564
 6.6057   1.65357
 6.5973   1.73729
 6.5889   1.88587
 6.5805   1.93602
 6.5722   1.94817
 6.5639   1.88079
 6.5556   1.87068
 6.5473   1.83849
 6.5390   1.84089
 6.5308   1.87532
 6.5226   1.86484
 6.5144   1.87587
 6.5062   1.90202
 6.4981   2.00927
 6.4900   1.96797
 6.4818   1.91427
 6.4737   1.94436
 6.4657   1.89296
 6.4576   2.00053
 6.4496   2.10188
 6.4416   2.03896
 6.4336   2.06018
 6.4256   2.13743
 6.4177   2.22390
 6.4097   2.20369
 6.4018   2.10564
 6.3939   2.05632
 6.3860   2.01001
 6.3782   1.89443
 6.3704   1.94475
 6.3625   2.07664
 6.3547   2.09767
 6.3470   2.05632
 6.3392   2.01600
 6.3315   2.03001
 6.3237   2.02613
 6.3160   2.07257
 6.3083   2.09072
 6.3007   1.98915
 6.2930   1.96925
 6.2854   1.92188
 6.2778   1.91253
 6.2702   1.97661
 6.2626   2.00965
 6.2551   1.97966
 6.2476   1.95360
 6.2400   2.03423
 6.2325   2.05823
 6.2251   1.99320
 6.2176   1.94164
 6.2101   2.00692
 6.2027   1.99387
 6.1953   1.98232
 6.1879   2.03476
 6.1805   1.98934
 6.1732   1.97941
 6.1658   2.03375
 6.1585   2.10121
 6.1512   2.05851
 6.1439   2.02926
 6.1367   1.98604
 6.1294   1.99710
 6.1222   2.11479
 6.1149   2.27891
 6.1077   2.23386
 6.1006   2.18707
 6.0934   2.16033
 6.0862   2.06150
 6.0791   2.09346
 6.0720   2.15094
 6.0649   2.20150
 6.0578   2.26701
 6.0507   2.29627
 6.0437   2.25714
 6.0366   2.24402
 6.0296   2.21674
 6.0226   2.16158
 6.0156   2.12072
 6.0087   2.16784
 6.0017   2.20972
 5.9948   2.21308
 5.9878   2.22892
 5.9809   2.25197
 5.9740   2.19635
 5.9672   2.16542
 5.9603   2.27004
 5.9535   2.22615
 5.9466   2.17882
 5.9398   2.25469
 5.9330   2.28989
 5.9262   2.26582
 5.9195   2.27945
 5.9127   2.36657
 5.9060   2.34824
 5.8993   2.29494
 5.8926   2.23118
 5.8859   2.26469
 5.8792   2.29692
 5.8726   2.29109
 5.8659   2.33940
 5.8593   2.37467
 5.8527   2.39210
 5.8461   2.35614
 5.8395   2.37757
 5.8329   2.36584
 5.8264   2.40122
 5.8198   2.52114
 5.8133   2.54161
 5.8068   2.41895
 5.8003   2.42065
 5.7938   2.57417
 5.7874   2.53687
 5.7809   2.44843
 5.7745   2.39265
 5.7680   2.35250
 5.7616   2.39081
 5.7552   2.45275
 5.7489   2.52237
 5.7425   2.49557
 5.7361   2.49273
 5.7298   2.57718
 5.7235   2.56672
 5.7172   2.54718
 5.7109   2.61509
 5.7046   2.66646
 5.6983   2.64370
 5.6921   2.63920
 5.6858   2.63317
 5.6796   2.60189
 5.6734   2.57868
 5.6672   2.58166
 5.6610   2.61266
 5.6548   2.60523
 5.6487   2.57759
 5.6425   2.61223
 5.6364   2.62870
 5.6303   2.60555
 5.6242   2.56433
 5.6181   2.52144
 5.6120   2.53483
 5.6059   2.58321
 5.5999   2.52141
 5.5938   2.50904
 5.5878   2.63030
 5.5818   2.68274
 5.5758   2.60226
 5.5698   2.61249
 5.5638   2.61738
 5.5578   2.63152
 5.5519   2.66489
 5.5460   2.59782
 5.5400   2.59523
 5.5341   2.62020
 5.5282   2.64942
 5.5223   2.71710
 5.5164   2.77050
 5.5106   2.74850
 5.5047   2.70776
 5.4989   2.75622
 5.4931   2.80599
 5.4873   2.81557
 5.4815   2.80360
 5.4757   2.75043
 5.4699   2.87031
 5.4641   2.96139
 5.4584   2.95009
 5.4527   2.97942
 5.4469   2.96297
 5.4412   3.01943
 5.4355   3.07727
 5.4298   3.02668
 5.4241   2.99898
 5.4185   3.02122
 5.4128   3.09009
 5.4072   3.10777
 5.4015   2.98769
 5.3959   2.92482
 5.3903   2.91437
 5.3847   2.95245
 5.3791   3.00909
 5.3735   3.00182
 5.3680   2.99198
 5.3624   3.03737
 5.3569   3.02193
 5.3514   3.07862
 5.3458   3.12637
 5.3403   3.04637
 5.3348   3.01679
 5.3294   3.07990
 5.3239   3.13082
 5.3184   3.10084
 5.3130   3.07002
 5.3075   2.97839
 5.3021   2.95831
 5.2967   3.08858
 5.2913   3.10728
 5.2859   3.07816
 5.2805   3.09828
 5.2751   3.16631
 5.2698   3.18232
 5.2644   3.15009
 5.2591   3.17749
 5.2538   3.16440
 5.2485   3.17268
 5.2431   3.23302
 5.2378   3.29376
 5.2326   3.27390
 5.2273   3.21599
 5.2220   3.22746
 5.2168   3.28503
 5.2115   3.32606
 5.2063   3.32520
 5.2011   3.31715
 5.1959   3.36738
 5.1907   3.27923
 5.1855   3.27032
 5.1803   3.34973
 5.1751   3.44442
 5.1700   3.48351
 5.1648   3.54629
 5.1597   3.55166
 5.1545   3.43653
 5.1494   3.40894
 5.1443   3.53298
 5.1392   3.58001
 5.1341   3.56625
 5.1291   3.58434
 5.1240   3.60504
 5.1189   3.56502
 5.1139   3.63683
 5.1088   3.70365
 5.1038   3.77406
 5.0988   3.84028
 5.0938   3.89797
 5.0888   3.89081
 5.0838   3.82437
 5.0788   3.84299
 5.0738   3.84398
 5.0689   3.82751
 5.0639   3.82213
 5.0590   3.82478
 5.0541   3.84117
 5.0491   3.83821
 5.0442   3.86971
 5.0393   3.90786
 5.0344   3.91567
 5.0296   3.95671
 5.0247   3.98476
 5.0198   4.00399
 5.0150   3.96910
 5.0101   3.92673
 5.0053   3.90626
 5.0004   3.90677
 4.9956   3.97095
 4.9908   4.07871
 4.9860   4.08487
 4.9812   4.12655
 4.9765   4.20120
 4.9717   4.17215
 4.9669   4.21701
 4.9622   4.32041
 4.9574   4.32878
 4.9527   4.37664
 4.9480   4.40359
 4.9432   4.38572
 4.9385   4.35828
 4.9338   4.31115
 4.9291   4.29839
 4.9245   4.36123
 4.9198   4.33612
 4.9151   4.33596
 4.9105   4.34745
 4.9058   4.34351
 4.9012   4.34262
 4.8966   4.42298
 4.8919   4.52491
 4.8873   4.62539
 4.8827   4.62575
 4.8781   4.64453
 4.8736   4.76969
 4.8690   4.88175
 4.8644   4.89494
 4.8599   4.84140
 4.8553   4.77454
 4.8508   4.91135
 4.8462   5.07798
 4.8417   5.10317
 4.8372   5.04544
 4.8327   4.97251
 4.8282   4.92778
 4.8237   5.01779
 4.8192   5.13292
 4.8147   5.20694
 4.8103   5.31537
 4.8058   5.24959
 4.8014   5.12793
 4.7969   5.08332
 4.7925   5.12535
 4.7881   5.19908
 4.7836   5.19383
 4.7792   5.25025
 4.7748   5.22760
 4.7704   5.17951
 4.7660   5.20870
 4.7617   5.29941
 4.7573   5.30253
 4.7530   5.34964
 4.7486   5.43953
 4.7443   5.49817
 4.7399   5.46903
 4.7356   5.39420
 4.7313   5.45460
 4.7270   5.49289
 4.7226   5.53070
 4.7184   5.48170
 4.7141   5.36494
 4.7098   5.46243
 4.7055   5.50955
 4.7012   5.51720
 4.6970   5.49021
 4.6927   5.39099
 4.6885   5.38349
 4.6842   5.46324
 4.6800   5.48475
 4.6758   5.49737
 4.6716   5.50289
 4.6674   5.42154
 4.6632   5.54541
 4.6590   5.63684
 4.6548   5.57682
 4.6506   5.57500
 4.6465   5.65810
 4.6423   5.81086
 4.6382   5.91961
 4.6340   6.01735
 4.6299   6.14692
 4.6258   6.20129
 4.6216   6.10282
 4.6175   6.10492
 4.6134   6.14888
 4.6093   6.29268
 4.6052   6.39135
 4.6011   6.31507
 4.5971   6.27420
 4.5930   6.43053
 4.5889   6.62427
 4.5849   6.72278
 4.5808   6.71099
 4.5768   6.64964
 4.5727   6.64154
 4.5687   6.66272
 4.5647   6.68265
 4.5607   6.77022
 4.5567   6.76788
 4.5526   6.71647
 4.5487   6.73448
 4.5447   6.81216
 4.5407   6.84672
 4.5367   6.83043
 4.5328   6.81063
 4.5288   6.82688
 4.5248   6.85471
 4.5209   6.88303
 4.5170   6.81676
 4.5130   6.81411
 4.5091   6.85333
 4.5052   6.93738
 4.5013   6.92860
 4.4974   6.88399
 4.4935   6.99039
 4.4896   7.05511
 4.4857   6.93270
 4.4818   6.93830
 4.4779   7.07224
 4.4741   7.13926
 4.4702   7.14676
 4.4664   7.17651
 4.4625   7.26266
 4.4587   7.27279
 4.4549   7.35676
 4.4510   7.57210
 4.4472   7.63687
 4.4434   7.54814
 4.4396   7.46858
 4.4358   7.53206
 4.4320   7.66693
 4.4282   7.75764
 4.4245   7.73080
 4.4207   7.72026
 4.4169   7.78262
 4.4132   7.91906
 4.4094   8.12192
 4.4057   8.11284
 4.4019   8.11663
 4.3982   8.25214
 4.3945   8.34514
 4.3907   8.44756
 4.3870   8.56100
 4.3833   8.59126
 4.3796   8.76261
 4.3759   8.86020
 4.3722   8.93116
 4.3685   9.08974
 4.3649   9.19550
 4.3612   9.17700
 4.3575   9.25312
 4.3539   9.36600
 4.3502   9.42825
 4.3466   9.50976
 4.3429   9.68032
 4.3393   9.89117
 4.3357   9.96715
 4.3320  10.01970
 4.3284  10.12800
 4.3248  10.23910
 4.3212  10.31770
 4.3176  10.32800
 4.3140  10.28150
 4.3105  10.31410
 4.3069  10.41950
 4.3033  10.54800
 4.2997  10.62680
 4.2962  10.59970
 4.2926  10.63250
 4.2890  10.82150
 4.2855  10.90160
 4.2820  10.90870
 4.2784  10.98920
 4.2749  11.11610
 4.2714  11.28310
 4.2679  11.26620
 4.2644  11.30290
 4.2609  11.56380
 4.2574  11.86060
 4.2539  11.95650
 4.2504  11.84850
 4.2469  11.75100
 4.2434  11.73420
 4.2400  11.90430
 4.2365  12.16580
 4.2330  12.16300
 4.2296  12.17180
 4.2261  12.23880
 4.2227  12.32000
 4.2193  12.49310
 4.2158  12.56640
 4.2124  12.58200
 4.2090  12.63790
 4.2056  12.69010
 4.2022  12.77030
 4.1988  12.82300
 4.1954  12.83470
 4.1920  12.97580
 4.1886  13.14910
 4.1852  13.21040
 4.1818  13.24810
 4.1785  13.32820
 4.1751  13.50540
 4.1717  13.61130
 4.1684  13.66180
 4.1650  13.62600
 4.1617  13.68820
 4.1584  13.78220
 4.1550  13.79870
 4.1517  13.86740
 4.1484  13.89990
 4.1451  13.92000
 4.1418  14.06900
 4.1384  14.20920
 4.1351  14.22400
 4.1319  14.16610
 4.1286  14.15430
 4.1253  14.39250
 4.1220  14.52550
 4.1187  14.47100
 4.1155  14.48760
 4.1122  14.52230
 4.1089  14.58010
 4.1057  14.84260
 4.1024  15.02990
 4.0992  15.18440
 4.0959  15.26170
 4.0927  15.22890
 4.0895  15.21940
 4.0863  15.32460
 4.0830  15.44410
 4.0798  15.44570
 4.0766  15.38970
 4.0734  15.43340
 4.0702  15.53300
 4.0670  15.57350
 4.0639  15.53420
 4.0607  15.48400
 4.0575  15.56000
 4.0543  15.65880
 4.0511  15.71870
 4.0480  15.66750
 4.0448  15.60460
 4.0417  15.56850
 4.0385  15.64270
 4.0354  15.75180
 4.0323  15.65320
 4.0291  15.61440
 4.0260  15.57600
 4.0229  15.62130
 4.0197  15.65660
 4.0166  15.67070
 4.0135  15.63070
 4.0104  15.57040
 4.0073  15.60620
 4.0042  15.66660
 4.0011  15.65430
 3.9981  15.58160
 3.9950  15.55670
 3.9919  15.65220
 3.9888  15.77650
 3.9857  15.79140
 3.9827  15.79790
 3.9796  15.78200
 3.9766  15.73030
 3.9735  15.77490
 3.9705  15.85620
 3.9675  16.03760
 3.9644  16.06270
 3.9614  16.09060
 3.9584  16.16920
 3.9554  16.40930
 3.9523  16.56490
 3.9493  16.52380
 3.9463  16.57630
 3.9433  16.72970
 3.9403  16.80750
 3.9373  16.84980
 3.9343  16.99070
 3.9314  17.06310
 3.9284  17.01760
 3.9254  17.05390
 3.9224  17.08180
 3.9195  17.10370
 3.9165  17.18590
 3.9136  17.12650
 3.9106  17.12030
 3.9077  17.24770
 3.9047  17.24640
 3.9018  17.22340
 3.8988  17.24460
 3.8959  17.24110
 3.8930  17.23290
 3.8901  17.14250
 3.8872  17.13030
 3.8842  17.18420
 3.8813  17.09590
 3.8784  16.98040
 3.8755  17.05740
 3.8726  17.20930
 3.8697  17.26530
 3.8669  17.24380
 3.8640  17.27590
 3.8611  17.21770
 3.8582  17.07360
 3.8554  17.15660
 3.8525  17.32380
 3.8496  17.30820
 3.8468  17.39980
 3.8439  17.57220
 3.8411  17.54460
 3.8382  17.55790
 3.8354  17.65470
 3.8326  17.72420
 3.8297  17.71970
 3.8269  17.65560
 3.8241  17.64780
 3.8213  17.79440
 3.8185  17.88440
 3.8157  17.92280
 3.8128  17.92690
 3.8100  18.09480
 3.8072  18.24510
 3.8045  18.24850
 3.8017  18.24860
 3.7989  18.29040
 3.7961  18.36280
 3.7933  18.43330
 3.7906  18.36200
 3.7878  18.46410
 3.7850  18.44660
 3.7822  18.24580
 3.7795  18.27200
 3.7767  18.32340
 3.7740  18.33600
 3.7713  18.34320
 3.7685  18.30700
 3.7658  18.25530
 3.7630  18.30360
 3.7603  18.35330
 3.7576  18.32820
 3.7549  18.26760
 3.7521  18.26840
 3.7494  18.19480
 3.7467  18.20880
 3.7440  18.26530
 3.7413  18.28680
 3.7386  18.33680
 3.7359  18.42030
 3.7332  18.45730
 3.7306  18.51940
 3.7279  18.55620
 3.7252  18.50950
 3.7225  18.56110
 3.7199  18.63330
 3.7172  18.70030
 3.7145  18.92420
 3.7119  18.98650
 3.7092  18.83290
 3.7066  18.81540
 3.7039  18.99170
 3.7013  19.15870
 3.6986  19.25930
 3.6960  19.22350
 3.6934  19.23570
 3.6907  19.39140
 3.6881  19.59890
 3.6855  19.71260
 3.6829  19.81120
 3.6803  19.93400
 3.6776  19.99770
 3.6750  20.12200
 3.6724  20.18280
 3.6698  20.13040
 3.6672  20.16710
 3.6646  20.23350
 3.6620  20.24410
 3.6595  20.12210
 3.6569  20.20230
 3.6543  20.33980
 3.6517  20.28710
 3.6492  20.43430
 3.6466  20.48840
 3.6440  20.54710
 3.6415  20.57200
 3.6389  20.42170
 3.6364  20.41500
 3.6338  20.51990
 3.6313  20.47200
 3.6287  20.51780
 3.6262  20.64810
 3.6237  20.67950
 3.6211  20.69030
 3.6186  20.57580
 3.6161  20.45270
 3.6136  20.36620
 3.6111  20.39880
 3.6085  20.51140
 3.6060  20.53320
 3.6035  20.49590
 3.6010  20.48530
 3.5985  20.34170
 3.5960  20.30770
 3.5935  20.45420
 3.5910  20.52270
 3.5886  20.43310
 3.5861  20.41830
 3.5836  20.54090
 3.5811  20.42490
 3.5787  20.42210
 3.5762  20.47900
 3.5737  20.33190
 3.5713  20.28400
 3.5688  20.21240
 3.5663  20.10510
 3.5639  20.14440
 3.5614  20.25070
 3.5590  20.34420
 3.5566  20.38730
 3.5541  20.29270
 3.5517  20.34140
 3.5493  20.33170
 3.5468  20.43230
 3.5444  20.53240
 3.5420  20.66010
 3.5396  20.49440
 3.5372  20.26890
 3.5347  20.22070
 3.5323  20.09900
 3.5299  19.95960
 3.5275  20.00610
 3.5251  19.92800
 3.5227  19.72330
 3.5203  19.72280
 3.5180  19.84880
 3.5156  19.77590
 3.5132  19.56750
 3.5108  19.37710
 3.5084  19.13140
 3.5061  19.01750
 3.5037  19.04130
 3.5013  19.10320
 3.4990  19.28250
 3.4966  19.29940
 3.4943  19.09670
 3.4919  18.99840
 3.4895  18.94960
 3.4872  18.81530
 3.4849  18.66360
 3.4825  18.66390
 3.4802  18.61460
 3.4778  18.43810
 3.4755  18.38070
 3.4732  18.59290
 3.4709  18.74200
 3.4685  18.67790
 3.4662  18.81190
 3.4639  18.73670
 3.4616  18.49740
 3.4593  18.44430
 3.4570  18.33690
 3.4547  18.44650
 3.4524  18.51850
 3.4501  18.38070
 3.4478  18.23820
 3.4455  18.16580
 3.4432  18.22270
 3.4409  18.11480
 3.4386  17.87170
 3.4364  17.70620
 3.4341  17.44960
 3.4318  17.24800
 3.4295  17.01960
 3.4273  16.74910
 3.4250  16.78520
 3.4228  16.95920
 3.4205  17.02870
 3.4182  17.02730
 3.4160  16.80900
 3.4137  16.63170
 3.4115  16.55820
 3.4093  16.59240
 3.4070  16.72070
 3.4048  16.53800
 3.4025  16.39370
 3.4003  16.41440
 3.3981  16.47420
 3.3958  16.54130
 3.3936  16.38990
 3.3914  16.23380
 3.3892  16.25900
 3.3870  16.20290
 3.3848  16.06540
 3.3826  15.90760
 3.3804  15.73420
 3.3782  15.80660
 3.3760  15.82110
 3.3738  15.79940
 3.3716  15.85360
 3.3694  15.70440
 3.3672  15.68100
 3.3650  15.83400
 3.3628  15.73320
 3.3606  15.50040
 3.3585  15.59830
 3.3563  15.61220
 3.3541  15.52890
 3.3520  15.55910
 3.3498  15.35040
 3.3476  15.17270
 3.3455  15.29700
 3.3433  15.21720
 3.3411  15.08180
 3.3390  15.12100
 3.3369  15.01920
 3.3347  14.79590
 3.3326  14.73870
 3.3304  14.79690
 3.3283  14.83950
 3.3262  14.89950
 3.3240  14.68220
 3.3219  14.47460
 3.3198  14.39410
 3.3176  14.45750
 3.3155  14.70700
 3.3134  14.38990
 3.3113  14.23290
 3.3092  14.32770
 3.3071  14.17770
 3.3049  13.86180
 3.3028  13.76160
 3.3007  13.84420
 3.2986  13.76530
 3.2965  13.57810
 3.2944  13.48490
 3.2924  13.48010
 3.2903  13.60990
 3.2882  13.55170
 3.2861  13.39070
 3.2840  13.49600
 3.2819  13.37990
 3.2799  13.17970
 3.2778  13.15560
 3.2757  13.08870
 3.2736  13.05760
 3.2716  13.00190
 3.2695  13.12380
 3.2675  13.04560
 3.2654  12.72620
 3.2634  12.59750
 3.2613  12.59100
 3.2593  12.53400
 3.2572  12.52560
 3.2552  12.45930
 3.2531  12.43420
 3.2511  12.35700
 3.2490  12.32270
 3.2470  12.40660
 3.2450  12.35400
 3.2429  12.08340
 3.2409  12.14400
 3.2389  12.19170
 3.2369  12.15000
 3.2348  11.83060
 3.2328  11.69420
 3.2308  11.76260
 3.2288  11.50670
 3.2268  11.41270
 3.2248  11.48980
 3.2228  11.57360
 3.2208  11.61040
 3.2188  11.49600
 3.2168  11.23320
 3.2148  11.18780
 3.2128  11.22460
 3.2108  11.24160
 3.2088  11.12500
 3.2068  11.10750
 3.2049  11.23240
 3.2029  11.28620
 3.2009  11.18050
 3.1989  10.91570
 3.1970  10.77710
 3.1950  10.77340
 3.1930  10.90610
 3.1911  10.94540
 3.1891  10.84000
 3.1871  10.66540
 3.1852  10.42230
 3.1832  10.49430
 3.1813  10.54800
 3.1793  10.41220
 3.1774  10.28380
 3.1754  10.14330
 3.1735  10.08990
 3.1715  10.24050
 3.1696  10.24280
 3.1677   9.91300
 3.1657   9.80293
 3.1638  10.23650
 3.1619  10.47630
 3.1599   9.90961
 3.1580   9.44971
 3.1561   9.67192
 3.1542   9.85756
 3.1523   9.66245
 3.1503   9.66541
 3.1484   9.68181
 3.1465   9.42755
 3.1446   9.44589
 3.1427   9.64029
 3.1408   9.47303
 3.1389   9.29887
 3.1370   9.35896
 3.1351   9.32343
 3.1332   9.30078
 3.1313   9.25179
 3.1294   9.34906
 3.1275   9.23491
 3.1257   8.95898
 3.1238   8.98700
 3.1219   9.24557
 3.1200   9.34691
 3.1181   9.15580
 3.1163   9.23589
 3.1144   9.32539
 3.1125   9.17965
 3.1107   8.98948
 3.1088   8.99854
 3.1069   9.11819
 3.1051   9.22837
 3.1032   8.90644
 3.1014   8.66057
 3.0995   8.73976
 3.0976   8.60645
 3.0958   8.56040
 3.0940   8.71646
 3.0921   8.90541
 3.0903   8.97005
 3.0884   9.17609
 3.0866   8.69590
 3.0848   8.31770
 3.0829   8.33861
 3.0811   8.35460
 3.0793   8.55191
 3.0774   8.73687
 3.0756   8.85529
 3.0738   8.65648
 3.0720   8.49984
 3.0701   8.64833
 3.0683   8.72565
 3.0665   8.57418
 3.0647   8.46641
 3.0629   8.47327
 3.0611   8.51641
 3.0593   8.43400
 3.0575   8.34798
 3.0557   8.26799
 3.0539   8.31849
 3.0521   8.32417
 3.0503   8.46641
 3.0485   8.26991
 3.0467   8.45331
 3.0449   8.73698
 3.0431   8.36630
 3.0413   8.38720
 3.0396   8.52808
 3.0378   8.28011
 3.0360   8.02025
 3.0342   8.03824
 3.0324   8.31551
 3.0307   8.25814
 3.0289   8.32590
 3.0271   8.53436
 3.0254   8.47818
 3.0236   8.15387
 3.0218   7.91809
 3.0201   7.78100
 3.0183   8.14911
 3.0166   8.47685
 3.0148   8.47853
 3.0130   8.41243
 3.0113   8.32863
 3.0096   8.33655
 3.0078   8.12803
 3.0061   8.26350
 3.0043   8.35957
 3.0026   8.26730
 3.0008   8.38394
 2.9991   8.40162
 2.9974   8.08414
 2.9956   7.88118
 2.9939   8.11005
 2.9922   8.45894
 2.9905   8.42250
 2.9887   8.32104
 2.9870   8.39933
 2.9853   8.11449
 2.9836   8.06215
 2.9819   8.12638
 2.9802   8.09162
 2.9784   8.37777
 2.9767   8.48879
 2.9750   8.32232
 2.9733   8.34933
 2.9716   7.98781
 2.9699   7.80395
 2.9682   7.91244
 2.9665   8.16849
 2.9648   8.40758
 2.9631   8.16379
 2.9614   8.06987
 2.9597   8.24431
 2.9581   8.23050
 2.9564   7.93457
 2.9547   7.83683
 2.9530   8.00600
 2.9513   7.75218
 2.9496   7.52334
 2.9480   7.47105
 2.9463   7.55391
 2.9446   7.82087
 2.9429   8.08587
 2.9413   8.15853
 2.9396   8.21935
 2.9379   8.18461
 2.9363   8.35371
 2.9346   8.61118
 2.9330   8.48724
 2.9313   8.55313
 2.9296   8.31239
 2.9280   8.16781
 2.9263   8.49912
 2.9247   8.43930
 2.9230   8.22220
 2.9214   8.20929
 2.9197   8.32813
 2.9181   8.26159
 2.9165   8.12832
 2.9148   8.36570
 2.9132   8.56566
 2.9116   8.24158
 2.9099   8.03122
 2.9083   7.98239
 2.9067   8.19465
 2.9050   8.36152
 2.9034   8.55476
 2.9018   8.20212
 2.9002   8.20170
 2.8985   8.57599
 2.8969   8.56760
 2.8953   8.67337
 2.8937   8.72660
 2.8921   8.67898
 2.8905   8.60156
 2.8888   8.71233
 2.8872   8.86310
 2.8856   8.59696
 2.8840   8.36990
 2.8824   8.29060
 2.8808   8.44138
 2.8792   8.65242
 2.8776   8.69216
 2.8760   8.35757
 2.8744   8.46126
 2.8728   8.90411
 2.8712   9.05206
 2.8697   8.64175
 2.8681   8.60476
 2.8665   8.67498
 2.8649   8.39976
 2.8633   8.58004
 2.8617   8.80088
 2.8602   8.71032
 2.8586   8.77791
 2.8570   9.18136
 2.8554   9.37998
 2.8539   9.02623
 2.8523   9.06301
 2.8507   8.86669
 2.8492   8.75301
 2.8476   9.17496
 2.8460   9.06811
 2.8445   8.90669
 2.8429   9.05841
 2.8413   9.44600
 2.8398   9.49690
 2.8382   9.19827
 2.8367   9.17123
 2.8351   9.48874
 2.8336   9.82337
 2.8320   9.91065
 2.8305   9.67463
 2.8289   9.70877
 2.8274   9.61228
 2.8259   9.36368
 2.8243   9.44013
 2.8228   9.32823
 2.8213   9.43319
 2.8197   9.66116
 2.8182   9.48782
 2.8167   9.67952
 2.8151   9.41623
 2.8136   8.78338
 2.8121   9.46262
 2.8106   9.99823
 2.8090   9.78144
 2.8075   9.80375
 2.8060   9.99027
 2.8045  10.37740
 2.8030  10.83260
 2.8014  10.89550
 2.7999  10.49640
 2.7984  10.02030
 2.7969  10.29250
 2.7954  10.47000
 2.7939   9.87834
 2.7924  10.08220
 2.7909  10.74870
 2.7894  10.88670
 2.7879  10.99040
 2.7864  11.46330
 2.7849  11.36630
 2.7834  11.11180
 2.7819  11.61570
 2.7804  11.37340
 2.7789  11.15590
 2.7774  10.95770
 2.7759  10.88830
 2.7745  11.38400
 2.7730  11.34460
 2.7715  11.51100
 2.7700  12.02630
 2.7685  11.58510
 2.7671  11.50530
 2.7656  11.56820
 2.7641  11.76790
 2.7626  11.80000
 2.7612  11.88000
 2.7597  11.94250
 2.7582  12.29360
 2.7568  12.57950
 2.7553  12.56510
 2.7538  12.82440
 2.7524  13.12840
 2.7509  12.95220
 2.7494  13.00050
 2.7480  13.44170
 2.7465  13.75480
 2.7451  13.62700
 2.7436  13.80370
 2.7422  14.39500
 2.7407  14.95420
 2.7393  15.11480
 2.7378  14.95090
 2.7364  14.72840
 2.7350  14.87070
 2.7335  15.14310
 2.7321  15.64940
 2.7306  16.25740
 2.7292  16.67840
 2.7278  16.77630
 2.7263  17.18450
 2.7249  18.12920
 2.7235  18.13900
 2.7220  18.09500
 2.7206  18.49680
 2.7192  19.42920
 2.7178  20.37320
 2.7163  20.84640
 2.7149  21.34220
 2.7135  21.54990
 2.7121  21.92460
 2.7106  22.48580
 2.7092  22.99050
 2.7078  23.46110
 2.7064  23.74210
 2.7050  24.19200
 2.7036  24.82910
 2.7022  25.33080
 2.7008  25.45530
 2.6994  25.73250
 2.6980  26.47880
 2.6965  27.14790
 2.6951  27.63550
 2.6938  28.09220
 2.6923  28.03060
 2.6910  28.22610
 2.6896  28.62940
 2.6882  28.72770
 2.6868  29.09430
 2.6854  29.39210
 2.6840  29.50780
 2.6826  29.64190
 2.6812  30.11570
 2.6798  30.71870
 2.6784  31.15580
 2.6771  31.47340
 2.6757  31.16940
 2.6743  30.97260
 2.6729  31.32290
 2.6715  32.08330
 2.6702  32.24470
 2.6688  31.84280
 2.6674  32.44910
 2.6660  32.63460
 2.6647  32.53460
 2.6633  32.54200
 2.6619  32.60100
 2.6606  32.91900
 2.6592  33.14330
 2.6578  33.36380
 2.6565  33.48660
 2.6551  33.24270
 2.6538  33.40410
 2.6524  33.51950
 2.6511  33.43850
 2.6497  33.05210
 2.6484  32.86470
 2.6470  33.07840
 2.6456  33.38100
 2.6443  33.47470
 2.6429  33.79950
 2.6416  34.08270
 2.6403  33.94520
 2.6389  33.91360
 2.6376  33.88620
 2.6362  34.05780
 2.6349  34.52600
 2.6336  34.84640
 2.6322  34.74840
 2.6309  35.05500
 2.6296  34.83540
 2.6282  34.64590
 2.6269  34.80770
 2.6256  34.50370
 2.6242  34.45630
 2.6229  34.71060
 2.6216  35.03180
 2.6203  35.19810
 2.6189  35.43780
 2.6176  35.63650
 2.6163  35.53460
 2.6150  35.18920
 2.6136  35.28750
 2.6123  35.33170
 2.6110  35.10830
 2.6097  35.22530
 2.6084  35.44660
 2.6071  35.68820
 2.6058  35.78850
 2.6044  35.53440
 2.6031  35.72770
 2.6018  36.19360
 2.6005  36.11740
 2.5992  35.77010
 2.5979  35.68510
 2.5966  36.31990
 2.5953  36.95160
 2.5940  36.17120
 2.5927  35.60130
 2.5914  35.95380
 2.5901  36.04260
 2.5888  35.92400
 2.5876  35.96010
 2.5863  35.97440
 2.5850  35.94130
 2.5837  35.89180
 2.5824  36.11170
 2.5811  36.64360
 2.5798  36.18750
 2.5785  35.97330
 2.5773  36.24080
 2.5760  36.37510
 2.5747  36.10510
 2.5734  36.03740
 2.5722  36.15970
 2.5709  36.26690
 2.5696  36.27450
 2.5683  36.23900
 2.5671  36.50980
 2.5658  36.55860
 2.5645  36.60360
 2.5633  36.60030
 2.5620  36.48160
 2.5607  36.54050
 2.5595  36.55750
 2.5582  36.43470
 2.5569  36.25460
 2.5557  36.24070
 2.5544  36.45130
 2.5532  36.33460
 2.5519  36.14680
 2.5507  36.15590
 2.5494  36.09560
 2.5481  36.19980
 2.5469  36.19680
 2.5456  36.11460
 2.5444  36.37900
 2.5431  36.36560
 2.5419  35.94230
 2.5406  36.08810
 2.5394  36.20730
 2.5382  36.32150
 2.5369  36.66740
 2.5357  36.56680
 2.5344  36.55640
 2.5332  36.29730
 2.5320  36.12310
 2.5307  36.51110
 2.5295  36.75230
 2.5283  36.35960
 2.5270  36.19680
 2.5258  36.12610
 2.5246  36.41240
 2.5233  36.59670
 2.5221  36.06340
 2.5209  36.22590
 2.5197  36.81320
 2.5184  36.54160
 2.5172  36.58680
 2.5160  36.63530
 2.5148  36.71860
 2.5136  36.82320
 2.5123  36.40690
 2.5111  36.34850
 2.5099  36.62430
 2.5087  36.63850
 2.5075  36.31810
 2.5063  36.43020
 2.5051  36.83410
 2.5038  37.02140
 2.5026  36.95270
 2.5014  36.77440
 2.5002  36.80660
 2.4990  37.08760
 2.4978  37.40720
 2.4966  37.52200
 2.4954  37.32380
 2.4942  37.22100
 2.4930  36.61500
 2.4918  36.79880
 2.4906  37.42430
 2.4894  37.85870
 2.4882  37.61750
 2.4870  37.50560
 2.4858  38.16630
 2.4846  37.67550
 2.4835  37.10920
 2.4823  37.44590
 2.4811  37.34860
 2.4799  37.07460
 2.4787  37.20530
 2.4775  37.45500
 2.4764  37.26100
 2.4752  37.37170
 2.4740  37.80050
 2.4728  38.03070
 2.4716  37.73180
 2.4705  37.29320
 2.4693  37.22720
 2.4681  37.56210
 2.4669  38.25600
 2.4657  38.67640
 2.4646  38.47970
 2.4634  38.00650
 2.4622  37.94000
 2.4611  37.83930
 2.4599  38.14170
 2.4587  38.85700
 2.4576  38.66630
 2.4564  38.33690
 2.4552  38.35570
 2.4541  38.00140
 2.4529  37.74660
 2.4518  37.97330
 2.4506  38.37470
 2.4494  38.56200
 2.4483  38.94380
 2.4471  39.00450
 2.4460  38.07900
 2.4448  37.66600
 2.4437  38.24670
 2.4425  38.55920
 2.4414  38.43650
 2.4402  38.33500
 2.4391  38.41280
 2.4379  38.12580
 2.4368  38.04070
 2.4356  38.27950
 2.4345  38.81810
 2.4333  39.31610
 2.4322  39.39770
 2.4311  38.64170
 2.4299  38.30900
 2.4288  38.28260
 2.4276  38.37640
 2.4265  38.73850
 2.4254  38.94220
 2.4242  38.63840
 2.4231  38.68830
 2.4220  38.87000
 2.4209  38.74770
 2.4197  38.99000
 2.4186  39.18160
 2.4175  39.14730
 2.4163  39.15500
 2.4152  39.23610
 2.4141  39.08430
 2.4130  38.83010
 2.4118  39.38230
 2.4107  39.49470
 2.4096  39.15850
 2.4085  39.00590
 2.4074  38.79380
 2.4063  38.59990
 2.4051  38.84300
 2.4040  39.52440
 2.4029  39.80580
 2.4018  39.45410
 2.4007  39.32230
 2.3996  39.64090
 2.3985  39.92170
 2.3973  39.72870
 2.3962  39.70450
 2.3951  39.84770
 2.3940  39.84610
 2.3929  39.28110
 2.3918  39.28080
 2.3907  39.61600
 2.3896  39.73410
 2.3885  39.69150
 2.3874  40.26750
 2.3863  40.41190
 2.3852  40.25820
 2.3841  40.06230
 2.3830  40.26080
 2.3819  40.31810
 2.3808  40.04070
 2.3798  40.34980
 2.3786  40.45900
 2.3776  39.28180
 2.3765  38.94250
 2.3754  39.69450
 2.3743  40.16570
 2.3732  39.92200
 2.3721  39.37470
 2.3710  39.10660
 2.3700  39.82750
 2.3689  40.21230
 2.3678  40.12260
 2.3667  40.15560
 2.3656  40.16920
 2.3645  40.67790
 2.3635  40.82750
 2.3624  40.68060
 2.3613  40.17350
 2.3603  39.78040
 2.3592  39.65670
 2.3581  40.04480
 2.3570  39.98050
 2.3560  39.61430
 2.3549  39.80890
 2.3538  39.71240
 2.3527  39.41980
 2.3517  39.22760
 2.3506  39.29340
 2.3495  39.86830
 2.3485  40.29600
 2.3474  40.62750
 2.3464  40.47610
 2.3453  39.83350
 2.3442  39.90580
 2.3432  40.48190
 2.3421  40.84160
 2.3411  40.78660
 2.3400  40.63340
 2.3390  40.74200
 2.3379  40.30880
 2.3369  40.35130
 2.3358  40.41920
 2.3347  40.19730
 2.3337  40.63830
 2.3326  40.96420
 2.3316  41.09540
 2.3306  40.70310
 2.3295  40.34500
 2.3285  40.51740
 2.3274  40.64420
 2.3264  40.85300
 2.3253  40.82590
 2.3243  40.66410
 2.3232  40.23390
 2.3222  40.18970
 2.3212  40.56420
 2.3201  41.02010
 2.3191  40.70000
 2.3180  40.67770
 2.3170  40.88430
 2.3160  41.24450
 2.3149  41.57400
 2.3139  41.50950
 2.3129  41.10280
 2.3118  41.18140
 2.3108  41.65630
 2.3098  41.94350
 2.3088  41.72610
 2.3077  41.22540
 2.3067  41.12100
 2.3057  41.41650
 2.3047  41.28650
 2.3036  41.30260
 2.3026  41.55160
 2.3016  41.54770
 2.3006  41.34100
 2.2995  40.84690
 2.2985  40.24620
 2.2975  40.81500
 2.2965  41.60700
 2.2955  41.20530
 2.2944  40.71200
 2.2934  41.27130
 2.2924  41.60210
 2.2914  41.50130
 2.2904  41.53720
 2.2894  41.09650
 2.2884  41.26690
 2.2874  41.44350
 2.2864  41.25950
 2.2854  41.43030
 2.2843  42.24100
 2.2833  41.95980
 2.2823  41.33970
 2.2813  41.41920
 2.2803  42.15420
 2.2793  42.51640
 2.2783  41.87130
 2.2773  41.07810
 2.2763  41.46220
 2.2753  42.02300
 2.2743  41.83720
 2.2733  41.94900
 2.2723  42.29760
 2.2713  42.28390
 2.2703  41.92930
 2.2694  42.04860
 2.2684  42.00060
 2.2674  41.76730
 2.2664  41.36630
 2.2654  41.56000
 2.2644  41.85750
 2.2634  42.09680
 2.2624  42.02270
 2.2614  41.04060
 2.2605  41.38500
 2.2595  42.06320
 2.2585  42.33850
 2.2575  42.56380
 2.2565  42.50000
 2.2555  42.13210
 2.2546  41.87000
 2.2536  42.27500
 2.2526  42.55470
 2.2516  42.48890
 2.2506  42.43250
 2.2497  41.93080
 2.2487  41.15140
 2.2477  41.48280
 2.2467  42.21640
 2.2458  41.95950
 2.2448  42.15440
 2.2438  42.63280
 2.2428  42.79420
 2.2419  42.42180
 2.2409  41.88300
 2.2399  42.38800
 2.2390  42.38890
 2.2380  41.92840
 2.2370  41.61360
 2.2361  41.20210
 2.2351  41.84390
 2.2342  42.33180
 2.2332  42.06520
 2.2322  42.65690
 2.2313  42.71190
 2.2303  41.82610
 2.2294  41.83620
 2.2284  42.21620
 2.2274  42.06200
 2.2265  42.37950
 2.2255  42.91950
 2.2246  42.68090
 2.2236  41.99870
 2.2227  42.54990
 2.2217  42.96110
 2.2208  42.37520
 2.2198  42.10830
 2.2189  42.40620
 2.2179  42.37250
 2.2170  42.44030
 2.2160  43.00160
 2.2151  42.37100
 2.2141  41.18280
 2.2132  41.41730
 2.2122  41.53870
 2.2113  42.00420
 2.2103  42.97200
 2.2094  42.82560
 2.2085  42.21890
 2.2075  41.88650
 2.2066  41.41030
 2.2056  41.93710
 2.2047  42.64010
 2.2038  42.38570
 2.2028  41.73650
 2.2019  42.38120
 2.2010  43.15830
 2.2000  42.94210
 2.1991  42.74690
 2.1982  42.80350
 2.1972  41.66230
 2.1963  41.74400
 2.1954  42.27840
 2.1944  42.48360
 2.1935  42.42590
 2.1926  42.26850
 2.1917  42.12860
 2.1907  42.11590
 2.1898  42.04710
 2.1889  42.10720
 2.1880  42.50420
 2.1870  42.73590
 2.1861  42.17560
 2.1852  41.68160
 2.1843  41.99300
 2.1833  42.27760
 2.1824  42.15180
 2.1815  41.27990
 2.1806  40.73700
 2.1797  41.16920
 2.1788  41.56220
 2.1778  41.80490
 2.1769  42.56040
 2.1760  43.36470
 2.1751  43.67220
 2.1742  43.56190
 2.1733  43.38290
 2.1724  42.01740
 2.1715  41.20580
 2.1706  41.82710
 2.1696  42.54790
 2.1687  42.92750
 2.1678  43.28210
 2.1669  43.05600
 2.1660  42.82170
 2.1651  42.53890
 2.1642  42.24820
 2.1633  42.10430
 2.1624  42.24770
 2.1615  42.57520
 2.1606  42.22480
 2.1597  42.69540
 2.1588  42.78920
 2.1579  42.52730
 2.1570  42.14380
 2.1561  42.22250
 2.1552  42.60960
 2.1543  42.55600
 2.1534  42.11420
 2.1525  42.90230
 2.1517  43.66330
 2.1507  42.44920
 2.1499  41.73020
 2.1490  41.87430
 2.1481  41.59940
 2.1472  42.03190
 2.1463  42.33100
 2.1454  42.63760
 2.1445  42.85580
 2.1436  43.08350
 2.1428  42.75310
 2.1419  42.99510
 2.1410  43.35970
 2.1401  41.99560
 2.1392  40.60680
 2.1383  41.05210
 2.1375  42.04780
 2.1366  41.83520
 2.1357  41.40200
 2.1348  42.37480
 2.1339  42.93010
 2.1331  42.68160
 2.1322  42.00810
 2.1313  41.10420
 2.1304  41.00980
 2.1296  41.63460
 2.1287  42.14440
 2.1278  42.45810
 2.1269  42.19760
 2.1261  41.74830
 2.1252  42.32470
 2.1243  43.02020
 2.1235  42.70980
 2.1226  41.80590
 2.1217  41.68180
 2.1208  41.94300
 2.1200  42.13550
 2.1191  42.74710
 2.1183  42.27600
 2.1174  42.00680
 2.1165  41.91180
 2.1157  41.75960
 2.1148  42.05740
 2.1139  42.93540
 2.1131  42.55450
 2.1122  41.67250
 2.1113  41.08290
 2.1105  41.25610
 2.1096  42.09440
 2.1088  42.69680
 2.1079  41.49780
 2.1071  41.15290
 2.1062  41.89870
 2.1054  42.00110
 2.1045  42.16030
 2.1036  42.23020
 2.1028  42.30040
 2.1019  41.48660
 2.1011  40.84420
 2.1002  41.53340
 2.0994  42.36110
 2.0985  43.09630
 2.0977  42.86600
 2.0968  41.62970
 2.0960  41.76740
 2.0951  41.98710
 2.0943  41.87810
 2.0934  42.91010
 2.0926  43.02070
 2.0918  41.66280
 2.0909  41.29100
 2.0901  40.45120
 2.0892  40.11550
 2.0884  41.11390
 2.0875  41.84360
 2.0867  41.49400
 2.0859  41.00970
 2.0850  41.09510
 2.0842  41.79230
 2.0833  41.87210
 2.0825  42.09560
 2.0817  42.11200
 2.0808  42.06750
 2.0800  41.82040
 2.0792  42.18680
 2.0783  40.53580
 2.0775  39.44970
 2.0767  39.85420
 2.0759  40.61110
 2.0750  41.93410
 2.0742  41.45800
 2.0734  41.27380
 2.0725  42.03970
 2.0717  42.61630
 2.0709  42.84160
 2.0701  42.74510
 2.0692  42.11440
 2.0684  41.63040
 2.0676  41.31480
 2.0667  41.62660
 2.0659  41.43030
 2.0651  41.88960
 2.0643  43.07290
 2.0635  42.93270
 2.0626  42.67810
 2.0618  42.29840
 2.0610  42.06120
 2.0602  41.15170
 2.0594  40.33810
 2.0585  41.22600
 2.0577  41.74010
 2.0569  40.58790
 2.0561  40.64550
 2.0553  41.44160
 2.0545  42.67060
 2.0537  42.16740
 2.0528  41.11650
 2.0520  40.69430
 2.0512  39.84990
 2.0504  39.02510
 2.0496  39.91430
 2.0488  41.56650
 2.0480  40.80310
 2.0472  39.83480
 2.0464  41.58320
 2.0456  42.23430
 2.0447  40.16380
 2.0439  39.89820
 2.0431  41.23960
 2.0423  42.00360
 2.0415  42.76120
 2.0407  42.64840
 2.0399  41.09980
 2.0391  41.05360
 2.0383  42.63500
 2.0375  42.26760
 2.0367  40.35570
 2.0359  40.49910
 2.0351  40.94400
 2.0343  40.83020
 2.0335  40.17460
 2.0327  40.25550
 2.0319  40.36940
 2.0311  39.87400
 2.0303  40.50820
 2.0295  40.68220
 2.0287  41.18990
 2.0280  41.34610
 2.0272  39.95750
 2.0264  39.66600
 2.0256  40.63830
 2.0248  40.47410
 2.0240  39.55120
 2.0232  41.09020
 2.0224  42.52930
 2.0216  40.87250
 2.0208  40.15500
 2.0200  41.78780
 2.0193  41.68560
 2.0185  40.11650
 2.0177  37.81990
 2.0169  37.18160
 2.0161  40.39540
 2.0153  41.87810
 2.0146  41.52580
 2.0138  41.51550
 2.0130  40.65100
 2.0122  40.22970
 2.0114  39.36960
 2.0107  38.85540
 2.0099  39.18270
 2.0091  40.64310
 2.0083  41.08490
 2.0075  39.79840
 2.0068  39.52740
 2.0060  40.64590
 2.0052  39.39750
 2.0044  38.95160
 2.0037  39.42280
 2.0029  39.45300
 2.0021  39.20420
 2.0013  39.77920
 2.0006  41.38070
 1.9998  41.91260
