Name: Microcline (Feldspar) (K,Na)AlSi_3O_8
Type: Mineral
Class: Silicates
Subclass: Tectosilicates
Particle Size: 45-125um
Sample No.: TS-17A
Owner: JPL
Wavelength range: IR
Origin: 
Collected by JPL
Description: 





Measurement: Hemispherical reflectance
First Column: X
Second Column: Y
X Units:  Wavelength (micrometers)
Y Units:  Reflectance (percent)
First X Value: 15.3853
Last X Value: 2.00032
Number of X Values: 2256
Additional information: ts17aa.txt
 
15.3853	3.97738
15.3397	4.01798
15.2945	3.79798
15.2495	3.49795
15.2048	3.01378
15.1603	2.73287
15.1161	2.54798
15.0722	2.08785
15.0285	1.78758
14.9851	2.01912
14.9419	2.21961
14.8989	2.43819
14.8563	2.38815
14.8138	2.36398
14.7716	2.32189
14.7296	2.485
14.6879	2.67177
14.6464	2.83899
14.6052	2.87381
14.5641	2.82592
14.5233	2.88536
14.4828	3.01694
14.4424	2.94301
14.4023	2.88682
14.3624	3.04104
14.3227	3.06859
14.2833	2.96489
14.244	2.85516
14.205	2.79328
14.1662	2.93575
14.1276	3.12105
14.0892	3.13563
14.051	3.2061
14.0131	3.16928
13.9753	3.06126
13.9377	3.1098
13.9004	3.38769
13.8632	3.77572
13.8262	3.90499
13.7895	3.78002
13.7529	3.56331
13.7165	3.39813
13.6803	3.25661
13.6443	3.24939
13.6085	3.15574
13.5729	2.82439
13.5374	2.48918
13.5022	2.52783
13.4671	2.77639
13.4322	2.76676
13.3975	2.67161
13.363	2.60346
13.3286	2.60663
13.2944	2.72681
13.2604	2.81957
13.2266	3.02944
13.193	3.1489
13.1595	3.37926
13.1262	3.54297
13.093	3.65836
13.06	3.80296
13.0272	3.78704
12.9946	3.64228
12.9621	3.56642
12.9298	3.47991
12.8976	3.27153
12.8656	2.9581
12.8337	2.57655
12.8021	2.2866
12.7705	2.33062
12.7391	2.26878
12.7079	2.06594
12.6769	2.15754
12.6459	2.19708
12.6152	2.19319
12.5845	2.36428
12.5541	2.4946
12.5238	2.64235
12.4936	2.8285
12.4635	3.05975
12.4337	3.26674
12.4039	3.22444
12.3743	3.0747
12.3448	3.12193
12.3155	3.41499
12.2863	3.74096
12.2573	3.91004
12.2284	4.17875
12.1996	4.38575
12.171	4.35511
12.1425	4.40191
12.1141	4.48747
12.0859	4.62344
12.0578	4.70481
12.0298	4.81306
12.0019	4.98392
11.9742	5.02953
11.9466	5.06661
11.9192	4.99787
11.8918	5.0377
11.8646	5.17862
11.8375	5.06439
11.8106	4.96533
11.7837	5.06148
11.757	5.15655
11.7304	5.0419
11.7039	5.04288
11.6776	5.12117
11.6513	5.1177
11.6252	5.10917
11.5992	5.04994
11.5733	5.061
11.5475	5.15817
11.5219	5.15498
11.4963	5.14735
11.4709	5.12365
11.4455	5.11106
11.4203	5.12236
11.3952	5.10251
11.3702	5.10816
11.3454	5.20012
11.3206	5.27616
11.2959	5.32714
11.2714	5.34439
11.2469	5.29521
11.2226	5.30414
11.1983	5.30518
11.1742	5.16505
11.1502	5.10932
11.1263	5.2502
11.1024	5.31099
11.0787	5.38304
11.0551	5.41048
11.0316	5.37546
11.0081	5.29371
10.9848	5.24165
10.9616	5.24775
10.9385	5.33922
10.9154	5.53266
10.8925	5.70739
10.8697	5.71522
10.8469	5.61684
10.8243	5.62625
10.8017	5.69703
10.7793	5.68058
10.7569	5.68141
10.7346	5.80549
10.7125	5.82498
10.6904	5.79141
10.6684	5.88592
10.6465	6.0548
10.6247	6.05657
10.6029	6.08819
10.5813	6.1754
10.5597	6.21392
10.5383	6.3671
10.5169	6.49894
10.4956	6.634
10.4744	6.85594
10.4533	7.02881
10.4323	7.14657
10.4113	7.29832
10.3904	7.57729
10.3697	7.83206
10.349	8.09757
10.3284	8.3496
10.3078	8.66636
10.2874	8.90371
10.267	9.25763
10.2467	9.73342
10.2265	10.0885
10.2064	10.4673
10.1863	10.9138
10.1663	11.3367
10.1464	11.8288
10.1266	12.5382
10.1069	13.2023
10.0872	13.6691
10.0676	14.2288
10.0481	14.9646
10.0287	15.5295
10.0093	16.124
9.99005	16.6975
9.97084	17.1867
9.95169	17.7219
9.93263	18.193
9.91364	18.5126
9.89472	18.899
9.87587	19.4142
9.8571	19.7588
9.83839	19.8089
9.81976	19.7068
9.80119	19.6886
9.78271	19.4663
9.76428	19.1697
9.74592	18.9784
9.72764	18.7844
9.70943	18.4832
9.69128	18.3326
9.6732	18.0967
9.65518	17.7797
9.63724	17.7411
9.61935	17.9539
9.60155	18.1855
9.5838	18.4557
9.56611	18.8019
9.5485	19.1029
9.53094	19.2959
9.51345	19.4962
9.49604	19.7381
9.47867	19.7975
9.46137	19.5393
9.44414	18.8533
9.42697	17.9159
9.40986	17.1051
9.39281	16.668
9.37583	16.6037
9.35891	16.7035
9.34204	16.8129
9.32524	16.9846
9.3085	17.2145
9.29182	17.4268
9.27519	17.6666
9.25863	17.8011
9.24213	17.943
9.22568	18.0302
9.2093	18.0127
9.19297	18.0029
9.17669	17.938
9.16048	17.7835
9.14433	17.3329
9.12823	16.6439
9.11218	15.8575
9.0962	15.0119
9.08027	14.3849
9.06439	13.8562
9.04858	13.1282
9.03281	12.5001
9.0171	12.2729
9.00145	12.3327
8.98585	12.4772
8.9703	12.6879
8.9548	13.0224
8.93937	13.2434
8.92398	13.5119
8.90865	13.7203
8.89337	13.8866
8.87814	14.1993
8.86296	14.4848
8.84784	14.6853
8.83277	15.1169
8.81774	15.5867
8.80277	15.8622
8.78786	16.1123
8.77298	16.351
8.75816	16.5557
8.7434	16.7575
8.72868	16.859
8.714	16.9087
8.69938	16.9969
8.68481	17.0159
8.67029	16.9602
8.65581	16.8165
8.64139	16.6508
8.62701	16.4977
8.61268	16.4533
8.5984	16.4563
8.58416	16.4569
8.56997	16.4249
8.55583	16.3248
8.54174	16.07
8.52769	15.7628
8.51368	15.5459
8.49973	15.1638
8.48582	14.8333
8.47195	14.5742
8.45813	14.2297
8.44436	13.9468
8.43062	13.7964
8.41693	13.4184
8.4033	12.9383
8.3897	12.5771
8.37614	12.1588
8.36264	11.6078
8.34917	11.044
8.33574	10.4739
8.32236	9.82887
8.30903	9.17838
8.29573	8.46624
8.28248	7.75569
8.26927	7.17429
8.2561	6.7427
8.24298	6.21829
8.2299	5.69843
8.21685	5.20927
8.20385	4.90801
8.19089	4.63958
8.17797	4.31115
8.16509	3.88519
8.15225	3.44474
8.13946	3.08793
8.1267	2.80561
8.11398	2.59027
8.10131	2.43503
8.08867	2.20029
8.07606	1.97501
8.0635	1.81309
8.05099	1.64776
8.0385	1.53416
8.02606	1.47473
8.01366	1.40092
8.00129	1.28864
7.98896	1.12268
7.97667	1.00348
7.96442	0.921197
7.9522	0.878502
7.94002	0.82003
7.92788	0.821649
7.91578	0.748628
7.90371	0.689377
7.89168	0.736646
7.87969	0.777869
7.86773	0.774303
7.85581	0.67651
7.84392	0.532627
7.83207	0.568351
7.82026	0.679859
7.80849	0.665244
7.79674	0.651268
7.78503	0.614918
7.77337	0.604011
7.76173	0.618785
7.75012	0.613118
7.73856	0.575605
7.72703	0.541552
7.71553	0.506722
7.70406	0.505084
7.69263	0.527682
7.68123	0.59969
7.66987	0.568828
7.65855	0.621264
7.64725	0.719939
7.63598	0.661248
7.62475	0.748577
7.61356	0.763608
7.60239	0.644601
7.59126	0.657724
7.58017	0.6407
7.5691	0.60432
7.55806	0.72952
7.54707	0.832305
7.5361	0.830252
7.52516	0.799636
7.51425	0.831961
7.50338	0.911733
7.49253	0.951881
7.48172	0.98028
7.47094	1.06041
7.46019	0.955802
7.44947	0.832629
7.43879	0.8391
7.42813	0.990613
7.4175	1.13435
7.4069	1.16222
7.39634	1.07455
7.3858	1.07309
7.37529	1.1578
7.36482	1.21718
7.35437	1.25341
7.34396	1.30647
7.33357	1.3541
7.32321	1.42855
7.31288	1.49812
7.30258	1.55452
7.29231	1.56921
7.28207	1.53377
7.27185	1.52546
7.26167	1.55627
7.25152	1.66737
7.24139	1.74867
7.23129	1.80205
7.22122	1.84666
7.21117	1.92157
7.20116	1.95251
7.19117	2.02262
7.18121	2.13075
7.17128	2.16492
7.16137	2.16812
7.1515	2.27438
7.14164	2.38691
7.13182	2.45209
7.12203	2.59864
7.11225	2.70826
7.10251	2.72828
7.0928	2.85284
7.08311	2.99838
7.07344	3.08957
7.06381	3.10478
7.0542	3.12194
7.04461	3.16359
7.03506	3.18732
7.02552	3.24176
7.01601	3.27638
7.00653	3.27326
6.99708	3.35203
6.98765	3.41785
6.97824	3.39863
6.96886	3.40927
6.95951	3.4509
6.95018	3.39413
6.94087	3.43219
6.9316	3.55309
6.92234	3.58228
6.91311	3.60345
6.90391	3.70212
6.89473	3.81723
6.88557	3.86805
6.87644	3.93291
6.86733	4.02562
6.85824	3.95135
6.84918	3.91822
6.84015	4.0202
6.83114	4.01178
6.82215	3.97957
6.81319	3.97851
6.80424	3.98899
6.79532	3.96761
6.78643	3.89323
6.77756	3.95148
6.76871	4.02894
6.75989	4.06848
6.75109	4.13467
6.74231	4.19843
6.73355	4.27716
6.72482	4.35304
6.71611	4.47277
6.70742	4.60648
6.69875	4.62574
6.69011	4.74615
6.68149	4.86489
6.67289	4.84571
6.66431	4.81037
6.65576	4.85541
6.64722	4.94731
6.63871	5.13192
6.63022	5.14863
6.62175	5.08456
6.61331	5.06828
6.60488	5.1175
6.59648	5.2815
6.5881	5.36346
6.57974	5.34697
6.5714	5.39744
6.56308	5.35604
6.55478	5.36557
6.54651	5.36212
6.53825	5.42176
6.53001	5.45092
6.5218	5.45883
6.51361	5.40433
6.50544	5.44524
6.49729	5.72192
6.48915	5.70275
6.48104	5.49613
6.47295	5.37263
6.46488	5.31881
6.45683	5.33951
6.4488	5.43305
6.44079	5.41582
6.4328	5.23225
6.42482	5.16758
6.41687	5.20177
6.40894	5.02574
6.40103	4.9164
6.39314	4.84878
6.38526	4.79391
6.37741	4.78726
6.36957	4.75199
6.36176	4.59737
6.35396	4.57054
6.34618	4.62393
6.33843	4.51965
6.33069	4.29579
6.32297	4.22629
6.31527	4.26662
6.30758	4.20713
6.29992	4.06355
6.29227	4.008
6.28465	4.01842
6.27704	4.02613
6.26945	4.02212
6.26188	4.076
6.25432	4.12395
6.24679	4.03604
6.23927	4.00496
6.23177	3.98643
6.22429	3.93886
6.21683	3.96203
6.20938	3.99742
6.20195	4.07253
6.19454	4.04885
6.18715	4.1178
6.17978	4.16812
6.17242	4.14092
6.16508	4.15584
6.15776	4.18539
6.15045	4.20334
6.14317	4.25409
6.1359	4.32588
6.12864	4.39534
6.12141	4.49402
6.11419	4.65753
6.10699	4.66888
6.0998	4.71976
6.09263	4.82272
6.08549	4.83389
6.07835	4.77155
6.07123	4.82366
6.06413	4.97722
6.05705	5.1895
6.04998	5.39418
6.04293	5.26886
6.0359	5.15335
6.02888	5.20742
6.02187	5.30369
6.01489	5.36132
6.00792	5.30067
6.00096	5.32868
5.99403	5.47359
5.98711	5.417
5.9802	5.35675
5.97331	5.44362
5.96644	5.5577
5.95958	5.48349
5.95274	5.38399
5.94591	5.37153
5.9391	5.46275
5.9323	5.46185
5.92552	5.33785
5.91876	5.31027
5.91201	5.30702
5.90528	5.29431
5.89856	5.37177
5.89186	5.39317
5.88517	5.41278
5.8785	5.44828
5.87184	5.41818
5.8652	5.38509
5.85857	5.31877
5.85196	5.31265
5.84536	5.31423
5.83878	5.33071
5.83221	5.35265
5.82566	5.41299
5.81912	5.40525
5.81259	5.28601
5.80608	5.08464
5.79959	5.03676
5.79311	5.1301
5.78665	5.1223
5.78019	5.04343
5.77376	5.02137
5.76734	5.02548
5.76093	4.91187
5.75453	4.82338
5.74815	4.86226
5.74179	4.90765
5.73543	4.92924
5.7291	4.91505
5.72277	4.88217
5.71646	4.84538
5.71017	4.7992
5.70389	4.69257
5.69762	4.60387
5.69136	4.65785
5.68513	4.66481
5.6789	4.5784
5.67268	4.42894
5.66648	4.3464
5.6603	4.37793
5.65413	4.36898
5.64797	4.27968
5.64182	4.2887
5.63569	4.32987
5.62957	4.38103
5.62347	4.45233
5.61737	4.52828
5.61129	4.59041
5.60522	4.70961
5.59917	4.76629
5.59313	4.75992
5.5871	4.78863
5.58109	4.84175
5.57509	4.85894
5.5691	4.79417
5.56312	4.80983
5.55716	4.83521
5.55121	4.89418
5.54528	4.99086
5.53935	5.07247
5.53344	5.31964
5.52754	5.68214
5.52166	5.93049
5.51578	6.20353
5.50992	6.43635
5.50407	6.5308
5.49823	6.65676
5.49241	6.86132
5.4866	7.03928
5.4808	7.19754
5.47501	7.21246
5.46923	7.28693
5.46347	7.33671
5.45772	7.35753
5.45198	7.46815
5.44625	7.54524
5.44054	7.58744
5.43484	7.61287
5.42914	7.74832
5.42347	7.96595
5.4178	8.02182
5.41214	7.97444
5.4065	8.0255
5.40087	8.15093
5.39525	8.20592
5.38964	8.24664
5.38404	8.3209
5.37846	8.42527
5.37288	8.47325
5.36732	8.55827
5.36177	8.67292
5.35623	8.77037
5.35071	8.83323
5.34519	8.90484
5.33968	8.91309
5.33419	9.01512
5.32871	9.22596
5.32324	9.37716
5.31778	9.46019
5.31233	9.57439
5.30689	9.69528
5.30147	9.80099
5.29605	9.99256
5.29065	10.1636
5.28525	10.1722
5.27987	10.1729
5.2745	10.2533
5.26914	10.4516
5.26379	10.5786
5.25845	10.6748
5.25312	10.8078
5.24781	10.931
5.2425	11.0188
5.23721	11.173
5.23192	11.3601
5.22665	11.5536
5.22138	11.855
5.21613	12.2135
5.21089	12.5664
5.20566	12.8795
5.20044	13.1915
5.19522	13.4736
5.19002	13.7877
5.18483	14.1185
5.17965	14.4528
5.17448	14.7347
5.16933	15.0573
5.16418	15.3679
5.15904	15.6357
5.15391	16.0195
5.14879	16.416
5.14368	16.6982
5.13859	17.0232
5.1335	17.4509
5.12842	17.8512
5.12335	18.2444
5.1183	18.6359
5.11325	18.9819
5.10821	19.3641
5.10318	19.8197
5.09817	20.2359
5.09316	20.6259
5.08816	21.0245
5.08317	21.3659
5.07819	21.5928
5.07322	21.8033
5.06826	21.9611
5.06331	21.9471
5.05837	21.9529
5.05344	22.0068
5.04852	22.0324
5.04361	22.0857
5.03871	22.2052
5.03382	22.4733
5.02894	22.7926
5.02406	23.1331
5.0192	23.3931
5.01435	23.6315
5.0095	23.8194
5.00467	23.9234
4.99984	24.0976
4.99502	24.3579
4.99021	24.5305
4.98542	24.6122
4.98063	24.6521
4.97585	24.7476
4.97108	24.888
4.96632	24.8901
4.96156	24.7801
4.95682	24.6462
4.95209	24.501
4.94736	24.3942
4.94264	24.1984
4.93794	24.0367
4.93324	23.9907
4.92855	23.9769
4.92387	23.9186
4.9192	23.8958
4.91453	23.99
4.90988	24.1382
4.90524	24.3315
4.9006	24.5399
4.89597	24.7387
4.89135	25.0896
4.88674	25.4853
4.88214	25.7434
4.87755	25.9773
4.87296	26.3263
4.86839	26.5684
4.86382	26.6296
4.85926	26.7482
4.85471	26.8752
4.85017	26.9481
4.84564	27.0165
4.84111	27.0127
4.8366	26.9649
4.83209	26.9562
4.82759	26.9328
4.8231	26.8327
4.81862	26.7161
4.81415	26.5649
4.80968	26.4457
4.80522	26.3301
4.80077	26.2645
4.79633	26.2336
4.7919	26.1202
4.78747	25.9896
4.78306	25.9485
4.77865	25.9575
4.77425	25.9418
4.76986	25.9655
4.76547	26.0828
4.7611	26.2409
4.75673	26.3733
4.75237	26.4931
4.74802	26.7227
4.74367	26.9407
4.73934	27.0834
4.73501	27.1713
4.73069	27.1473
4.72638	26.9564
4.72207	26.7864
4.71777	26.6652
4.71348	26.5797
4.7092	26.5224
4.70493	26.4331
4.70066	26.2742
4.69641	26.0881
4.69216	25.9179
4.68791	25.8799
4.68368	25.8681
4.67945	25.9178
4.67523	25.9971
4.67102	26.1316
4.66682	26.2204
4.66262	26.2809
4.65843	26.3893
4.65425	26.5845
4.65007	26.8103
4.64591	27.0235
4.64175	27.2995
4.6376	27.5844
4.63345	27.8433
4.62932	28.047
4.62519	28.2956
4.62106	28.5389
4.61695	28.8349
4.61284	29.1409
4.60874	29.4734
4.60465	29.7256
4.60056	29.9551
4.59648	30.1654
4.59241	30.384
4.58835	30.5714
4.58429	30.8054
4.58024	31.0758
4.5762	31.3954
4.57216	31.6813
4.56814	32.0237
4.56411	32.4416
4.5601	32.8609
4.55609	33.2382
4.55209	33.6836
4.5481	34.1495
4.54411	34.4759
4.54013	34.7863
4.53616	35.1079
4.5322	35.5359
4.52824	35.9169
4.52429	36.2649
4.52034	36.5981
4.51641	36.9128
4.51247	37.2171
4.50855	37.4339
4.50463	37.6829
4.50072	37.9929
4.49682	38.291
4.49292	38.5699
4.48903	38.8888
4.48515	39.2817
4.48127	39.6817
4.4774	40.0062
4.47354	40.33
4.46968	40.7033
4.46584	41.0752
4.46199	41.449
4.45815	41.8198
4.45432	42.2056
4.4505	42.5784
4.44668	42.8643
4.44287	43.2292
4.43907	43.6309
4.43527	43.8343
4.43148	44.0612
4.4277	44.2976
4.42392	44.6073
4.42015	44.8715
4.41638	45.1555
4.41262	45.484
4.40887	45.7779
4.40513	46.0037
4.40139	46.2775
4.39765	46.5853
4.39393	46.9266
4.39021	47.2627
4.38649	47.6036
4.38278	47.9101
4.37908	48.2534
4.37539	48.6049
4.3717	48.934
4.36801	49.2755
4.36434	49.6149
4.36067	49.904
4.357	50.1823
4.35335	50.446
4.34969	50.7027
4.34605	51.0166
4.34241	51.2828
4.33877	51.5542
4.33514	51.8464
4.33152	52.0635
4.32791	52.3455
4.3243	52.5924
4.32069	52.7708
4.3171	52.9167
4.31351	53.0569
4.30992	53.1417
4.30634	53.2291
4.30277	53.2604
4.2992	53.35
4.29564	53.4816
4.29208	53.5336
4.28853	53.6008
4.28499	53.644
4.28145	53.6656
4.27792	53.688
4.27439	53.5623
4.27087	53.4051
4.26735	53.472
4.26384	53.8184
4.26034	54.2799
4.25684	54.7932
4.25335	55.3102
4.24986	55.7701
4.24638	56.1936
4.24291	56.6145
4.23944	57.0634
4.23598	57.5171
4.23252	57.8901
4.22906	58.2808
4.22562	58.7096
4.22218	59.1483
4.21874	59.5467
4.21531	59.9208
4.21189	60.279
4.20847	60.6278
4.20506	60.845
4.20165	61.0052
4.19825	61.2426
4.19485	61.4603
4.19146	61.5885
4.18807	61.7167
4.18469	61.8549
4.18132	62.01
4.17795	62.0875
4.17458	62.219
4.17123	62.2914
4.16787	62.3525
4.16453	62.4239
4.16118	62.4628
4.15785	62.5878
4.15451	62.6589
4.15119	62.6612
4.14787	62.7661
4.14455	62.8992
4.14124	62.9222
4.13794	62.9302
4.13464	62.9682
4.13134	63.0175
4.12805	63.0611
4.12477	63.0859
4.12149	63.0522
4.11822	63.0161
4.11495	63.0284
4.11168	63.0126
4.10843	63.0117
4.10517	63.0504
4.10192	63.0338
4.09868	62.9915
4.09545	62.9706
4.09221	62.9812
4.08899	62.8857
4.08576	62.7461
4.08255	62.7451
4.07933	62.7196
4.07613	62.6023
4.07292	62.4738
4.06973	62.3358
4.06654	62.1784
4.06335	62.0356
4.06017	61.9021
4.05699	61.7321
4.05382	61.5091
4.05065	61.2587
4.04749	60.8895
4.04433	60.4492
4.04118	59.955
4.03803	59.4553
4.03489	58.9953
4.03175	58.5151
4.02862	58.0404
4.02549	57.5604
4.02237	57.1491
4.01925	56.8639
4.01614	56.6351
4.01303	56.3452
4.00993	55.8388
4.00683	55.2881
4.00373	54.876
4.00064	54.4653
3.99756	54.0967
3.99448	53.7983
3.9914	53.4746
3.98833	53.2468
3.98527	53.1155
3.98221	53.0663
3.97915	53.0557
3.9761	53.0423
3.97305	53.0563
3.97001	53.1296
3.96697	53.2478
3.96394	53.4364
3.96091	53.611
3.95789	53.8436
3.95487	54.0563
3.95186	54.3746
3.94885	54.7423
3.94584	55.1251
3.94284	55.5971
3.93984	55.9749
3.93685	56.2787
3.93386	56.4485
3.93088	56.4844
3.9279	56.5622
3.92493	56.6827
3.92196	56.8478
3.919	57.0255
3.91604	57.1723
3.91308	57.2836
3.91013	57.4208
3.90718	57.5675
3.90424	57.6482
3.9013	57.6496
3.89837	57.6683
3.89544	57.7536
3.89252	57.8004
3.8896	57.788
3.88668	57.8257
3.88377	57.8896
3.88086	57.9362
3.87796	58.0076
3.87506	58.1015
3.87217	58.1349
3.86928	58.1595
3.86639	58.2084
3.86351	58.3199
3.86064	58.429
3.85776	58.5809
3.8549	58.7387
3.85203	58.8287
3.84917	59.0051
3.84631	59.2302
3.84346	59.345
3.84062	59.418
3.83777	59.6317
3.83494	59.9411
3.8321	60.2447
3.82927	60.4914
3.82644	60.7427
3.82362	61.1226
3.82081	61.5227
3.81799	61.8195
3.81518	62.1084
3.81238	62.4201
3.80958	62.7038
3.80678	62.9943
3.80399	63.3051
3.8012	63.6739
3.79841	64.1188
3.79563	64.5944
3.79286	65.026
3.79008	65.368
3.78731	65.7437
3.78455	66.0907
3.78179	66.2463
3.77903	66.3684
3.77628	66.5228
3.77353	66.6764
3.77079	66.8274
3.76805	66.935
3.76531	67.0311
3.76258	67.097
3.75985	67.2031
3.75713	67.324
3.7544	67.3398
3.75169	67.3786
3.74898	67.4893
3.74627	67.5195
3.74356	67.5273
3.74086	67.5215
3.73816	67.587
3.73547	67.6748
3.73278	67.7214
3.7301	67.7598
3.72741	67.7855
3.72474	67.7679
3.72206	67.8035
3.71939	67.8344
3.71673	67.8599
3.71406	67.8396
3.71141	67.8488
3.70875	67.8845
3.7061	67.8778
3.70345	67.9465
3.70081	67.9924
3.69817	67.9586
3.69553	67.9742
3.6929	67.9624
3.69027	67.9681
3.68765	68.0072
3.68503	67.9896
3.68241	68.0655
3.6798	68.1056
3.67719	68.046
3.67458	68.0562
3.67198	68.0575
3.66938	68.0565
3.66678	68.0735
3.66419	68.0286
3.66161	67.967
3.65902	67.8924
3.65644	67.8508
3.65387	67.8586
3.65129	67.8461
3.64872	67.7902
3.64616	67.7995
3.64359	67.8251
3.64103	67.7905
3.63848	67.7521
3.63593	67.7785
3.63338	67.7675
3.63084	67.6698
3.6283	67.5903
3.62576	67.558
3.62322	67.5157
3.62069	67.5011
3.61817	67.4288
3.61564	67.324
3.61312	67.2975
3.61061	67.2734
3.6081	67.1881
3.60559	67.0952
3.60308	67.0152
3.60058	66.8957
3.59808	66.7867
3.59558	66.649
3.59309	66.5052
3.59061	66.3977
3.58812	66.2263
3.58564	66.0409
3.58316	65.7797
3.58069	65.5952
3.57822	65.4072
3.57575	65.1865
3.57328	64.9732
3.57082	64.8451
3.56836	64.7474
3.56591	64.6792
3.56346	64.591
3.56101	64.5046
3.55857	64.3376
3.55613	64.1459
3.55369	63.9384
3.55126	63.7376
3.54883	63.5027
3.5464	63.3581
3.54397	63.1332
3.54155	62.7995
3.53914	62.4626
3.53672	62.0759
3.53431	61.697
3.5319	61.2707
3.5295	60.6659
3.5271	60.0006
3.5247	59.3654
3.52231	58.6611
3.51991	58.0137
3.51753	57.3861
3.51514	56.9117
3.51276	56.4351
3.51038	55.9643
3.50801	55.5924
3.50563	55.2645
3.50327	55.007
3.5009	54.7528
3.49854	54.6182
3.49618	54.5509
3.49382	54.4629
3.49147	54.2459
3.48912	54.0755
3.48677	53.9952
3.48443	53.8335
3.48209	53.6304
3.47975	53.5618
3.47742	53.5305
3.47509	53.516
3.47276	53.6043
3.47044	53.7857
3.46812	54.0616
3.4658	54.4538
3.46348	54.7993
3.46117	54.8724
3.45886	54.8219
3.45656	54.8069
3.45425	54.7893
3.45195	54.7044
3.44966	54.6205
3.44736	54.5549
3.44507	54.4871
3.44279	54.4383
3.4405	54.3006
3.43822	54.1846
3.43594	54.082
3.43367	53.9074
3.43139	53.6976
3.42912	53.4473
3.42686	53.2531
3.42459	53.0684
3.42233	52.8779
3.42007	52.658
3.41782	52.4529
3.41557	52.2871
3.41332	52.1799
3.41108	52.1279
3.40883	52.2309
3.40659	52.3052
3.40435	52.2314
3.40212	52.2308
3.39989	52.2986
3.39766	52.2497
3.39544	52.139
3.39322	52.0668
3.391	52.0281
3.38878	51.9476
3.38657	51.8205
3.38436	51.6914
3.38215	51.5688
3.37994	51.4033
3.37774	51.2496
3.37554	51.1316
3.37335	51.0083
3.37115	50.9664
3.36896	50.9891
3.36678	50.8973
3.36459	50.7606
3.36241	50.6506
3.36023	50.4755
3.35805	50.3012
3.35588	50.1612
3.35371	49.9675
3.35154	49.8011
3.34938	49.7562
3.34721	49.8267
3.34505	50.022
3.3429	50.3216
3.34074	50.65
3.33859	50.9927
3.33644	51.3542
3.3343	51.5952
3.33215	51.6809
3.33001	51.7285
3.32788	51.6948
3.32574	51.6156
3.32361	51.6616
3.32148	51.5637
3.31936	51.4084
3.31723	51.3103
3.31511	51.2361
3.31299	51.1621
3.31088	51.0252
3.30876	50.8656
3.30665	50.7469
3.30455	50.6543
3.30244	50.4468
3.30034	50.3056
3.29824	50.2613
3.29614	50.2718
3.29405	50.2325
3.29196	50.0464
3.28987	49.8757
3.28778	49.7448
3.2857	49.5395
3.28362	49.3314
3.28154	49.1583
3.27946	49.0696
3.27739	48.8998
3.27532	48.6997
3.27325	48.5426
3.27119	48.4
3.26913	48.1419
3.26707	47.9328
3.26501	47.7579
3.26295	47.556
3.2609	47.4053
3.25885	47.297
3.2568	47.1176
3.25476	46.9427
3.25272	46.7488
3.25068	46.5227
3.24864	46.3649
3.24661	46.1967
3.24458	46.015
3.24255	45.7906
3.24052	45.6015
3.2385	45.4354
3.23648	45.2723
3.23446	45.1619
3.23244	45.042
3.23043	44.8256
3.22841	44.6151
3.2264	44.4039
3.2244	44.1826
3.22239	44.0222
3.22039	43.8343
3.21839	43.7118
3.2164	43.4803
3.2144	43.1848
3.21241	43.0346
3.21042	42.9266
3.20844	42.707
3.20645	42.4115
3.20447	42.3115
3.20249	42.1832
3.20051	41.8988
3.19854	41.7062
3.19657	41.6381
3.1946	41.427
3.19263	41.1239
3.19067	40.905
3.1887	40.7314
3.18674	40.5342
3.18479	40.2315
3.18283	39.9913
3.18088	39.8322
3.17893	39.7054
3.17698	39.4871
3.17504	39.2464
3.17309	39.0866
3.17115	38.911
3.16921	38.6697
3.16728	38.3904
3.16534	38.1517
3.16341	37.915
3.16148	37.6757
3.15956	37.4519
3.15763	37.3003
3.15571	37.0804
3.15379	36.9074
3.15187	36.7158
3.14996	36.3774
3.14805	36.1454
3.14614	36.0557
3.14423	35.9511
3.14232	35.6776
3.14042	35.3949
3.13852	35.24
3.13662	35.0774
3.13472	34.8144
3.13283	34.6369
3.13094	34.4481
3.12905	34.2823
3.12716	34.1729
3.12528	33.9595
3.12339	33.7192
3.12151	33.5958
3.11964	33.5656
3.11776	33.4175
3.11589	33.1194
3.11401	32.8339
3.11214	32.6622
3.11028	32.5707
3.10841	32.4088
3.10655	32.2247
3.10469	32.0455
3.10283	31.8598
3.10098	31.7641
3.09912	31.6716
3.09727	31.5383
3.09542	31.3958
3.09358	31.2371
3.09173	31.1249
3.08989	31.0094
3.08805	30.8755
3.08621	30.7341
3.08437	30.5975
3.08254	30.5223
3.08071	30.5444
3.07888	30.4674
3.07705	30.2576
3.07523	30.1198
3.0734	30.0637
3.07158	29.923
3.06977	29.7078
3.06795	29.6113
3.06613	29.6353
3.06432	29.5332
3.06251	29.3797
3.0607	29.2826
3.0589	29.2072
3.0571	29.1196
3.05529	29.0592
3.05349	29.0512
3.0517	28.995
3.0499	28.7815
3.04811	28.682
3.04632	28.5978
3.04453	28.4993
3.04274	28.4127
3.04096	28.2903
3.03918	28.2284
3.0374	28.1315
3.03562	27.9706
3.03384	27.8048
3.03207	27.7215
3.03029	27.7007
3.02852	27.6451
3.02676	27.5377
3.02499	27.3443
3.02323	27.2389
3.02146	27.2079
3.0197	26.9874
3.01795	26.7713
3.01619	26.6693
3.01444	26.609
3.01269	26.4618
3.01094	26.3909
3.00919	26.3926
3.00744	26.2236
3.0057	26.0553
3.00396	25.9351
3.00222	25.7736
3.00048	25.6956
2.99875	25.6333
2.99701	25.5894
2.99528	25.6503
2.99355	25.6042
2.99183	25.5304
2.9901	25.3856
2.98838	25.1294
2.98666	24.9964
2.98494	24.882
2.98322	24.7723
2.9815	24.6768
2.97979	24.5875
2.97808	24.528
2.97637	24.5395
2.97466	24.4521
2.97295	24.2751
2.97125	24.195
2.96955	24.1622
2.96785	24.1313
2.96615	23.9816
2.96446	23.8258
2.96276	23.851
2.96107	23.7561
2.95938	23.6995
2.95769	23.8147
2.95601	23.7156
2.95432	23.5439
2.95264	23.4679
2.95096	23.4702
2.94928	23.4327
2.9476	23.3176
2.94593	23.308
2.94425	23.2251
2.94258	23.1499
2.94092	23.1416
2.93925	23.115
2.93758	23.0767
2.93592	23.0689
2.93426	23.0429
2.9326	23.0909
2.93094	23.0464
2.92928	22.9706
2.92763	22.8874
2.92598	22.8962
2.92433	22.995
2.92268	23.0556
2.92103	23.0497
2.91939	23.0423
2.91775	23.0093
2.9161	22.9945
2.91447	23.0576
2.91283	23.0624
2.91119	23.0795
2.90956	23.1397
2.90793	23.2178
2.9063	23.2343
2.90467	23.2116
2.90304	23.2137
2.90142	23.2586
2.89979	23.2225
2.89817	23.213
2.89656	23.3736
2.89494	23.5153
2.89332	23.5565
2.89171	23.5557
2.8901	23.6871
2.88849	23.8344
2.88688	23.9186
2.88527	23.9604
2.88367	23.9276
2.88206	24.0442
2.88046	24.0782
2.87886	24.0844
2.87727	24.1608
2.87567	24.1453
2.87408	24.2566
2.87248	24.4843
2.87089	24.6993
2.8693	24.7117
2.86772	24.7722
2.86613	24.9293
2.86455	25.026
2.86297	25.1343
2.86139	25.2495
2.85981	25.3448
2.85823	25.3601
2.85666	25.4096
2.85508	25.5075
2.85351	25.5253
2.85194	25.6993
2.85038	25.9923
2.84881	26.154
2.84724	26.2634
2.84568	26.2678
2.84412	26.2153
2.84256	26.4093
2.841	26.5625
2.83945	26.6273
2.83789	26.7462
2.83634	26.9165
2.83479	27.0588
2.83324	27.0855
2.83169	27.1346
2.83015	27.1918
2.82861	27.2039
2.82706	27.2945
2.82552	27.3413
2.82398	27.4236
2.82245	27.5115
2.82091	27.5856
2.81938	27.7494
2.81784	27.8538
2.81631	27.807
2.81479	27.8206
2.81326	27.9089
2.81173	27.8138
2.81021	27.8009
2.80869	27.8601
2.80716	27.8681
2.80565	27.8325
2.80413	27.8625
2.80261	27.8485
2.8011	27.6173
2.79959	27.4088
2.79808	27.2796
2.79657	27.0569
2.79506	26.8601
2.79355	26.7206
2.79205	26.4573
2.79055	26.2666
2.78904	26.1224
2.78754	25.813
2.78605	25.3593
2.78455	25.2097
2.78306	25.0728
2.78156	24.6689
2.78007	24.0016
2.77858	23.572
2.77709	23.3435
2.77561	23.0819
2.77412	22.8881
2.77264	22.7472
2.77116	22.644
2.76968	22.5353
2.7682	22.4098
2.76672	22.2143
2.76524	21.8744
2.76377	21.6322
2.7623	21.5086
2.76083	21.5311
2.75936	21.6014
2.75789	21.7468
2.75642	22.1347
2.75496	22.5194
2.7535	22.5363
2.75203	22.7466
2.75057	23.0959
2.74912	23.3668
2.74766	23.686
2.7462	23.9345
2.74475	24.1877
2.7433	24.6133
2.74185	25.1097
2.7404	25.6599
2.73895	25.846
2.7375	25.7908
2.73606	26.2016
2.73462	26.7846
2.73318	27.0627
2.73174	27.5026
2.7303	28.2251
2.72886	28.8759
2.72742	29.5266
2.72599	30.4549
2.72456	31.6717
2.72313	32.7569
2.7217	34.1104
2.72027	35.5033
2.71884	36.4033
2.71742	37.6268
2.71599	38.8292
2.71457	40.1459
2.71315	41.4455
2.71173	42.8362
2.71032	43.5582
2.7089	43.5869
2.70748	43.5291
2.70607	43.5382
2.70466	43.8719
2.70325	45.1094
2.70184	47.1506
2.70043	49.5104
2.69903	51.7525
2.69762	53.8328
2.69622	55.7471
2.69482	57.5576
2.69342	58.8887
2.69202	59.5842
2.69062	60.4127
2.68923	61.4387
2.68783	62.3132
2.68644	63.0965
2.68505	63.8478
2.68366	64.3952
2.68227	64.7624
2.68089	65.3138
2.6795	66.1183
2.67812	66.669
2.67673	67.123
2.67535	67.1396
2.67397	67.1067
2.6726	67.5381
2.67122	68.8026
2.66984	69.4535
2.66847	69.3099
2.6671	70.0347
2.66572	70.4213
2.66435	70.3167
2.66299	70.0153
2.66162	70.2439
2.66025	70.4432
2.65889	70.5636
2.65753	70.5672
2.65616	70.9597
2.65481	71.185
2.65345	71.3993
2.65209	71.5415
2.65073	71.3507
2.64938	71.4568
2.64803	71.6866
2.64667	71.9233
2.64532	72.1211
2.64397	72.035
2.64263	72.1762
2.64128	72.2274
2.63994	72.1312
2.63859	72.1432
2.63725	72.2696
2.63591	72.3633
2.63457	72.6012
2.63323	72.6008
2.6319	72.8627
2.63056	73.3349
2.62923	72.974
2.62789	72.8848
2.62656	73.2193
2.62523	72.8398
2.6239	72.5185
2.62258	72.489
2.62125	73.025
2.61993	73.2982
2.6186	73.095
2.61728	73.4434
2.61596	73.2604
2.61464	72.8134
2.61332	72.8023
2.61201	72.6869
2.61069	72.8326
2.60938	73.0892
2.60807	73.2255
2.60675	73.5157
2.60544	73.9773
2.60414	73.8251
2.60283	73.5271
2.60152	73.3256
2.60022	73.2137
2.59891	73.3323
2.59761	73.7914
2.59631	74.5877
2.59501	75.4768
2.59371	74.9631
2.59242	74.1346
2.59112	73.9247
2.58983	74.125
2.58853	74.3966
2.58724	74.5254
2.58595	74.4162
2.58466	74.6879
2.58338	74.7487
2.58209	74.4472
2.5808	74.4155
2.57952	74.3309
2.57824	74.5049
2.57695	74.7073
2.57567	74.5285
2.5744	74.6361
2.57312	74.8569
2.57184	74.5835
2.57057	74.742
2.56929	74.8439
2.56802	74.5168
2.56675	74.413
2.56548	74.7203
2.56421	75.0139
2.56294	75.0013
2.56168	74.9863
2.56041	74.7944
2.55915	74.5669
2.55789	74.5111
2.55662	74.4747
2.55536	74.4362
2.5541	74.5537
2.55285	74.6722
2.55159	74.5421
2.55034	74.3958
2.54908	74.3375
2.54783	74.3204
2.54658	74.1659
2.54533	74.0389
2.54408	74.0559
2.54283	74.1251
2.54159	74.0449
2.54034	73.9671
2.5391	73.9234
2.53785	73.9191
2.53661	74.007
2.53537	73.9529
2.53413	73.9505
2.53289	73.9846
2.53166	73.9232
2.53042	73.9088
2.52919	73.8868
2.52795	73.8709
2.52672	73.9149
2.52549	74.0063
2.52426	74.0443
2.52303	74.0801
2.52181	74.078
2.52058	74.0705
2.51936	74.0299
2.51813	74.0043
2.51691	73.989
2.51569	73.9257
2.51447	73.9124
2.51325	73.9065
2.51203	73.9011
2.51082	73.9604
2.5096	73.8759
2.50839	73.8369
2.50717	73.8155
2.50596	73.8318
2.50475	73.7392
2.50354	73.5864
2.50233	73.6208
2.50113	73.7108
2.49992	73.6845
2.49872	73.6015
2.49751	73.6116
2.49631	73.6371
2.49511	73.5884
2.49391	73.541
2.49271	73.5386
2.49151	73.4672
2.49031	73.4386
2.48912	73.5627
2.48792	73.718
2.48673	73.7326
2.48554	73.6386
2.48435	73.6038
2.48316	73.558
2.48197	73.5799
2.48078	73.6303
2.4796	73.6352
2.47841	73.6742
2.47723	73.5978
2.47604	73.6524
2.47486	73.7731
2.47368	73.7198
2.4725	73.6116
2.47132	73.6477
2.47014	73.7365
2.46897	73.7133
2.46779	73.6543
2.46662	73.6886
2.46545	73.6988
2.46427	73.6326
2.4631	73.5805
2.46193	73.6497
2.46077	73.6652
2.4596	73.6408
2.45843	73.6515
2.45727	73.5149
2.4561	73.4068
2.45494	73.4437
2.45378	73.4564
2.45262	73.3839
2.45146	73.3021
2.4503	73.3004
2.44914	73.3763
2.44799	73.4157
2.44683	73.4058
2.44568	73.3413
2.44452	73.31
2.44337	73.2217
2.44222	73.2116
2.44107	73.3258
2.43992	73.3337
2.43877	73.2784
2.43763	73.3604
2.43648	73.387
2.43534	73.3583
2.43419	73.4291
2.43305	73.5068
2.43191	73.56
2.43077	73.6939
2.42963	73.8362
2.42849	73.9524
2.42736	74.0754
2.42622	74.0832
2.42509	74.2058
2.42395	74.3632
2.42282	74.4572
2.42169	74.4623
2.42056	74.47
2.41943	74.6122
2.4183	74.8383
2.41717	74.9829
2.41605	75.1328
2.41492	75.2807
2.4138	75.4428
2.41267	75.6305
2.41155	75.6967
2.41043	75.6532
2.40931	75.7488
2.40819	75.9029
2.40707	75.9455
2.40595	76.0838
2.40484	76.3233
2.40372	76.4107
2.40261	76.372
2.4015	76.4201
2.40039	76.592
2.39928	76.7203
2.39817	76.8146
2.39706	76.8202
2.39595	76.834
2.39484	76.7708
2.39374	76.7866
2.39263	76.8336
2.39153	76.7662
2.39043	76.7722
2.38932	76.8109
2.38822	76.8132
2.38712	76.8088
2.38603	76.7806
2.38493	76.7765
2.38383	76.8374
2.38274	76.8562
2.38164	76.9135
2.38055	77.0047
2.37946	76.9833
2.37836	76.9904
2.37727	77.0544
2.37618	77.021
2.3751	77.0003
2.37401	77.014
2.37292	77.0893
2.37184	77.1244
2.37075	76.9336
2.36967	76.8228
2.36859	76.8471
2.3675	76.9148
2.36642	76.8843
2.36534	76.9602
2.36427	77.0013
2.36319	76.7835
2.36211	76.6323
2.36104	76.6804
2.35996	76.598
2.35889	76.3751
2.35781	76.2155
2.35674	76.1843
2.35567	76.2237
2.3546	76.108
2.35353	75.7731
2.35247	75.7075
2.3514	75.7176
2.35033	75.694
2.34927	75.7039
2.3482	75.7108
2.34714	75.7064
2.34608	75.7356
2.34502	75.7228
2.34396	75.6788
2.3429	75.631
2.34184	75.6483
2.34078	75.8316
2.33973	75.9577
2.33867	76.0814
2.33762	76.1474
2.33656	76.1992
2.33551	76.3168
2.33446	76.4507
2.33341	76.6176
2.33236	76.8212
2.33131	76.9681
2.33026	77.0572
2.32922	77.0624
2.32817	77.0534
2.32712	77.2221
2.32608	77.407
2.32504	77.4372
2.324	77.6075
2.32295	77.9053
2.32191	78.1279
2.32087	78.22
2.31984	78.3034
2.3188	78.4681
2.31776	78.5176
2.31673	78.5922
2.31569	78.8269
2.31466	78.9814
2.31362	78.998
2.31259	79.1895
2.31156	79.4076
2.31053	79.5888
2.3095	79.5547
2.30847	79.5892
2.30745	79.681
2.30642	79.895
2.3054	80.0383
2.30437	80.0819
2.30335	80.1754
2.30232	80.3453
2.3013	80.2932
2.30028	80.2754
2.29926	80.4133
2.29824	80.5278
2.29722	80.6081
2.29621	80.6442
2.29519	80.7626
2.29417	80.9116
2.29316	80.9056
2.29215	81.0412
2.29113	81.2041
2.29012	81.1966
2.28911	81.0997
2.2881	81.026
2.28709	81.1564
2.28608	81.3611
2.28507	81.4344
2.28407	81.3118
2.28306	81.2791
2.28206	81.4083
2.28105	81.5713
2.28005	81.5565
2.27905	81.5094
2.27805	81.4842
2.27705	81.5429
2.27605	81.5243
2.27505	81.4571
2.27405	81.5453
2.27305	81.6168
2.27206	81.5469
2.27106	81.5538
2.27007	81.7405
2.26907	81.6609
2.26808	81.5377
2.26709	81.5833
2.2661	81.6477
2.26511	81.606
2.26412	81.5595
2.26313	81.4671
2.26214	81.4326
2.26116	81.5173
2.26017	81.5815
2.25919	81.381
2.2582	81.2737
2.25722	81.1875
2.25624	81.0899
2.25526	81.0189
2.25428	81.0698
2.2533	81.1556
2.25232	81.1287
2.25134	81.2549
2.25036	81.3144
2.24939	81.2041
2.24841	81.1901
2.24744	81.1165
2.24646	81.0764
2.24549	81.0231
2.24452	80.9548
2.24355	80.9755
2.24257	81.0359
2.24161	81.0157
2.24064	80.9824
2.23967	80.8032
2.2387	80.6886
2.23774	80.8328
2.23677	80.8689
2.23581	80.7542
2.23484	80.6506
2.23388	80.6856
2.23292	80.6529
2.23196	80.5235
2.231	80.4173
2.23004	80.3435
2.22908	80.172
2.22812	80.0587
2.22716	80.0884
2.22621	80.0752
2.22525	79.8812
2.2243	79.6357
2.22334	79.5917
2.22239	79.5102
2.22144	79.3876
2.22049	79.3111
2.21953	79.1567
2.21859	78.9349
2.21764	78.5973
2.21669	78.2632
2.21574	77.9048
2.21479	77.6696
2.21385	77.444
2.2129	77.0812
2.21196	76.751
2.21102	76.3554
2.21007	75.9488
2.20913	75.5969
2.20819	75.4157
2.20725	75.2649
2.20631	75.0905
2.20537	74.8996
2.20444	74.7563
2.2035	74.5544
2.20256	74.3254
2.20163	74.2753
2.20069	74.1976
2.19976	74.1179
2.19883	74.024
2.19789	74.0248
2.19696	74.0472
2.19603	74.0565
2.1951	74.0786
2.19417	74.0665
2.19325	74.0148
2.19232	74.1484
2.19139	74.6984
2.19047	75.1303
2.18954	75.2765
2.18862	75.6538
2.18769	76.0256
2.18677	76.2927
2.18585	76.6153
2.18493	76.9411
2.18401	77.2778
2.18309	77.6611
2.18217	77.8522
2.18125	78.0797
2.18033	78.402
2.17942	78.7517
2.1785	78.9985
2.17759	79.1964
2.17667	79.5143
2.17576	79.8276
2.17485	79.9671
2.17393	80.0621
2.17302	80.2842
2.17211	80.4699
2.1712	80.7046
2.17029	80.9441
2.16939	81.0662
2.16848	81.1364
2.16757	81.0784
2.16667	81.2794
2.16576	81.722
2.16486	81.815
2.16395	81.7423
2.16305	81.763
2.16215	81.8967
2.16125	82.0026
2.16035	82.1212
2.15945	82.2799
2.15855	82.416
2.15765	82.4705
2.15675	82.486
2.15586	82.6428
2.15496	82.661
2.15406	82.5219
2.15317	82.6404
2.15228	82.7865
2.15138	82.7609
2.15049	82.8103
2.1496	82.9812
2.14871	83.0551
2.14782	83.1099
2.14693	83.1622
2.14604	83.2841
2.14515	83.3008
2.14427	83.0306
2.14338	83.1262
2.14249	83.3876
2.14161	83.4044
2.14072	83.4539
2.13984	83.3941
2.13896	83.377
2.13808	83.3546
2.13719	83.4436
2.13631	83.5799
2.13543	83.5221
2.13455	83.489
2.13368	83.3612
2.1328	83.2803
2.13192	83.3949
2.13105	83.4981
2.13017	83.6593
2.1293	83.7276
2.12842	83.6812
2.12755	83.5452
2.12668	83.4543
2.1258	83.3924
2.12493	83.5662
2.12406	83.7019
2.12319	83.4582
2.12232	83.1734
2.12145	83.3397
2.12059	83.5054
2.11972	83.525
2.11885	83.5003
2.11799	83.4832
2.11712	83.4043
2.11626	83.4331
2.1154	83.6626
2.11453	83.6423
2.11367	83.3828
2.11281	83.4724
2.11195	83.7125
2.11109	83.6779
2.11023	83.5066
2.10937	83.4301
2.10851	83.5222
2.10766	83.5721
2.1068	83.7001
2.10594	83.863
2.10509	83.8366
2.10423	83.7784
2.10338	83.6799
2.10253	83.5701
2.10168	83.5492
2.10082	83.7159
2.09997	83.9036
2.09912	84.1033
2.09827	84.0338
2.09742	83.8397
2.09658	83.7952
2.09573	84.177
2.09488	84.3685
2.09404	84.2418
2.09319	84.1143
2.09235	84.0221
2.0915	84.0669
2.09066	84.0031
2.08982	84.0164
2.08897	84.1354
2.08813	84.0329
2.08729	84.2301
2.08645	84.3463
2.08561	84.3506
2.08477	84.383
2.08394	84.3601
2.0831	84.425
2.08226	84.2699
2.08143	83.932
2.08059	84.0333
2.07976	84.3322
2.07892	84.2351
2.07809	84.4031
2.07726	84.2964
2.07643	84.0039
2.07559	84.1305
2.07476	84.1574
2.07393	84.0848
2.0731	84.0981
2.07228	84.0346
2.07145	84.0323
2.07062	84.3049
2.06979	84.2149
2.06897	84.0227
2.06814	83.9854
2.06732	84.2464
2.06649	84.1271
2.06567	83.8036
2.06485	83.7464
2.06403	84.3075
2.0632	84.4778
2.06238	84.3724
2.06156	84.3476
2.06074	84.3662
2.05993	84.4571
2.05911	84.4858
2.05829	84.2874
2.05747	84.2125
2.05666	84.1293
2.05584	84.1034
2.05503	84.3195
2.05421	84.4023
2.0534	84.3698
2.05259	84.3029
2.05177	84.2674
2.05096	84.1389
2.05015	84.1482
2.04934	84.2891
2.04853	84.3008
2.04772	84.0634
2.04691	83.953
2.04611	84.0477
2.0453	84.0738
2.04449	83.9581
2.04369	83.8545
2.04288	83.7967
2.04208	83.9046
2.04127	84.0617
2.04047	84.1222
2.03967	83.9872
2.03886	83.8515
2.03806	83.9038
2.03726	83.995
2.03646	83.998
2.03566	83.9797
2.03486	84.0945
2.03407	84.0733
2.03327	83.9349
2.03247	83.8336
2.03167	83.7762
2.03088	83.8896
2.03008	83.8792
2.02929	83.7489
2.0285	83.6398
2.0277	83.6407
2.02691	83.6172
2.02612	83.8038
2.02533	83.8455
2.02453	83.6797
2.02374	83.5764
2.02295	83.5538
2.02217	83.6403
2.02138	83.5781
2.02059	83.4042
2.0198	83.3326
2.01902	83.4698
2.01823	83.4297
2.01744	83.4144
2.01666	83.5163
2.01588	83.3941
2.01509	83.371
2.01431	83.5049
2.01353	83.5546
2.01275	83.3979
2.01196	83.21
2.01118	83.2309
2.0104	83.23
2.00963	83.1337
2.00885	82.9791
2.00807	82.9897
2.00729	83.1297
2.00651	83.181
2.00574	83.1075
2.00496	82.9841
2.00419	82.9139
2.00341	82.9572
2.00264	82.8561
2.00187	82.8665
2.00109	82.9721
2.00032	82.9167
