Name: Chalcopyrite CuFeS_2
Type: Mineral
Class: Sulfides
Subclass: 
Particle Size: 125-500um
Sample No.: S-4A
Owner: JPL
Wavelength range: IR
Origin: Canada, Quebec, Rouyn District
Collected by JPL
Description: 





Measurement: Hemispherical reflectance
First Column: X
Second Column: Y
X Units:  Wavelength (micrometers)
Y Units:  Reflectance (percent)
First X Value: 15.3853
Last X Value: 2.00032
Number of X Values: 2256
Additional information: s04aa.txt
 
15.3853	11.1878
15.3397	11.4162
15.2945	11.5088
15.2495	11.5435
15.2048	11.5948
15.1603	11.8695
15.1161	12.0479
15.0722	12.1832
15.0285	12.3644
14.9851	12.5707
14.9419	12.6046
14.8989	12.5129
14.8563	12.5725
14.8138	12.6395
14.7716	12.6371
14.7296	12.8091
14.6879	12.7928
14.6464	12.9118
14.6052	13.0467
14.5641	13.009
14.5233	12.9951
14.4828	13.1864
14.4424	13.4025
14.4023	13.3204
14.3624	13.1693
14.3227	13.2288
14.2833	13.3747
14.244	13.5254
14.205	13.4352
14.1662	13.4109
14.1276	13.4522
14.0892	13.5773
14.051	13.5367
14.0131	13.415
13.9753	13.4916
13.9377	13.5967
13.9004	13.6131
13.8632	13.677
13.8262	13.7366
13.7895	13.8647
13.7529	13.9251
13.7165	14.0523
13.6803	14.0174
13.6443	13.8234
13.6085	13.7582
13.5729	13.8202
13.5374	13.889
13.5022	14.0501
13.4671	14.1294
13.4322	14.2282
13.3975	14.3146
13.363	14.2801
13.3286	14.3235
13.2944	14.5095
13.2604	14.4905
13.2266	14.4387
13.193	14.6889
13.1595	14.8628
13.1262	14.7862
13.093	14.801
13.06	15.0004
13.0272	15.271
12.9946	15.4601
12.9621	15.5893
12.9298	15.5907
12.8976	15.7641
12.8656	15.9612
12.8337	16.1868
12.8021	16.5025
12.7705	16.661
12.7391	16.678
12.7079	16.7726
12.6769	16.7957
12.6459	16.7022
12.6152	16.8284
12.5845	17.0086
12.5541	17.1263
12.5238	17.3081
12.4936	17.4934
12.4635	17.4726
12.4337	17.4362
12.4039	17.4327
12.3743	17.25
12.3448	16.9181
12.3155	16.7664
12.2863	16.8158
12.2573	16.9682
12.2284	17.0059
12.1996	17.0989
12.171	17.1016
12.1425	17.1477
12.1141	17.2072
12.0859	17.4233
12.0578	17.5621
12.0298	17.6396
12.0019	17.8598
11.9742	18.1127
11.9466	18.2465
11.9192	18.3218
11.8918	18.4915
11.8646	18.6575
11.8375	18.7695
11.8106	18.8663
11.7837	18.9946
11.757	19.1807
11.7304	19.3288
11.7039	19.4441
11.6776	19.5731
11.6513	19.5409
11.6252	19.6587
11.5992	19.9523
11.5733	20.169
11.5475	20.3133
11.5219	20.4574
11.4963	20.478
11.4709	20.4743
11.4455	20.574
11.4203	20.7743
11.3952	20.7708
11.3702	20.7436
11.3454	20.8037
11.3206	20.8089
11.2959	20.7353
11.2714	20.7347
11.2469	20.6704
11.2226	20.6385
11.1983	20.7235
11.1742	21.0291
11.1502	21.4644
11.1263	21.5809
11.1024	21.5601
11.0787	21.7524
11.0551	21.9286
11.0316	22.0017
11.0081	22.0559
10.9848	21.9777
10.9616	22.0459
10.9385	22.1883
10.9154	22.2452
10.8925	22.2691
10.8697	22.2753
10.8469	22.2973
10.8243	22.2679
10.8017	22.2349
10.7793	22.2347
10.7569	22.2611
10.7346	22.2823
10.7125	22.3033
10.6904	22.3212
10.6684	22.2791
10.6465	22.2271
10.6247	22.19
10.6029	22.0911
10.5813	22.0317
10.5597	21.9076
10.5383	21.808
10.5169	21.7802
10.4956	21.7973
10.4744	21.8285
10.4533	21.8502
10.4323	21.8753
10.4113	21.9334
10.3904	22.0045
10.3697	22.109
10.349	22.1363
10.3284	22.2067
10.3078	22.254
10.2874	22.2718
10.267	22.4773
10.2467	22.8124
10.2265	22.9971
10.2064	22.9606
10.1863	22.9992
10.1663	23.1051
10.1464	23.226
10.1266	23.3354
10.1069	23.3846
10.0872	23.4931
10.0676	23.5193
10.0481	23.5421
10.0287	23.5746
10.0093	23.6838
9.99005	23.6977
9.97084	23.6066
9.95169	23.6423
9.93263	23.5594
9.91364	23.487
9.89472	23.4081
9.87587	23.218
9.8571	23.1372
9.83839	23.1822
9.81976	23.2795
9.80119	23.2142
9.78271	23.0788
9.76428	23.1256
9.74592	23.2886
9.72764	23.2814
9.70943	23.2625
9.69128	23.2424
9.6732	23.2477
9.65518	23.3284
9.63724	23.5047
9.61935	23.6481
9.60155	23.6102
9.5838	23.627
9.56611	23.7292
9.5485	23.8482
9.53094	23.8982
9.51345	24.0317
9.49604	24.244
9.47867	24.4579
9.46137	24.7072
9.44414	25.0871
9.42697	25.4348
9.40986	25.8115
9.39281	26.1937
9.37583	26.6492
9.35891	27.1746
9.34204	27.6697
9.32524	28.0562
9.3085	28.2216
9.29182	28.311
9.27519	28.5297
9.25863	28.7688
9.24213	28.8115
9.22568	28.6881
9.2093	28.6487
9.19297	28.7808
9.17669	28.8163
9.16048	28.675
9.14433	28.7128
9.12823	28.6789
9.11218	28.6712
9.0962	28.7467
9.08027	28.8633
9.06439	28.9606
9.04858	28.8828
9.03281	28.8504
9.0171	28.8393
9.00145	28.74
8.98585	28.661
8.9703	28.658
8.9548	28.7411
8.93937	28.8685
8.92398	28.865
8.90865	28.803
8.89337	28.7651
8.87814	28.7249
8.86296	28.6563
8.84784	28.5888
8.83277	28.5375
8.81774	28.5067
8.80277	28.5433
8.78786	28.392
8.77298	28.282
8.75816	28.2413
8.7434	28.239
8.72868	28.2793
8.714	28.2
8.69938	28.1294
8.68481	28.0803
8.67029	27.9309
8.65581	27.5825
8.64139	27.2239
8.62701	27.0562
8.61268	27.1826
8.5984	27.693
8.58416	28.27
8.56997	28.6053
8.55583	28.8928
8.54174	29.2082
8.52769	29.4478
8.51368	29.5329
8.49973	29.6581
8.48582	29.8393
8.47195	29.9644
8.45813	30.1885
8.44436	30.4224
8.43062	30.4885
8.41693	30.6599
8.4033	30.933
8.3897	31.1227
8.37614	31.2328
8.36264	31.4241
8.34917	31.6769
8.33574	31.9161
8.32236	32.1269
8.30903	32.2817
8.29573	32.4489
8.28248	32.6175
8.26927	32.7972
8.2561	33.0448
8.24298	33.3095
8.2299	33.4867
8.21685	33.5019
8.20385	33.5349
8.19089	33.6288
8.17797	33.6489
8.16509	33.6801
8.15225	33.6854
8.13946	33.6088
8.1267	33.5384
8.11398	33.3143
8.10131	33.1575
8.08867	33.1561
8.07606	33.0573
8.0635	32.9587
8.05099	32.836
8.0385	32.719
8.02606	32.5398
8.01366	32.393
8.00129	32.1668
7.98896	31.557
7.97667	31.1235
7.96442	31.5803
7.9522	32.119
7.94002	32.2228
7.92788	32.1311
7.91578	31.9887
7.90371	31.8584
7.89168	31.8206
7.87969	31.733
7.86773	31.6121
7.85581	31.5236
7.84392	31.4518
7.83207	31.406
7.82026	31.3689
7.80849	31.3028
7.79674	31.2416
7.78503	31.1679
7.77337	31.0947
7.76173	31.0461
7.75012	31.042
7.73856	31.0237
7.72703	30.9796
7.71553	30.9066
7.70406	30.8739
7.69263	30.8605
7.68123	30.819
7.66987	30.7699
7.65855	30.7725
7.64725	30.7488
7.63598	30.7338
7.62475	30.6692
7.61356	30.6296
7.60239	30.6938
7.59126	30.7985
7.58017	30.8918
7.5691	30.89
7.55806	30.8429
7.54707	30.8432
7.5361	30.747
7.52516	30.7066
7.51425	30.7338
7.50338	30.7244
7.49253	30.7246
7.48172	30.7504
7.47094	30.7733
7.46019	30.8658
7.44947	30.857
7.43879	30.7881
7.42813	30.8058
7.4175	30.8659
7.4069	30.9102
7.39634	30.946
7.3858	30.9468
7.37529	30.8859
7.36482	30.8875
7.35437	30.9459
7.34396	31.0612
7.33357	31.036
7.32321	30.8831
7.31288	30.8242
7.30258	30.7359
7.29231	30.8185
7.28207	31.0015
7.27185	31.0124
7.26167	30.9378
7.25152	31.0003
7.24139	31.0481
7.23129	31.2228
7.22122	31.4056
7.21117	31.6422
7.20116	31.6665
7.19117	31.4666
7.18121	31.5404
7.17128	31.8565
7.16137	31.7826
7.1515	31.7489
7.14164	31.7635
7.13182	31.6976
7.12203	31.8156
7.11225	31.8051
7.10251	31.6522
7.0928	31.6204
7.08311	31.6014
7.07344	31.5106
7.06381	31.5904
7.0542	32.143
7.04461	32.567
7.03506	32.0629
7.02552	31.7723
7.01601	31.6844
7.00653	31.6187
6.99708	31.7304
6.98765	31.6865
6.97824	31.667
6.96886	32.0448
6.95951	32.4085
6.95018	31.813
6.94087	31.5316
6.9316	31.5098
6.92234	31.4721
6.91311	31.5883
6.90391	31.6823
6.89473	31.4435
6.88557	31.3224
6.87644	31.559
6.86733	32.5881
6.85824	32.4969
6.84918	31.4438
6.84015	31.0754
6.83114	31.3843
6.82215	31.3581
6.81319	30.9907
6.80424	31.1595
6.79532	31.9288
6.78643	32.2267
6.77756	31.8441
6.76871	31.5167
6.75989	31.2305
6.75109	31.2018
6.74231	31.1545
6.73355	31.2627
6.72482	31.512
6.71611	31.7435
6.70742	31.6895
6.69875	31.218
6.69011	31.4214
6.68149	31.9235
6.67289	31.7203
6.66431	31.4056
6.65576	31.3904
6.64722	32.1985
6.63871	33.3567
6.63022	32.7902
6.62175	31.7661
6.61331	31.472
6.60488	31.3353
6.59648	31.5722
6.5881	31.6624
6.57974	32.0259
6.5714	32.4466
6.56308	31.7577
6.55478	31.4403
6.54651	31.1809
6.53825	30.8978
6.53001	31.014
6.5218	31.4842
6.51361	31.266
6.50544	31.5215
6.49729	32.8449
6.48915	33.0226
6.48104	32.1727
6.47295	31.6749
6.46488	31.2308
6.45683	31.102
6.4488	31.1401
6.44079	31.2049
6.4328	31.4675
6.42482	31.9059
6.41687	33.1844
6.40894	32.5751
6.40103	30.8566
6.39314	30.3568
6.38526	30.1634
6.37741	30.1853
6.36957	30.2581
6.36176	29.6486
6.35396	29.5186
6.34618	30.0991
6.33843	29.5819
6.33069	28.732
6.32297	28.3962
6.31527	28.151
6.30758	28.0141
6.29992	27.829
6.29227	27.6197
6.28465	27.384
6.27704	27.1404
6.26945	26.9169
6.26188	26.7402
6.25432	26.4433
6.24679	26.251
6.23927	26.03
6.23177	25.8059
6.22429	25.6509
6.21683	25.4593
6.20938	25.117
6.20195	24.8046
6.19454	24.8275
6.18715	25.2691
6.17978	24.8638
6.17242	24.1719
6.16508	24.1917
6.15776	24.1739
6.15045	23.8926
6.14317	23.8159
6.1359	23.5407
6.12864	23.3222
6.12141	23.7819
6.11419	24.4006
6.10699	23.9418
6.0998	23.4156
6.09263	23.2852
6.08549	23.3646
6.07835	23.923
6.07123	24.2566
6.06413	23.8784
6.05705	24.3345
6.04998	25.6909
6.04293	24.9636
6.0359	23.9598
6.02888	23.8455
6.02187	24.0836
6.01489	24.4843
6.00792	24.4782
6.00096	24.4147
5.99403	24.8943
5.98711	25.2886
5.9802	25.2892
5.97331	25.6437
5.96644	25.8916
5.95958	25.5604
5.95274	25.6375
5.94591	26.0655
5.9391	27.187
5.9323	27.1298
5.92552	26.503
5.91876	26.6418
5.91201	26.8416
5.90528	27.2993
5.89856	28.3432
5.89186	28.5537
5.88517	29.2475
5.8785	29.6655
5.87184	28.8101
5.8652	29.0577
5.85857	29.2692
5.85196	29.3242
5.84536	29.4868
5.83878	29.9277
5.83221	30.6188
5.82566	31.5124
5.81912	31.7796
5.81259	31.2685
5.80608	31.2326
5.79959	31.5106
5.79311	31.667
5.78665	31.977
5.78019	32.3865
5.77376	33.0849
5.76734	34.2482
5.76093	33.8977
5.75453	33.4891
5.74815	33.9779
5.74179	33.945
5.73543	33.995
5.7291	34.1456
5.72277	34.4332
5.71646	34.7579
5.71017	35.0386
5.70389	34.6968
5.69762	34.6
5.69136	34.7795
5.68513	34.6677
5.6789	34.851
5.67268	34.8806
5.66648	34.5759
5.6603	34.6487
5.65413	34.7302
5.64797	34.8642
5.64182	35.1032
5.63569	34.5882
5.62957	34.182
5.62347	34.1483
5.61737	34.251
5.61129	34.1968
5.60522	34.3191
5.59917	34.403
5.59313	34.2976
5.5871	34.5201
5.58109	35.0924
5.57509	35.0819
5.5691	34.6636
5.56312	34.691
5.55716	34.9623
5.55121	35.0291
5.54528	34.8785
5.53935	34.8946
5.53344	34.967
5.52754	35.1416
5.52166	35.2719
5.51578	35.3062
5.50992	35.2772
5.50407	35.435
5.49823	35.5789
5.49241	35.665
5.4866	35.8159
5.4808	36.1101
5.47501	36.15
5.46923	36.3495
5.46347	36.5601
5.45772	36.3574
5.45198	36.2478
5.44625	36.2602
5.44054	36.2294
5.43484	36.0897
5.42914	36.1517
5.42347	36.5712
5.4178	36.3753
5.41214	35.9443
5.4065	35.73
5.40087	35.5661
5.39525	35.5187
5.38964	35.4036
5.38404	35.3651
5.37846	35.3296
5.37288	35.3378
5.36732	35.3741
5.36177	35.3448
5.35623	35.524
5.35071	35.8011
5.34519	35.636
5.33968	35.4264
5.33419	35.445
5.32871	35.4904
5.32324	35.4881
5.31778	35.4853
5.31233	35.5224
5.30689	35.6041
5.30147	35.6647
5.29605	35.7837
5.29065	35.8784
5.28525	35.755
5.27987	35.8045
5.2745	35.9055
5.26914	35.9383
5.26379	35.971
5.25845	36.0835
5.25312	36.104
5.24781	36.1988
5.2425	36.372
5.23721	36.5622
5.23192	36.6561
5.22665	36.7057
5.22138	36.8273
5.21613	37.1827
5.21089	37.288
5.20566	37.2385
5.20044	37.3252
5.19522	37.1947
5.19002	37.1094
5.18483	37.1393
5.17965	37.1595
5.17448	37.1417
5.16933	37.1306
5.16418	37.149
5.15904	37.1807
5.15391	37.1917
5.14879	37.2143
5.14368	37.1235
5.13859	37.0677
5.1335	37.0567
5.12842	36.9685
5.12335	36.9728
5.1183	36.9965
5.11325	36.956
5.10821	36.9277
5.10318	36.9134
5.09817	36.8737
5.09316	36.8427
5.08816	36.8023
5.08317	36.7574
5.07819	36.6317
5.07322	36.543
5.06826	36.4772
5.06331	36.4661
5.05837	36.4517
5.05344	36.4551
5.04852	36.4879
5.04361	36.4699
5.03871	36.4267
5.03382	36.3979
5.02894	36.3846
5.02406	36.4138
5.0192	36.4238
5.01435	36.3567
5.0095	36.3153
5.00467	36.351
4.99984	36.4225
4.99502	36.3837
4.99021	36.3892
4.98542	36.4038
4.98063	36.4389
4.97585	36.5046
4.97108	36.5008
4.96632	36.6005
4.96156	36.7636
4.95682	36.8236
4.95209	36.8576
4.94736	37.0206
4.94264	37.1059
4.93794	37.1046
4.93324	37.1198
4.92855	37.1798
4.92387	37.1832
4.9192	37.3086
4.91453	37.5598
4.90988	37.8314
4.90524	38.1111
4.9006	38.4065
4.89597	38.7032
4.89135	38.9574
4.88674	39.2542
4.88214	39.6457
4.87755	39.9785
4.87296	40.21
4.86839	40.4275
4.86382	40.6738
4.85926	40.8851
4.85471	41.0851
4.85017	41.2797
4.84564	41.4129
4.84111	41.4892
4.8366	41.6102
4.83209	41.6983
4.82759	41.7277
4.8231	41.8521
4.81862	42.017
4.81415	42.1184
4.80968	42.2403
4.80522	42.2826
4.80077	42.2908
4.79633	42.3557
4.7919	42.4737
4.78747	42.4995
4.78306	42.4791
4.77865	42.5081
4.77425	42.6004
4.76986	42.7512
4.76547	42.8082
4.7611	42.8212
4.75673	42.8241
4.75237	42.8157
4.74802	42.8109
4.74367	42.827
4.73934	42.8482
4.73501	42.906
4.73069	42.9861
4.72638	42.9553
4.72207	42.8901
4.71777	42.8377
4.71348	42.7477
4.7092	42.6196
4.70493	42.5935
4.70066	42.4892
4.69641	42.3795
4.69216	42.2629
4.68791	42.2042
4.68368	42.1862
4.67945	42.2096
4.67523	42.2329
4.67102	42.2855
4.66682	42.4202
4.66262	42.6283
4.65843	42.814
4.65425	42.9606
4.65007	43.0975
4.64591	43.1933
4.64175	43.2966
4.6376	43.4461
4.63345	43.5667
4.62932	43.6636
4.62519	43.7329
4.62106	43.7983
4.61695	43.8794
4.61284	43.9448
4.60874	44.0342
4.60465	44.1059
4.60056	44.1991
4.59648	44.2477
4.59241	44.2249
4.58835	44.2502
4.58429	44.2561
4.58024	44.2153
4.5762	44.215
4.57216	44.3246
4.56814	44.3883
4.56411	44.3574
4.5601	44.3183
4.55609	44.3021
4.55209	44.246
4.5481	44.1496
4.54411	44.0833
4.54013	44.0001
4.53616	43.85
4.5322	43.6743
4.52824	43.5742
4.52429	43.4875
4.52034	43.3146
4.51641	43.0886
4.51247	42.9384
4.50855	42.7724
4.50463	42.5933
4.50072	42.4186
4.49682	42.2898
4.49292	42.2016
4.48903	42.1826
4.48515	42.1773
4.48127	42.1623
4.4774	42.1693
4.47354	42.1258
4.46968	42.0867
4.46584	42.1349
4.46199	42.1571
4.45815	42.1941
4.45432	42.3525
4.4505	42.484
4.44668	42.6003
4.44287	42.6756
4.43907	42.7118
4.43527	42.7685
4.43148	42.8762
4.4277	42.9572
4.42392	43.057
4.42015	43.13
4.41638	43.2007
4.41262	43.2884
4.40887	43.4203
4.40513	43.5216
4.40139	43.5849
4.39765	43.6467
4.39393	43.717
4.39021	43.7932
4.38649	43.9514
4.38278	44.1399
4.37908	44.3066
4.37539	44.4698
4.3717	44.641
4.36801	44.7842
4.36434	44.9246
4.36067	45.0038
4.357	45.0582
4.35335	45.0623
4.34969	45.105
4.34605	45.1307
4.34241	45.1715
4.33877	45.198
4.33514	45.1055
4.33152	44.9859
4.32791	44.9456
4.3243	44.9098
4.32069	44.7445
4.3171	44.5683
4.31351	44.4004
4.30992	44.1494
4.30634	43.8303
4.30277	43.3713
4.2992	42.786
4.29564	42.3278
4.29208	41.9282
4.28853	41.2786
4.28499	40.318
4.28145	39.085
4.27792	37.3629
4.27439	35.257
4.27087	33.3
4.26735	32.5087
4.26384	33.6139
4.26034	35.7807
4.25684	37.9917
4.25335	39.8756
4.24986	41.2534
4.24638	42.1886
4.24291	42.8304
4.23944	43.2858
4.23598	43.6888
4.23252	43.973
4.22906	44.3144
4.22562	44.7308
4.22218	45.047
4.21874	45.2668
4.21531	45.5184
4.21189	45.7902
4.20847	45.9769
4.20506	46.1188
4.20165	46.2634
4.19825	46.4638
4.19485	46.6124
4.19146	46.7036
4.18807	46.711
4.18469	46.7341
4.18132	46.8152
4.17795	46.9298
4.17458	47.0405
4.17123	47.1038
4.16787	47.2043
4.16453	47.3312
4.16118	47.3645
4.15785	47.4081
4.15451	47.4689
4.15119	47.507
4.14787	47.5585
4.14455	47.6444
4.14124	47.703
4.13794	47.778
4.13464	47.8513
4.13134	47.8693
4.12805	47.9932
4.12477	48.0096
4.12149	47.936
4.11822	47.9833
4.11495	48.0502
4.11168	48.0804
4.10843	48.1824
4.10517	48.2756
4.10192	48.3219
4.09868	48.3661
4.09545	48.4748
4.09221	48.5994
4.08899	48.6646
4.08576	48.6517
4.08255	48.6306
4.07933	48.71
4.07613	48.8438
4.07292	48.8842
4.06973	48.7958
4.06654	48.7241
4.06335	48.7507
4.06017	48.8619
4.05699	48.919
4.05382	48.8735
4.05065	48.8773
4.04749	48.9298
4.04433	48.9897
4.04118	49.0358
4.03803	48.9981
4.03489	48.9764
4.03175	49.0676
4.02862	49.071
4.02549	49.0544
4.02237	49.0777
4.01925	49.0694
4.01614	49.1028
4.01303	49.1344
4.00993	49.1062
4.00683	49.1149
4.00373	49.1697
4.00064	49.1686
3.99756	49.1457
3.99448	49.1668
3.9914	49.1886
3.98833	49.2925
3.98527	49.36
3.98221	49.3787
3.97915	49.3902
3.9761	49.4526
3.97305	49.5661
3.97001	49.6449
3.96697	49.7458
3.96394	49.7712
3.96091	49.7392
3.95789	49.7754
3.95487	49.8765
3.95186	49.8723
3.94885	49.8527
3.94584	49.9507
3.94284	49.9956
3.93984	50.034
3.93685	50.1029
3.93386	50.1924
3.93088	50.2238
3.9279	50.2149
3.92493	50.2272
3.92196	50.2696
3.919	50.3036
3.91604	50.2363
3.91308	50.2227
3.91013	50.2616
3.90718	50.2524
3.90424	50.2456
3.9013	50.2992
3.89837	50.3434
3.89544	50.3121
3.89252	50.2167
3.8896	50.2084
3.88668	50.2335
3.88377	50.1891
3.88086	50.2371
3.87796	50.2659
3.87506	50.2256
3.87217	50.1801
3.86928	50.1664
3.86639	50.2303
3.86351	50.2249
3.86064	50.2212
3.85776	50.2415
3.8549	50.2569
3.85203	50.2287
3.84917	50.2023
3.84631	50.2257
3.84346	50.1908
3.84062	50.1885
3.83777	50.1392
3.83494	50.1025
3.8321	50.0421
3.82927	50.0644
3.82644	50.1672
3.82362	50.2022
3.82081	50.1563
3.81799	50.1881
3.81518	50.1664
3.81238	50.0786
3.80958	50.0545
3.80678	50.1227
3.80399	50.1296
3.8012	50.0107
3.79841	49.9842
3.79563	50.0416
3.79286	49.9954
3.79008	49.9319
3.78731	49.8427
3.78455	49.8185
3.78179	49.8151
3.77903	49.7413
3.77628	49.7291
3.77353	49.7078
3.77079	49.6469
3.76805	49.6203
3.76531	49.537
3.76258	49.4623
3.75985	49.4882
3.75713	49.4135
3.7544	49.3555
3.75169	49.3607
3.74898	49.2761
3.74627	49.2964
3.74356	49.2994
3.74086	49.2195
3.73816	49.1134
3.73547	49.0905
3.73278	49.0328
3.7301	48.9576
3.72741	48.9348
3.72474	48.9267
3.72206	48.9209
3.71939	48.928
3.71673	48.8953
3.71406	48.821
3.71141	48.7811
3.70875	48.8134
3.7061	48.7421
3.70345	48.6276
3.70081	48.6495
3.69817	48.6789
3.69553	48.6196
3.6929	48.5942
3.69027	48.6468
3.68765	48.5568
3.68503	48.4768
3.68241	48.4655
3.6798	48.3898
3.67719	48.3481
3.67458	48.2961
3.67198	48.2329
3.66938	48.2202
3.66678	48.1494
3.66419	48.0882
3.66161	47.993
3.65902	47.9014
3.65644	47.8989
3.65387	47.873
3.65129	47.7667
3.64872	47.6979
3.64616	47.6657
3.64359	47.5648
3.64103	47.4833
3.63848	47.4463
3.63593	47.4069
3.63338	47.3477
3.63084	47.2888
3.6283	47.2481
3.62576	47.137
3.62322	47.0707
3.62069	47.0547
3.61817	46.9356
3.61564	46.8195
3.61312	46.7505
3.61061	46.6207
3.6081	46.5507
3.60559	46.4665
3.60308	46.4068
3.60058	46.4135
3.59808	46.304
3.59558	46.1002
3.59309	45.9675
3.59061	45.8669
3.58812	45.8093
3.58564	45.7817
3.58316	45.7103
3.58069	45.6413
3.57822	45.6287
3.57575	45.5666
3.57328	45.4494
3.57082	45.3502
3.56836	45.2287
3.56591	45.1551
3.56346	45.053
3.56101	44.9359
3.55857	44.9032
3.55613	44.827
3.55369	44.7245
3.55126	44.5803
3.54883	44.4069
3.5464	44.308
3.54397	44.2307
3.54155	44.1337
3.53914	44.0623
3.53672	43.8916
3.53431	43.7334
3.5319	43.6707
3.5295	43.5534
3.5271	43.3884
3.5247	43.1634
3.52231	42.989
3.51991	42.7966
3.51753	42.5515
3.51514	42.2393
3.51276	41.9579
3.51038	41.7109
3.50801	41.3939
3.50563	41.0688
3.50327	40.9134
3.5009	40.8975
3.49854	40.928
3.49618	40.9591
3.49382	41.0156
3.49147	41.0703
3.48912	41.0994
3.48677	41.0393
3.48443	40.9139
3.48209	40.8563
3.47975	40.7535
3.47742	40.6209
3.47509	40.4789
3.47276	40.462
3.47044	40.4122
3.46812	40.361
3.4658	40.2769
3.46348	40.0965
3.46117	39.9332
3.45886	39.851
3.45656	39.7406
3.45425	39.5563
3.45195	39.3456
3.44966	39.287
3.44736	39.1903
3.44507	38.9245
3.44279	38.7231
3.4405	38.5394
3.43822	38.399
3.43594	38.1587
3.43367	37.9515
3.43139	37.6952
3.42912	37.3383
3.42686	36.9638
3.42459	36.5701
3.42233	36.2287
3.42007	36.0267
3.41782	35.9348
3.41557	35.9148
3.41332	35.9454
3.41108	36.0614
3.40883	36.2317
3.40659	36.3959
3.40435	36.4216
3.40212	36.4122
3.39989	36.4708
3.39766	36.4741
3.39544	36.3744
3.39322	36.2831
3.391	36.1854
3.38878	36.0389
3.38657	35.9532
3.38436	35.7176
3.38215	35.4936
3.37994	35.4243
3.37774	35.332
3.37554	35.2601
3.37335	35.2642
3.37115	35.1954
3.36896	35.2287
3.36678	35.289
3.36459	35.2888
3.36241	35.3257
3.36023	35.2813
3.35805	35.2086
3.35588	35.158
3.35371	35.1465
3.35154	35.0639
3.34938	34.8849
3.34721	34.6722
3.34505	34.6323
3.3429	34.6484
3.34074	34.588
3.33859	34.4332
3.33644	34.2961
3.3343	34.1812
3.33215	34.1046
3.33001	33.9577
3.32788	33.7955
3.32574	33.6321
3.32361	33.5436
3.32148	33.3953
3.31936	33.1975
3.31723	33.0885
3.31511	33.0304
3.31299	32.919
3.31088	32.8143
3.30876	32.7078
3.30665	32.6321
3.30455	32.4759
3.30244	32.3457
3.30034	32.2218
3.29824	32.111
3.29614	32.0142
3.29405	31.8345
3.29196	31.7235
3.28987	31.6225
3.28778	31.5076
3.2857	31.3499
3.28362	31.2447
3.28154	31.0991
3.27946	31.0266
3.27739	30.9435
3.27532	30.7487
3.27325	30.5771
3.27119	30.512
3.26913	30.4232
3.26707	30.3044
3.26501	30.2248
3.26295	30.1272
3.2609	29.9525
3.25885	29.8339
3.2568	29.6791
3.25476	29.4529
3.25272	29.3135
3.25068	29.2276
3.24864	29.0961
3.24661	28.9819
3.24458	28.914
3.24255	28.9027
3.24052	28.8323
3.2385	28.6844
3.23648	28.5538
3.23446	28.4048
3.23244	28.313
3.23043	28.1821
3.22841	27.9616
3.2264	27.8967
3.2244	27.9009
3.22239	27.6839
3.22039	27.4952
3.21839	27.4622
3.2164	27.3969
3.2144	27.3552
3.21241	27.2502
3.21042	27.1524
3.20844	27.117
3.20645	26.9897
3.20447	26.8054
3.20249	26.6486
3.20051	26.4957
3.19854	26.423
3.19657	26.3342
3.1946	26.2361
3.19263	26.1666
3.19067	26.0926
3.1887	25.9063
3.18674	25.775
3.18479	25.733
3.18283	25.6502
3.18088	25.5679
3.17893	25.4463
3.17698	25.324
3.17504	25.2554
3.17309	25.1848
3.17115	25.1568
3.16921	25.0858
3.16728	24.8997
3.16534	24.7619
3.16341	24.7011
3.16148	24.7328
3.15956	24.6971
3.15763	24.4492
3.15571	24.3603
3.15379	24.3935
3.15187	24.3189
3.14996	24.1237
3.14805	24.0729
3.14614	24.0872
3.14423	24.0111
3.14232	23.932
3.14042	23.8707
3.13852	23.7176
3.13662	23.5897
3.13472	23.6007
3.13283	23.5834
3.13094	23.5587
3.12905	23.4019
3.12716	23.2086
3.12528	23.1902
3.12339	23.2659
3.12151	23.1814
3.11964	23.0134
3.11776	22.9153
3.11589	22.9349
3.11401	22.9919
3.11214	22.9247
3.11028	22.8446
3.10841	22.7315
3.10655	22.7187
3.10469	22.7931
3.10283	22.752
3.10098	22.7101
3.09912	22.5715
3.09727	22.4554
3.09542	22.439
3.09358	22.4648
3.09173	22.4597
3.08989	22.3168
3.08805	22.3316
3.08621	22.2894
3.08437	22.1363
3.08254	22.1846
3.08071	22.2566
3.07888	22.1996
3.07705	22.0715
3.07523	21.9696
3.0734	21.9841
3.07158	22.0383
3.06977	22.0894
3.06795	22.0168
3.06613	22.0015
3.06432	21.9186
3.06251	21.8455
3.0607	21.8586
3.0589	21.808
3.0571	21.9497
3.05529	22.0249
3.05349	21.8985
3.0517	21.7186
3.0499	21.6648
3.04811	21.7589
3.04632	21.8621
3.04453	21.8454
3.04274	21.8079
3.04096	21.6926
3.03918	21.6047
3.0374	21.5506
3.03562	21.6301
3.03384	21.6948
3.03207	21.617
3.03029	21.5246
3.02852	21.4143
3.02676	21.4233
3.02499	21.497
3.02323	21.4974
3.02146	21.5053
3.0197	21.4451
3.01795	21.3943
3.01619	21.4072
3.01444	21.451
3.01269	21.4663
3.01094	21.4582
3.00919	21.4654
3.00744	21.4395
3.0057	21.4051
3.00396	21.2993
3.00222	21.3866
3.00048	21.3093
2.99875	21.1543
2.99701	21.285
2.99528	21.4335
2.99355	21.4482
2.99183	21.3516
2.9901	21.1629
2.98838	21.0581
2.98666	21.1418
2.98494	21.2259
2.98322	21.151
2.9815	21.0051
2.97979	21.1274
2.97808	21.2495
2.97637	21.2074
2.97466	21.0932
2.97295	20.991
2.97125	20.9688
2.96955	21.0364
2.96785	21.0869
2.96615	21.0007
2.96446	20.9571
2.96276	20.9183
2.96107	20.7713
2.95938	20.6996
2.95769	20.8231
2.95601	20.903
2.95432	20.9007
2.95264	20.8719
2.95096	20.9692
2.94928	21.0254
2.9476	21.1608
2.94593	21.2623
2.94425	21.162
2.94258	21.1491
2.94092	21.1435
2.93925	21.1213
2.93758	21.2359
2.93592	21.248
2.93426	21.2291
2.9326	21.2401
2.93094	21.284
2.92928	21.3155
2.92763	21.3632
2.92598	21.4698
2.92433	21.5595
2.92268	21.5598
2.92103	21.4434
2.91939	21.4081
2.91775	21.5093
2.9161	21.601
2.91447	21.6751
2.91283	21.6689
2.91119	21.6375
2.90956	21.6241
2.90793	21.7049
2.9063	21.7883
2.90467	21.7449
2.90304	21.8342
2.90142	22.013
2.89979	22.1097
2.89817	22.1508
2.89656	22.1082
2.89494	22.0456
2.89332	22.1362
2.89171	22.3198
2.8901	22.4142
2.88849	22.3484
2.88688	22.384
2.88527	22.4944
2.88367	22.5627
2.88206	22.487
2.88046	22.3976
2.87886	22.4572
2.87727	22.6411
2.87567	22.6882
2.87408	22.6519
2.87248	22.7874
2.87089	22.9871
2.8693	23.0415
2.86772	23.0945
2.86613	23.1264
2.86455	23.195
2.86297	23.3098
2.86139	23.4444
2.85981	23.4778
2.85823	23.5072
2.85666	23.631
2.85508	23.7407
2.85351	23.6876
2.85194	23.6746
2.85038	23.7395
2.84881	23.9184
2.84724	24.1503
2.84568	24.1322
2.84412	24.1471
2.84256	24.3175
2.841	24.4502
2.83945	24.6174
2.83789	24.6091
2.83634	24.6592
2.83479	24.8439
2.83324	24.9738
2.83169	25.0456
2.83015	25.1654
2.82861	25.2668
2.82706	25.2813
2.82552	25.2808
2.82398	25.3431
2.82245	25.5228
2.82091	25.8132
2.81938	25.9732
2.81784	26.0121
2.81631	25.9945
2.81479	26.1678
2.81326	26.2551
2.81173	26.3414
2.81021	26.4938
2.80869	26.6295
2.80716	26.8191
2.80565	27.05
2.80413	27.4114
2.80261	27.6474
2.8011	27.4528
2.79959	27.3912
2.79808	27.5415
2.79657	27.6719
2.79506	27.7827
2.79355	27.9789
2.79205	28.0386
2.79055	28.1417
2.78904	28.5092
2.78754	28.9232
2.78605	28.9867
2.78455	28.9208
2.78306	29.1279
2.78156	29.298
2.78007	29.482
2.77858	29.7133
2.77709	29.9863
2.77561	29.9889
2.77412	30.0925
2.77264	30.5413
2.77116	30.9764
2.76968	31.3466
2.7682	31.5644
2.76672	31.5551
2.76524	31.7753
2.76377	32.4179
2.7623	32.3949
2.76083	32.1005
2.75936	32.3773
2.75789	32.9158
2.75642	33.9422
2.75496	34.37
2.7535	33.812
2.75203	33.8938
2.75057	34.1724
2.74912	34.4756
2.74766	34.7588
2.7462	35.1704
2.74475	35.4641
2.7433	35.9343
2.74185	36.9963
2.7404	38.1039
2.73895	38.2236
2.7375	37.8327
2.73606	38.3034
2.73462	39.0875
2.73318	39.3183
2.73174	39.8162
2.7303	40.4678
2.72886	41.0699
2.72742	41.8674
2.72599	43.205
2.72456	44.5955
2.72313	44.8563
2.7217	45.9624
2.72027	47.3446
2.71884	46.9769
2.71742	47.2268
2.71599	47.6374
2.71457	48.2087
2.71315	49.1789
2.71173	50.9971
2.71032	52.0121
2.7089	52.0067
2.70748	51.9465
2.70607	52.2578
2.70466	52.8161
2.70325	53.5701
2.70184	54.732
2.70043	55.3916
2.69903	55.7694
2.69762	56.6698
2.69622	57.8466
2.69482	59.2681
2.69342	60.0606
2.69202	59.6541
2.69062	59.888
2.68923	60.6518
2.68783	61.2985
2.68644	61.8785
2.68505	62.314
2.68366	62.8464
2.68227	63.0253
2.68089	63.4467
2.6795	64.6209
2.67812	65.2793
2.67673	65.989
2.67535	65.6796
2.67397	65.1515
2.6726	65.5823
2.67122	67.7877
2.66984	68.308
2.66847	67.3053
2.6671	68.4654
2.66572	68.895
2.66435	68.1126
2.66299	67.0469
2.66162	67.2572
2.66025	67.5677
2.65889	67.641
2.65753	67.3534
2.65616	67.8298
2.65481	67.9849
2.65345	68.3736
2.65209	68.6226
2.65073	68.118
2.64938	68.0606
2.64803	68.4145
2.64667	68.8902
2.64532	69.1214
2.64397	68.8853
2.64263	69.0937
2.64128	69.1454
2.63994	69.0583
2.63859	69.0111
2.63725	69.2776
2.63591	69.4586
2.63457	70.012
2.63323	70.1507
2.6319	70.6491
2.63056	71.8354
2.62923	71.0442
2.62789	70.8241
2.62656	71.5354
2.62523	70.7384
2.6239	70.2925
2.62258	70.4272
2.62125	71.7104
2.61993	72.1612
2.6186	71.6204
2.61728	72.4736
2.61596	72.0391
2.61464	71.133
2.61332	71.3245
2.61201	71.2483
2.61069	71.3889
2.60938	71.7301
2.60807	71.9853
2.60675	72.708
2.60544	73.3524
2.60414	72.8036
2.60283	72.3281
2.60152	71.9921
2.60022	71.5632
2.59891	71.4709
2.59761	72.0453
2.59631	73.863
2.59501	75.982
2.59371	74.3451
2.59242	72.2527
2.59112	71.9072
2.58983	72.3002
2.58853	72.7296
2.58724	73.0612
2.58595	72.6098
2.58466	73.106
2.58338	73.1566
2.58209	72.3816
2.5808	72.3566
2.57952	71.9631
2.57824	72.2815
2.57695	72.8291
2.57567	72.4942
2.5744	72.7782
2.57312	73.1549
2.57184	72.356
2.57057	72.618
2.56929	72.8314
2.56802	72.206
2.56675	71.8876
2.56548	72.5052
2.56421	73.2885
2.56294	73.5754
2.56168	73.704
2.56041	73.2204
2.55915	72.5581
2.55789	72.2342
2.55662	72.2338
2.55536	72.205
2.5541	72.3786
2.55285	72.8184
2.55159	72.8035
2.55034	72.5731
2.54908	72.5198
2.54783	72.6705
2.54658	72.5616
2.54533	72.6016
2.54408	72.7919
2.54283	72.8749
2.54159	72.6443
2.54034	72.5579
2.5391	72.6127
2.53785	72.6818
2.53661	72.8622
2.53537	72.8477
2.53413	72.7566
2.53289	72.912
2.53166	72.9312
2.53042	72.8255
2.52919	72.737
2.52795	72.7362
2.52672	72.806
2.52549	72.8516
2.52426	72.8845
2.52303	72.893
2.52181	72.9254
2.52058	72.8738
2.51936	72.8468
2.51813	72.9596
2.51691	72.996
2.51569	73.0107
2.51447	73.0407
2.51325	73.0601
2.51203	73.1083
2.51082	73.0838
2.5096	73.0231
2.50839	73.0365
2.50717	73.0567
2.50596	73.2226
2.50475	73.2757
2.50354	73.2854
2.50233	73.3692
2.50113	73.4634
2.49992	73.4857
2.49872	73.4356
2.49751	73.4421
2.49631	73.4712
2.49511	73.5637
2.49391	73.7522
2.49271	73.7116
2.49151	73.6772
2.49031	73.7598
2.48912	73.8554
2.48792	73.9833
2.48673	74.0552
2.48554	74.1344
2.48435	74.2124
2.48316	74.1656
2.48197	74.2053
2.48078	74.2814
2.4796	74.2747
2.47841	74.3212
2.47723	74.4343
2.47604	74.4594
2.47486	74.4354
2.47368	74.5383
2.4725	74.6862
2.47132	74.7476
2.47014	74.8669
2.46897	74.9695
2.46779	74.9818
2.46662	74.9847
2.46545	75.0717
2.46427	75.1939
2.4631	75.1581
2.46193	75.1167
2.46077	75.1605
2.4596	75.2302
2.45843	75.2728
2.45727	75.2931
2.4561	75.5459
2.45494	75.7534
2.45378	75.7982
2.45262	75.8095
2.45146	75.8391
2.4503	75.8979
2.44914	75.8643
2.44799	75.9218
2.44683	76.0039
2.44568	76.0186
2.44452	76.2111
2.44337	76.2573
2.44222	76.2039
2.44107	76.2648
2.43992	76.2828
2.43877	76.3138
2.43763	76.4214
2.43648	76.5616
2.43534	76.6543
2.43419	76.6926
2.43305	76.8121
2.43191	76.8532
2.43077	76.8018
2.42963	76.7861
2.42849	76.8869
2.42736	77.0543
2.42622	77.2345
2.42509	77.2268
2.42395	77.1983
2.42282	77.3113
2.42169	77.2569
2.42056	77.1446
2.41943	77.114
2.4183	77.3147
2.41717	77.5306
2.41605	77.5994
2.41492	77.5838
2.4138	77.5588
2.41267	77.5058
2.41155	77.5882
2.41043	77.7293
2.40931	77.7561
2.40819	77.8766
2.40707	77.9675
2.40595	77.9174
2.40484	77.8965
2.40372	77.9474
2.40261	78.052
2.4015	78.1936
2.40039	78.2128
2.39928	78.1328
2.39817	78.0623
2.39706	78.1576
2.39595	78.3043
2.39484	78.3136
2.39374	78.2984
2.39263	78.3345
2.39153	78.4449
2.39043	78.4627
2.38932	78.4485
2.38822	78.5444
2.38712	78.7262
2.38603	78.6368
2.38493	78.4318
2.38383	78.5783
2.38274	78.8252
2.38164	78.8146
2.38055	78.7764
2.37946	78.8321
2.37836	78.8097
2.37727	78.8273
2.37618	78.8898
2.3751	78.9068
2.37401	79.0124
2.37292	79.041
2.37184	78.947
2.37075	79.0008
2.36967	79.1054
2.36859	79.1333
2.3675	79.3346
2.36642	79.2588
2.36534	79.0941
2.36427	79.2068
2.36319	79.2355
2.36211	79.1981
2.36104	79.3709
2.35996	79.5159
2.35889	79.5202
2.35781	79.5266
2.35674	79.4994
2.35567	79.3612
2.3546	79.3348
2.35353	79.3989
2.35247	79.3705
2.3514	79.4843
2.35033	79.6181
2.34927	79.5291
2.3482	79.4343
2.34714	79.51
2.34608	79.6232
2.34502	79.7127
2.34396	79.7542
2.3429	79.7393
2.34184	79.7786
2.34078	79.8172
2.33973	79.8076
2.33867	79.6772
2.33762	79.6845
2.33656	79.8131
2.33551	79.937
2.33446	79.9346
2.33341	79.8639
2.33236	79.8763
2.33131	79.9239
2.33026	80.0083
2.32922	80.092
2.32817	80.0089
2.32712	80.0627
2.32608	80.1232
2.32504	80.1284
2.324	80.0919
2.32295	80.0474
2.32191	79.9565
2.32087	79.985
2.31984	80.0787
2.3188	80.2497
2.31776	80.2676
2.31673	80.1135
2.31569	80.0021
2.31466	79.9618
2.31362	80.0205
2.31259	80.0453
2.31156	80.0229
2.31053	80.0086
2.3095	79.9375
2.30847	79.9455
2.30745	79.9939
2.30642	80.0389
2.3054	80.0295
2.30437	80.0293
2.30335	80.0933
2.30232	80.1606
2.3013	80.2524
2.30028	80.27
2.29926	80.2911
2.29824	80.3087
2.29722	80.2664
2.29621	80.2181
2.29519	80.2305
2.29417	80.3263
2.29316	80.348
2.29215	80.406
2.29113	80.4986
2.29012	80.4451
2.28911	80.3958
2.2881	80.4501
2.28709	80.4895
2.28608	80.4493
2.28507	80.3096
2.28407	80.288
2.28306	80.4071
2.28206	80.4782
2.28105	80.5238
2.28005	80.5339
2.27905	80.4453
2.27805	80.2682
2.27705	80.4145
2.27605	80.57
2.27505	80.529
2.27405	80.4186
2.27305	80.4087
2.27206	80.4154
2.27106	80.3367
2.27007	80.3933
2.26907	80.4105
2.26808	80.3466
2.26709	80.4078
2.2661	80.5264
2.26511	80.5987
2.26412	80.6219
2.26313	80.6686
2.26214	80.5567
2.26116	80.4653
2.26017	80.6012
2.25919	80.724
2.2582	80.6632
2.25722	80.5328
2.25624	80.573
2.25526	80.6579
2.25428	80.6683
2.2533	80.6681
2.25232	80.5848
2.25134	80.5501
2.25036	80.7308
2.24939	80.8362
2.24841	80.7574
2.24744	80.7844
2.24646	80.7595
2.24549	80.7528
2.24452	80.862
2.24355	80.8571
2.24257	80.9002
2.24161	80.9
2.24064	80.9841
2.23967	80.9517
2.2387	80.941
2.23774	80.9697
2.23677	80.808
2.23581	80.6472
2.23484	80.6703
2.23388	80.7749
2.23292	80.7977
2.23196	80.9092
2.231	81.0601
2.23004	80.951
2.22908	80.8472
2.22812	80.8197
2.22716	80.8834
2.22621	81.0179
2.22525	81.02
2.2243	80.8872
2.22334	80.8205
2.22239	80.7814
2.22144	80.8246
2.22049	80.8857
2.21953	80.8284
2.21859	80.7969
2.21764	80.8654
2.21669	80.9979
2.21574	81.0788
2.21479	80.9321
2.21385	80.8795
2.2129	80.9011
2.21196	80.8583
2.21102	80.81
2.21007	80.8625
2.20913	80.9036
2.20819	80.8876
2.20725	80.7158
2.20631	80.7287
2.20537	80.9273
2.20444	81.0674
2.2035	80.9418
2.20256	80.8637
2.20163	80.8842
2.20069	80.9874
2.19976	80.9328
2.19883	80.7414
2.19789	80.7968
2.19696	80.8725
2.19603	80.9213
2.1951	80.9891
2.19417	80.8967
2.19325	80.8022
2.19232	80.7906
2.19139	80.8562
2.19047	80.9904
2.18954	80.9635
2.18862	80.9955
2.18769	81.06
2.18677	81.1542
2.18585	81.1668
2.18493	81.0561
2.18401	81.0935
2.18309	81.0676
2.18217	80.9928
2.18125	81.1143
2.18033	81.1506
2.17942	81.1716
2.1785	81.2088
2.17759	81.335
2.17667	81.3409
2.17576	81.2506
2.17485	81.2753
2.17393	81.2852
2.17302	81.2244
2.17211	81.2453
2.1712	81.388
2.17029	81.3394
2.16939	81.3
2.16848	81.2058
2.16757	81.1877
2.16667	81.2182
2.16576	81.3471
2.16486	81.5334
2.16395	81.6218
2.16305	81.465
2.16215	81.2829
2.16125	81.1915
2.16035	81.1414
2.15945	81.2106
2.15855	81.3093
2.15765	81.4145
2.15675	81.3988
2.15586	81.3171
2.15496	81.3698
2.15406	81.4826
2.15317	81.5977
2.15228	81.4478
2.15138	81.3351
2.15049	81.3213
2.1496	81.2312
2.14871	81.2712
2.14782	81.416
2.14693	81.5165
2.14604	81.5122
2.14515	81.4353
2.14427	81.3735
2.14338	81.2491
2.14249	81.2015
2.14161	81.3206
2.14072	81.38
2.13984	81.2477
2.13896	81.1998
2.13808	81.3371
2.13719	81.455
2.13631	81.4625
2.13543	81.444
2.13455	81.3319
2.13368	81.2377
2.1328	81.2585
2.13192	81.3544
2.13105	81.4728
2.13017	81.3205
2.1293	81.11
2.12842	81.1545
2.12755	81.1683
2.12668	81.1646
2.1258	81.1885
2.12493	81.2405
2.12406	81.2629
2.12319	81.2795
2.12232	81.2119
2.12145	81.185
2.12059	81.3793
2.11972	81.3679
2.11885	81.1165
2.11799	81.0267
2.11712	81.1096
2.11626	81.0762
2.1154	81.191
2.11453	81.1608
2.11367	81.0253
2.11281	81.0795
2.11195	80.9748
2.11109	80.8818
2.11023	81.0154
2.10937	81.068
2.10851	81.0124
2.10766	80.9608
2.1068	81.0623
2.10594	80.9706
2.10509	80.8703
2.10423	80.8525
2.10338	80.9945
2.10253	81.0286
2.10168	81.0274
2.10082	80.8588
2.09997	80.6741
2.09912	80.6164
2.09827	80.6952
2.09742	80.7938
2.09658	80.8925
2.09573	80.9785
2.09488	80.8174
2.09404	80.7346
2.09319	80.8454
2.09235	80.8363
2.0915	80.7688
2.09066	80.5972
2.08982	80.4816
2.08897	80.5646
2.08813	80.6462
2.08729	80.4634
2.08645	80.4303
2.08561	80.6753
2.08477	80.7892
2.08394	80.7608
2.0831	80.6266
2.08226	80.5511
2.08143	80.4493
2.08059	80.4108
2.07976	80.1714
2.07892	79.9127
2.07809	80.3352
2.07726	80.7518
2.07643	80.5746
2.07559	80.062
2.07476	79.9165
2.07393	80.1827
2.0731	80.1577
2.07228	80.1863
2.07145	80.1321
2.07062	80.4123
2.06979	80.635
2.06897	80.4501
2.06814	79.938
2.06732	79.8597
2.06649	79.9458
2.06567	79.9807
2.06485	80.2254
2.06403	80.1317
2.0632	80.0057
2.06238	80.2582
2.06156	80.3188
2.06074	80.0699
2.05993	79.8101
2.05911	79.6573
2.05829	79.5216
2.05747	79.5624
2.05666	79.8343
2.05584	79.9652
2.05503	79.8336
2.05421	79.7062
2.0534	79.5298
2.05259	79.6579
2.05177	79.8973
2.05096	79.7036
2.05015	79.5108
2.04934	79.6494
2.04853	79.6916
2.04772	79.5349
2.04691	79.4122
2.04611	79.4925
2.0453	79.6132
2.04449	79.5045
2.04369	79.3082
2.04288	79.327
2.04208	79.4715
2.04127	79.339
2.04047	79.2065
2.03967	79.2395
2.03886	79.1623
2.03806	79.288
2.03726	79.5557
2.03646	79.4221
2.03566	79.173
2.03486	79.1739
2.03407	79.095
2.03327	79.0346
2.03247	79.1316
2.03167	79.1583
2.03088	78.8547
2.03008	78.686
2.02929	78.7469
2.0285	78.7743
2.0277	78.8632
2.02691	78.7715
2.02612	78.8246
2.02533	78.7781
2.02453	78.6923
2.02374	78.7436
2.02295	78.6175
2.02217	78.434
2.02138	78.2941
2.02059	78.2079
2.0198	78.2892
2.01902	78.3255
2.01823	78.2776
2.01744	78.2112
2.01666	78.1978
2.01588	78.0432
2.01509	78.0081
2.01431	78.0197
2.01353	78.0874
2.01275	78.1027
2.01196	78.0258
2.01118	77.9709
2.0104	78.1507
2.00963	78.1738
2.00885	77.9306
2.00807	77.7778
2.00729	77.6692
2.00651	77.7089
2.00574	77.8427
2.00496	77.7015
2.00419	77.4156
2.00341	77.3311
2.00264	77.4741
2.00187	77.4685
2.00109	77.4544
2.00032	77.437
