Name: Trachyte
Type: Rock
Class: Igneous
Subclass:  Alkalic 
Particle Size: Solid surface
Sample No.: Ward17.txt
Owner: JPL
Wavelength range:  IR 
Origin: Ward's Collection of American Rocks.  Sample locality - Mineral Hill, near Cripple Creek, Teller County, Colorado.
Collected by:  Ward's Natural Science
Description: A very fine-grained, porphyritic rock, light gray in color.
Geologic age - Tertiary (Post-Oligocene).




Measurement: Hemispherical reflectance
First Column: X
Second Column: Y
X Units: Wavelength (micrometers)
Y Units: Reflectance (percent)
First X Value: 15.3871
Last X Value: 1.9998
Number of X Values: 2257
Additional information: None

15.3871   2.45164
15.3416   2.39234
15.2964   2.17344
15.2514   1.96270
15.2066   1.89476
15.1622   2.02900
15.1180   2.34219
15.0740   2.29074
15.0303   2.04141
14.9869   2.27157
14.9437   2.34538
14.9008   2.10966
14.8581   2.29966
14.8156   2.39898
14.7734   2.26704
14.7314   2.09060
14.6897   1.94959
14.6482   1.90449
14.6069   2.08093
14.5659   2.27725
14.5251   2.32070
14.4845   2.35427
14.4442   2.72972
14.4041   2.71663
14.3642   2.57756
14.3245   2.61074
14.2850   2.65798
14.2458   2.55882
14.2068   2.50321
14.1679   2.29302
14.1293   2.09486
14.0909   2.37545
14.0528   2.59589
14.0148   2.53152
13.9770   2.47125
13.9394   2.56262
13.9021   2.70174
13.8649   2.81727
13.8279   2.89619
13.7911   2.74699
13.7546   2.68332
13.7182   2.70086
13.6820   2.69170
13.6460   2.81351
13.6101   3.00336
13.5745   2.83109
13.5391   2.65183
13.5038   2.61535
13.4687   2.65754
13.4339   2.64016
13.3991   2.84047
13.3646   3.06286
13.3302   3.01949
13.2961   2.89034
13.2621   2.64937
13.2282   2.73755
13.1946   2.92666
13.1611   2.83244
13.1278   2.74368
13.0946   2.87101
13.0616   3.05161
13.0288   3.18254
12.9962   3.11236
12.9637   3.09458
12.9313   3.11959
12.8992   2.91125
12.8672   2.91450
12.8353   3.02081
12.8036   3.06573
12.7721   3.11273
12.7407   3.18082
12.7095   3.21076
12.6784   3.23069
12.6475   3.22673
12.6167   3.21413
12.5861   3.22404
12.5556   3.27011
12.5253   3.23396
12.4951   3.17214
12.4651   3.30055
12.4352   3.20390
12.4054   3.13795
12.3758   2.99949
12.3463   2.89291
12.3170   3.07087
12.2878   3.21520
12.2588   3.09978
12.2299   3.26551
12.2011   3.44667
12.1725   3.58118
12.1439   3.70594
12.1156   3.80849
12.0873   3.89379
12.0592   3.94282
12.0312   4.06435
12.0034   4.04280
11.9757   4.06755
11.9481   4.04838
11.9206   3.97785
11.8933   4.22895
11.8661   4.31269
11.8390   4.24761
11.8120   4.48258
11.7852   4.54310
11.7584   4.52312
11.7318   4.45010
11.7053   4.36877
11.6790   4.51581
11.6527   4.55234
11.6266   4.64695
11.6006   4.80112
11.5747   4.78990
11.5489   4.58666
11.5233   4.52359
11.4977   4.70111
11.4723   4.75166
11.4469   4.86521
11.4217   4.94795
11.3966   4.97118
11.3716   5.06628
11.3468   5.14713
11.3220   5.16630
11.2973   5.18664
11.2728   5.25058
11.2483   5.41558
11.2240   5.60801
11.1997   5.68837
11.1756   5.62456
11.1515   5.58132
11.1276   5.71703
11.1038   5.70980
11.0801   5.76359
11.0564   5.90894
11.0329   5.92940
11.0095   5.89108
10.9862   5.96558
10.9629   6.06706
10.9398   6.03467
10.9168   6.14726
10.8938   6.22880
10.8710   6.28621
10.8483   6.39107
10.8256   6.47423
10.8031   6.43631
10.7806   6.49904
10.7582   6.51513
10.7360   6.53227
10.7138   6.70356
10.6917   6.83107
10.6697   6.80310
10.6478   6.85675
10.6260   6.91281
10.6042   6.96266
10.5826   6.98389
10.5610   7.12374
10.5396   7.24959
10.5182   7.22603
10.4969   7.17818
10.4757   7.14342
10.4546   7.05401
10.4335   7.13840
10.4126   7.43278
10.3917   7.58096
10.3709   7.53594
10.3502   7.56861
10.3296   7.74120
10.3091   7.88754
10.2886   8.02161
10.2683   8.11679
10.2480   8.18837
10.2277   8.35133
10.2076   8.32676
10.1876   8.29312
10.1676   8.47961
10.1477   8.60219
10.1279   8.66027
10.1081   8.67534
10.0885   8.74382
10.0689   8.88483
10.0494   8.98875
10.0299   9.17109
10.0106   9.34159
 9.9913   9.33767
 9.9720   9.38713
 9.9529   9.50607
 9.9338   9.46067
 9.9148   9.34057
 9.8959   9.46961
 9.8771   9.69555
 9.8583   9.84252
 9.8396   9.89925
 9.8210   9.89825
 9.8024   9.95402
 9.7839  10.00050
 9.7655   9.96988
 9.7471   9.94407
 9.7288   9.97493
 9.7106   9.90457
 9.6925   9.79266
 9.6744   9.87711
 9.6564   9.82356
 9.6384   9.74440
 9.6205   9.87765
 9.6027  10.02760
 9.5850   9.89617
 9.5673   9.70834
 9.5497   9.71883
 9.5321   9.73484
 9.5146   9.85965
 9.4972   9.92059
 9.4798   9.89077
 9.4625   9.84760
 9.4453   9.90853
 9.4281  10.10400
 9.4110  10.18970
 9.3940  10.21920
 9.3770  10.46340
 9.3600  10.62960
 9.3432  10.84790
 9.3264  11.26430
 9.3096  11.57770
 9.2930  11.92160
 9.2763  12.36700
 9.2598  12.76400
 9.2432  13.28850
 9.2268  13.95260
 9.2104  14.44950
 9.1941  14.83990
 9.1778  15.26920
 9.1616  15.47650
 9.1454  15.51160
 9.1293  15.63540
 9.1133  15.87000
 9.0973  15.98190
 9.0814  16.03200
 9.0655  16.07470
 9.0497  16.10700
 9.0339  15.96920
 9.0182  15.89170
 9.0025  15.89620
 8.9870  15.88810
 8.9714  15.82410
 8.9559  15.62960
 8.9405  15.61120
 8.9251  15.69400
 8.9097  15.61220
 8.8945  15.37050
 8.8792  15.20660
 8.8641  15.16950
 8.8489  15.32010
 8.8338  15.34480
 8.8188  15.17540
 8.8039  15.05260
 8.7889  15.00270
 8.7741  14.91380
 8.7592  14.80560
 8.7445  14.62830
 8.7297  14.59150
 8.7151  14.64530
 8.7005  14.53220
 8.6859  14.46250
 8.6714  14.40270
 8.6569  14.39620
 8.6425  14.35840
 8.6281  14.37940
 8.6137  14.30700
 8.5994  14.17610
 8.5852  13.99400
 8.5710  13.90050
 8.5569  13.72120
 8.5428  13.51280
 8.5287  13.45790
 8.5147  13.31930
 8.5008  13.08100
 8.4869  12.89480
 8.4730  12.67950
 8.4592  12.37530
 8.4454  11.97510
 8.4316  11.41310
 8.4180  10.92230
 8.4043  10.48040
 8.3907  10.08640
 8.3772   9.92745
 8.3637  10.16210
 8.3502  10.55040
 8.3368  10.70430
 8.3234  10.78360
 8.3100  10.94360
 8.2967  11.06760
 8.2835  11.08740
 8.2703  11.13880
 8.2571  11.02930
 8.2440  10.78730
 8.2309  10.55700
 8.2179  10.51260
 8.2049  10.39940
 8.1919  10.23290
 8.1790  10.15500
 8.1661   9.94755
 8.1532   9.51709
 8.1404   9.17087
 8.1277   8.75428
 8.1150   8.44799
 8.1023   8.26896
 8.0897   7.92451
 8.0770   7.44648
 8.0645   7.13160
 8.0520   6.94159
 8.0395   6.87767
 8.0270   6.67851
 8.0146   6.44792
 8.0023   6.28358
 7.9899   6.04445
 7.9776   5.87152
 7.9654   5.78704
 7.9532   5.67752
 7.9410   5.59404
 7.9288   5.37997
 7.9167   4.99476
 7.9047   4.69394
 7.8926   4.57709
 7.8807   4.47339
 7.8687   4.34789
 7.8568   4.20539
 7.8449   4.03085
 7.8330   3.89480
 7.8212   3.76751
 7.8094   3.58991
 7.7977   3.46943
 7.7860   3.43393
 7.7743   3.33046
 7.7627   3.21722
 7.7511   3.12268
 7.7395   2.99738
 7.7280   2.92616
 7.7165   2.82827
 7.7050   2.70017
 7.6936   2.65710
 7.6822   2.56232
 7.6708   2.41525
 7.6595   2.38072
 7.6482   2.39219
 7.6369   2.39677
 7.6257   2.32580
 7.6145   2.14468
 7.6033   2.19152
 7.5922   2.23866
 7.5811   2.23738
 7.5700   2.29371
 7.5590   2.26692
 7.5480   2.20669
 7.5370   2.21135
 7.5261   2.26611
 7.5152   2.21071
 7.5043   2.17507
 7.4935   2.22731
 7.4826   2.24902
 7.4718   2.16271
 7.4611   2.09661
 7.4504   2.15521
 7.4397   2.14599
 7.4290   2.14925
 7.4184   2.16037
 7.4078   2.10342
 7.3972   2.09149
 7.3867   2.22430
 7.3762   2.31011
 7.3657   2.25842
 7.3553   2.18794
 7.3449   2.19479
 7.3345   2.24622
 7.3241   2.19294
 7.3138   2.16513
 7.3035   2.19406
 7.2932   2.33133
 7.2830   2.41405
 7.2727   2.36516
 7.2626   2.25451
 7.2524   2.36167
 7.2423   2.48534
 7.2322   2.45550
 7.2221   2.40038
 7.2120   2.36905
 7.2020   2.39029
 7.1921   2.43511
 7.1821   2.55756
 7.1722   2.55376
 7.1623   2.47976
 7.1524   2.50515
 7.1425   2.60129
 7.1327   2.68096
 7.1229   2.70692
 7.1131   2.70722
 7.1034   2.68287
 7.0937   2.62968
 7.0840   2.72366
 7.0743   2.83994
 7.0647   2.77098
 7.0551   2.72226
 7.0455   2.83809
 7.0359   2.86256
 7.0264   2.76720
 7.0169   2.76220
 7.0074   2.82057
 6.9979   2.89136
 6.9885   2.91146
 6.9791   2.81185
 6.9697   2.69394
 6.9604   2.81765
 6.9510   2.94316
 6.9417   2.88019
 6.9324   2.89121
 6.9232   2.92082
 6.9140   2.99012
 6.9047   3.05459
 6.8956   3.10155
 6.8864   3.17229
 6.8773   3.19040
 6.8682   3.22328
 6.8591   3.25585
 6.8500   3.18216
 6.8410   3.10741
 6.8320   3.24199
 6.8230   3.35037
 6.8140   3.28656
 6.8051   3.38167
 6.7962   3.47360
 6.7873   3.49862
 6.7784   3.48549
 6.7695   3.48691
 6.7607   3.43817
 6.7519   3.41728
 6.7431   3.46123
 6.7344   3.62930
 6.7256   3.61043
 6.7169   3.55347
 6.7082   3.61805
 6.6996   3.65635
 6.6909   3.74145
 6.6823   3.72713
 6.6737   3.62504
 6.6651   3.68578
 6.6566   3.73133
 6.6480   3.79600
 6.6395   3.95020
 6.6310   3.90628
 6.6226   3.81933
 6.6141   3.80688
 6.6057   3.84998
 6.5973   3.94211
 6.5889   3.98068
 6.5805   4.05131
 6.5722   4.09488
 6.5639   4.05261
 6.5556   3.98830
 6.5473   4.01387
 6.5390   4.09355
 6.5308   4.27336
 6.5226   4.38841
 6.5144   4.29214
 6.5062   4.32766
 6.4981   4.43582
 6.4900   4.39358
 6.4818   4.42822
 6.4737   4.43242
 6.4657   4.28970
 6.4576   4.26055
 6.4496   4.33828
 6.4416   4.36656
 6.4336   4.38720
 6.4256   4.47512
 6.4177   4.54462
 6.4097   4.47038
 6.4018   4.40214
 6.3939   4.35237
 6.3860   4.31860
 6.3782   4.37350
 6.3704   4.30007
 6.3625   4.22400
 6.3547   4.20325
 6.3470   4.35083
 6.3392   4.31474
 6.3315   4.19850
 6.3237   4.14627
 6.3160   4.09434
 6.3083   4.10343
 6.3007   4.04240
 6.2930   3.98467
 6.2854   3.94266
 6.2778   3.85803
 6.2702   3.82570
 6.2626   3.82253
 6.2551   3.79686
 6.2476   3.79888
 6.2400   3.75618
 6.2325   3.65672
 6.2251   3.67356
 6.2176   3.77405
 6.2101   3.75206
 6.2027   3.71774
 6.1953   3.65685
 6.1879   3.67437
 6.1805   3.73376
 6.1732   3.67557
 6.1658   3.72773
 6.1585   3.81812
 6.1512   3.79228
 6.1439   3.78247
 6.1367   3.81199
 6.1294   3.72923
 6.1222   3.75367
 6.1149   3.89026
 6.1077   3.96195
 6.1006   4.00600
 6.0934   4.06520
 6.0862   4.12822
 6.0791   4.08115
 6.0720   4.14254
 6.0649   4.27507
 6.0578   4.42489
 6.0507   4.61093
 6.0437   4.45314
 6.0366   4.34186
 6.0296   4.39907
 6.0226   4.38605
 6.0156   4.39780
 6.0087   4.46256
 6.0017   4.56555
 5.9948   4.70972
 5.9878   4.84249
 5.9809   4.76604
 5.9740   4.93255
 5.9672   5.08101
 5.9603   5.00303
 5.9535   5.05135
 5.9466   5.16991
 5.9398   5.37647
 5.9330   5.39088
 5.9262   5.27440
 5.9195   5.23813
 5.9127   5.31397
 5.9060   5.34329
 5.8993   5.47130
 5.8926   5.57119
 5.8859   5.66356
 5.8792   5.62371
 5.8726   5.44604
 5.8659   5.44335
 5.8593   5.46955
 5.8527   5.46573
 5.8461   5.41329
 5.8395   5.51603
 5.8329   5.53114
 5.8264   5.53796
 5.8198   5.61065
 5.8133   5.62702
 5.8068   5.63681
 5.8003   5.59247
 5.7938   5.51249
 5.7874   5.52488
 5.7809   5.55806
 5.7745   5.65982
 5.7680   5.80911
 5.7616   5.62286
 5.7552   5.54887
 5.7489   5.60847
 5.7425   5.61604
 5.7361   5.65061
 5.7298   5.64885
 5.7235   5.72957
 5.7172   5.81622
 5.7109   5.73178
 5.7046   5.66638
 5.6983   5.68800
 5.6921   5.67176
 5.6858   5.68903
 5.6796   5.81791
 5.6734   5.78400
 5.6672   5.63135
 5.6610   5.69288
 5.6548   5.84686
 5.6487   5.86966
 5.6425   5.88649
 5.6364   5.85959
 5.6303   5.84142
 5.6242   5.82336
 5.6181   5.86036
 5.6120   5.90337
 5.6059   6.01523
 5.5999   6.06382
 5.5938   6.02320
 5.5878   6.01892
 5.5818   6.10118
 5.5758   6.17113
 5.5698   6.12899
 5.5638   6.21184
 5.5578   6.34659
 5.5519   6.41488
 5.5460   6.42499
 5.5400   6.50222
 5.5341   6.58822
 5.5282   6.68824
 5.5223   6.72871
 5.5164   6.73761
 5.5106   6.71939
 5.5047   6.75605
 5.4989   6.84324
 5.4931   6.88075
 5.4873   6.88916
 5.4815   6.92880
 5.4757   7.00543
 5.4699   7.13257
 5.4641   7.16553
 5.4584   7.17444
 5.4527   7.19275
 5.4469   7.12015
 5.4412   7.11282
 5.4355   7.22476
 5.4298   7.21779
 5.4241   7.17860
 5.4185   7.12400
 5.4128   7.04257
 5.4072   6.99766
 5.4015   6.94237
 5.3959   6.90915
 5.3903   6.76003
 5.3847   6.64890
 5.3791   6.64025
 5.3735   6.54022
 5.3680   6.38722
 5.3624   6.35637
 5.3569   6.29351
 5.3514   6.21940
 5.3458   6.12539
 5.3403   6.11408
 5.3348   6.14236
 5.3294   6.12633
 5.3239   6.17889
 5.3184   6.18949
 5.3130   6.14782
 5.3075   6.23761
 5.3021   6.40640
 5.2967   6.55579
 5.2913   6.64562
 5.2859   6.71485
 5.2805   6.86826
 5.2751   7.01964
 5.2698   7.17940
 5.2644   7.33476
 5.2591   7.42578
 5.2538   7.63600
 5.2485   7.99904
 5.2431   8.24658
 5.2378   8.38209
 5.2326   8.58307
 5.2273   8.83094
 5.2220   9.04973
 5.2168   9.28918
 5.2115   9.47540
 5.2063   9.62618
 5.2011   9.80624
 5.1959   9.94097
 5.1907  10.01470
 5.1855  10.10970
 5.1803  10.25630
 5.1751  10.35150
 5.1700  10.41890
 5.1648  10.50640
 5.1597  10.59010
 5.1545  10.64320
 5.1494  10.77000
 5.1443  10.87560
 5.1392  10.96950
 5.1341  10.98000
 5.1291  10.98640
 5.1240  10.98990
 5.1189  10.98130
 5.1139  11.08600
 5.1088  11.23170
 5.1038  11.21880
 5.0988  11.14260
 5.0938  11.14240
 5.0888  11.07790
 5.0838  11.06230
 5.0788  11.09190
 5.0738  11.06540
 5.0689  11.01020
 5.0639  10.94340
 5.0590  10.85780
 5.0541  10.88050
 5.0491  11.01490
 5.0442  10.98140
 5.0393  10.92190
 5.0344  10.90960
 5.0296  11.01320
 5.0247  11.07770
 5.0198  10.98920
 5.0150  10.93870
 5.0101  11.00390
 5.0053  11.16270
 5.0004  11.20640
 4.9956  11.20140
 4.9908  11.19850
 4.9860  11.22830
 4.9812  11.35420
 4.9765  11.42760
 4.9717  11.51130
 4.9669  11.63440
 4.9622  11.63390
 4.9574  11.71070
 4.9527  11.96720
 4.9480  12.24940
 4.9432  12.41440
 4.9385  12.61820
 4.9338  12.79390
 4.9291  13.10070
 4.9245  13.47240
 4.9198  13.85720
 4.9151  14.23050
 4.9105  14.60600
 4.9058  14.94660
 4.9012  15.16210
 4.8966  15.39800
 4.8919  15.67690
 4.8873  15.91720
 4.8827  16.23960
 4.8781  16.53140
 4.8736  16.75890
 4.8690  16.95820
 4.8644  17.20120
 4.8599  17.44200
 4.8553  17.66570
 4.8508  17.86350
 4.8462  18.05960
 4.8417  18.19750
 4.8372  18.33990
 4.8327  18.54920
 4.8282  18.64980
 4.8237  18.71430
 4.8192  18.94480
 4.8147  19.17970
 4.8103  19.26410
 4.8058  19.37090
 4.8014  19.46140
 4.7969  19.58450
 4.7925  19.70290
 4.7881  19.82360
 4.7836  19.98300
 4.7792  20.00100
 4.7748  20.03980
 4.7704  20.21840
 4.7660  20.33390
 4.7617  20.44620
 4.7573  20.54300
 4.7530  20.62900
 4.7486  20.67370
 4.7443  20.80940
 4.7399  21.00560
 4.7356  21.09070
 4.7313  21.14270
 4.7270  21.22630
 4.7226  21.31240
 4.7184  21.36250
 4.7141  21.44740
 4.7098  21.51260
 4.7055  21.49610
 4.7012  21.59080
 4.6970  21.70670
 4.6927  21.79890
 4.6885  21.84330
 4.6842  21.97090
 4.6800  22.14490
 4.6758  22.24370
 4.6716  22.23100
 4.6674  22.29660
 4.6632  22.40260
 4.6590  22.47420
 4.6548  22.57530
 4.6506  22.65270
 4.6465  22.79070
 4.6423  22.94020
 4.6382  23.04920
 4.6340  23.14830
 4.6299  23.32660
 4.6258  23.44060
 4.6216  23.66050
 4.6175  24.00620
 4.6134  24.06840
 4.6093  24.03720
 4.6052  24.19360
 4.6011  24.50380
 4.5971  24.73830
 4.5930  24.87120
 4.5889  24.99740
 4.5849  25.09030
 4.5808  25.14600
 4.5768  25.28970
 4.5727  25.52300
 4.5687  25.69800
 4.5647  25.78450
 4.5607  25.93440
 4.5567  26.17280
 4.5526  26.34690
 4.5487  26.38650
 4.5447  26.47880
 4.5407  26.56670
 4.5367  26.58380
 4.5328  26.80290
 4.5288  26.98060
 4.5248  27.13990
 4.5209  27.33090
 4.5170  27.42650
 4.5130  27.46980
 4.5091  27.57840
 4.5052  27.63520
 4.5013  27.71390
 4.4974  27.86980
 4.4935  27.99050
 4.4896  28.11420
 4.4857  28.33730
 4.4818  28.41280
 4.4779  28.46710
 4.4741  28.55690
 4.4702  28.47430
 4.4664  28.53100
 4.4625  28.73310
 4.4587  28.87760
 4.4549  28.87090
 4.4510  28.88990
 4.4472  28.88040
 4.4434  28.86280
 4.4396  28.94460
 4.4358  28.97350
 4.4320  28.96490
 4.4282  29.07110
 4.4245  29.08440
 4.4207  29.04420
 4.4169  29.14330
 4.4132  29.16790
 4.4094  29.22490
 4.4057  29.34690
 4.4019  29.45530
 4.3982  29.52260
 4.3945  29.60240
 4.3907  29.77100
 4.3870  29.96570
 4.3833  30.07480
 4.3796  30.21200
 4.3759  30.43870
 4.3722  30.71100
 4.3685  31.00400
 4.3649  31.26080
 4.3612  31.38240
 4.3575  31.55770
 4.3539  31.80220
 4.3502  32.06030
 4.3466  32.27400
 4.3429  32.49400
 4.3393  32.69710
 4.3357  32.86210
 4.3320  33.01840
 4.3284  33.26360
 4.3248  33.46640
 4.3212  33.61720
 4.3176  33.79040
 4.3140  33.94780
 4.3105  34.13390
 4.3069  34.38580
 4.3033  34.63000
 4.2997  34.75300
 4.2962  34.81840
 4.2926  35.07390
 4.2890  35.29820
 4.2855  35.39530
 4.2820  35.58440
 4.2784  35.75190
 4.2749  35.86160
 4.2714  35.93770
 4.2679  36.03580
 4.2644  36.06970
 4.2609  36.08270
 4.2574  36.14410
 4.2539  36.36880
 4.2504  36.59480
 4.2469  36.80180
 4.2434  36.96270
 4.2400  36.98230
 4.2365  36.97890
 4.2330  37.09450
 4.2296  37.22620
 4.2261  37.24530
 4.2227  37.28670
 4.2193  37.27230
 4.2158  37.23970
 4.2124  37.24770
 4.2090  37.16330
 4.2056  37.15840
 4.2022  37.23880
 4.1988  37.26960
 4.1954  37.31800
 4.1920  37.34480
 4.1886  37.39250
 4.1852  37.43340
 4.1818  37.55730
 4.1785  37.61940
 4.1751  37.69820
 4.1717  37.77310
 4.1684  37.83050
 4.1650  37.92020
 4.1617  38.00090
 4.1584  38.04580
 4.1550  38.23070
 4.1517  38.29470
 4.1484  38.27630
 4.1451  38.31350
 4.1418  38.40520
 4.1384  38.43170
 4.1351  38.48990
 4.1319  38.51260
 4.1286  38.58150
 4.1253  38.62030
 4.1220  38.69640
 4.1187  38.80400
 4.1155  38.85770
 4.1122  38.91920
 4.1089  38.89430
 4.1057  38.88030
 4.1024  38.91510
 4.0992  38.95400
 4.0959  39.05320
 4.0927  39.16890
 4.0895  39.21750
 4.0863  39.23610
 4.0830  39.38090
 4.0798  39.52510
 4.0766  39.40370
 4.0734  39.34650
 4.0702  39.45410
 4.0670  39.51120
 4.0639  39.55900
 4.0607  39.60380
 4.0575  39.62640
 4.0543  39.62720
 4.0511  39.73720
 4.0480  39.67460
 4.0448  39.65610
 4.0417  39.73540
 4.0385  39.75520
 4.0354  39.73800
 4.0323  39.77380
 4.0291  39.87610
 4.0260  39.98650
 4.0229  39.87060
 4.0197  39.85080
 4.0166  39.99560
 4.0135  39.93470
 4.0104  39.90140
 4.0073  39.97600
 4.0042  39.95320
 4.0011  39.84890
 3.9981  39.85800
 3.9950  39.94590
 3.9919  39.98270
 3.9888  40.02030
 3.9857  40.01830
 3.9827  40.00890
 3.9796  40.10780
 3.9766  40.17390
 3.9735  40.16640
 3.9705  39.98680
 3.9675  39.93020
 3.9644  40.03970
 3.9614  40.04750
 3.9584  39.99850
 3.9554  40.01880
 3.9523  40.07530
 3.9493  40.10870
 3.9463  40.21160
 3.9433  40.13240
 3.9403  40.08400
 3.9373  40.11480
 3.9343  40.11450
 3.9314  40.16630
 3.9284  40.28820
 3.9254  40.32520
 3.9224  40.29760
 3.9195  40.22260
 3.9165  40.20670
 3.9136  40.30860
 3.9106  40.40050
 3.9077  40.32090
 3.9047  40.30460
 3.9018  40.33580
 3.8988  40.38030
 3.8959  40.38410
 3.8930  40.37970
 3.8901  40.38780
 3.8872  40.30990
 3.8842  40.24080
 3.8813  40.33450
 3.8784  40.48980
 3.8755  40.52760
 3.8726  40.54210
 3.8697  40.65640
 3.8669  40.76590
 3.8640  40.77060
 3.8611  40.68940
 3.8582  40.69990
 3.8554  40.63080
 3.8525  40.55770
 3.8496  40.50400
 3.8468  40.55120
 3.8439  40.63360
 3.8411  40.72000
 3.8382  40.72420
 3.8354  40.78910
 3.8326  40.82130
 3.8297  40.80100
 3.8269  40.85090
 3.8241  40.89820
 3.8213  40.86950
 3.8185  40.86080
 3.8157  40.82420
 3.8128  40.83740
 3.8100  40.88680
 3.8072  40.91580
 3.8045  40.83630
 3.8017  40.88830
 3.7989  40.92220
 3.7961  40.93250
 3.7933  41.02100
 3.7906  40.96880
 3.7878  40.80740
 3.7850  40.85850
 3.7822  40.85450
 3.7795  40.80100
 3.7767  40.84500
 3.7740  40.87970
 3.7713  40.76390
 3.7685  40.59660
 3.7658  40.54370
 3.7630  40.57840
 3.7603  40.68520
 3.7576  40.74190
 3.7549  40.64580
 3.7521  40.58790
 3.7494  40.70310
 3.7467  40.73670
 3.7440  40.61510
 3.7413  40.55160
 3.7386  40.63620
 3.7359  40.60240
 3.7332  40.62580
 3.7306  40.67860
 3.7279  40.54520
 3.7252  40.51290
 3.7225  40.49850
 3.7199  40.33750
 3.7172  40.36260
 3.7145  40.54960
 3.7119  40.60420
 3.7092  40.60810
 3.7066  40.70670
 3.7039  40.80600
 3.7013  40.75020
 3.6986  40.66840
 3.6960  40.69490
 3.6934  40.56670
 3.6907  40.49250
 3.6881  40.68770
 3.6855  40.83720
 3.6829  40.82540
 3.6803  40.74330
 3.6776  40.57720
 3.6750  40.58350
 3.6724  40.62630
 3.6698  40.62620
 3.6672  40.63170
 3.6646  40.64380
 3.6620  40.69850
 3.6595  40.69800
 3.6569  40.55300
 3.6543  40.44670
 3.6517  40.49760
 3.6492  40.67700
 3.6466  40.78040
 3.6440  40.74700
 3.6415  40.61360
 3.6389  40.53030
 3.6364  40.51000
 3.6338  40.45250
 3.6313  40.35640
 3.6287  40.52050
 3.6262  40.65530
 3.6237  40.58240
 3.6211  40.51940
 3.6186  40.39910
 3.6161  40.39490
 3.6136  40.41990
 3.6111  40.41720
 3.6085  40.43340
 3.6060  40.45040
 3.6035  40.41350
 3.6010  40.23270
 3.5985  40.15380
 3.5960  40.26920
 3.5935  40.27230
 3.5910  40.19720
 3.5886  40.06100
 3.5861  39.94740
 3.5836  39.95980
 3.5811  39.84040
 3.5787  39.80480
 3.5762  39.95960
 3.5737  39.91240
 3.5713  39.87290
 3.5688  39.91970
 3.5663  39.91730
 3.5639  39.91320
 3.5614  39.76970
 3.5590  39.64140
 3.5566  39.54640
 3.5541  39.64840
 3.5517  39.67700
 3.5493  39.64630
 3.5468  39.55910
 3.5444  39.43190
 3.5420  39.38400
 3.5396  39.28040
 3.5372  39.07060
 3.5347  39.08450
 3.5323  39.11500
 3.5299  39.00760
 3.5275  38.93140
 3.5251  38.92130
 3.5227  38.89240
 3.5203  38.75750
 3.5180  38.60200
 3.5156  38.46990
 3.5132  38.34850
 3.5108  38.16770
 3.5084  37.99190
 3.5061  37.81340
 3.5037  37.51380
 3.5013  37.40140
 3.4990  37.39330
 3.4966  37.44740
 3.4943  37.43530
 3.4919  37.35230
 3.4895  37.32690
 3.4872  37.20730
 3.4849  37.07910
 3.4825  37.03560
 3.4802  37.02450
 3.4778  36.97630
 3.4755  36.95790
 3.4732  36.90020
 3.4709  36.96830
 3.4685  37.00180
 3.4662  36.93890
 3.4639  36.98320
 3.4616  37.09130
 3.4593  37.18130
 3.4570  37.16790
 3.4547  37.07290
 3.4524  37.02710
 3.4501  36.84360
 3.4478  36.78660
 3.4455  36.77090
 3.4432  36.64780
 3.4409  36.60130
 3.4386  36.56690
 3.4364  36.51670
 3.4341  36.29920
 3.4318  36.09960
 3.4295  35.95920
 3.4273  35.79200
 3.4250  35.59980
 3.4228  35.37430
 3.4205  35.22390
 3.4182  35.09980
 3.4160  35.14840
 3.4137  35.21200
 3.4115  35.06710
 3.4093  35.02920
 3.4070  35.23580
 3.4048  35.25690
 3.4025  35.15550
 3.4003  35.19450
 3.3981  35.32530
 3.3958  35.46230
 3.3936  35.59330
 3.3914  35.59630
 3.3892  35.48820
 3.3870  35.37980
 3.3848  35.30030
 3.3826  35.01210
 3.3804  34.94140
 3.3782  34.88440
 3.3760  34.66630
 3.3738  34.69000
 3.3716  34.88810
 3.3694  35.04560
 3.3672  35.07730
 3.3650  35.34220
 3.3628  35.53220
 3.3606  35.33170
 3.3585  35.18890
 3.3563  35.39790
 3.3541  35.55970
 3.3520  35.53110
 3.3498  35.53460
 3.3476  35.62500
 3.3455  35.67420
 3.3433  35.64400
 3.3411  35.55450
 3.3390  35.47390
 3.3369  35.54120
 3.3347  35.57320
 3.3326  35.52780
 3.3304  35.61070
 3.3283  35.53230
 3.3262  35.35550
 3.3240  35.17890
 3.3219  35.10920
 3.3198  35.22440
 3.3176  35.23020
 3.3155  35.15970
 3.3134  35.20960
 3.3113  35.05150
 3.3092  35.09650
 3.3071  35.13200
 3.3049  34.92230
 3.3028  34.83640
 3.3007  34.76480
 3.2986  34.60080
 3.2965  34.63930
 3.2944  34.72410
 3.2924  34.70560
 3.2903  34.59380
 3.2882  34.35630
 3.2861  34.27990
 3.2840  34.39470
 3.2819  34.34230
 3.2799  34.15690
 3.2778  34.28020
 3.2757  34.28100
 3.2736  34.23760
 3.2716  34.16520
 3.2695  33.92160
 3.2675  33.85670
 3.2654  34.03010
 3.2634  34.03250
 3.2613  33.85720
 3.2593  33.60680
 3.2572  33.47050
 3.2552  33.44060
 3.2531  33.46140
 3.2511  33.50570
 3.2490  33.48480
 3.2470  33.34750
 3.2450  33.17850
 3.2429  33.17440
 3.2409  33.22840
 3.2389  33.03050
 3.2369  32.98770
 3.2348  33.03440
 3.2328  33.04730
 3.2308  32.94020
 3.2288  32.64330
 3.2268  32.47100
 3.2248  32.51230
 3.2228  32.63310
 3.2208  32.60630
 3.2188  32.57170
 3.2168  32.55650
 3.2148  32.38500
 3.2128  32.26350
 3.2108  32.26090
 3.2088  32.22910
 3.2068  32.25410
 3.2049  32.28610
 3.2029  32.13660
 3.2009  32.01380
 3.1989  31.80490
 3.1970  31.52990
 3.1950  31.48850
 3.1930  31.50600
 3.1911  31.42020
 3.1891  31.38880
 3.1871  31.47890
 3.1852  31.45860
 3.1832  31.26940
 3.1813  31.03560
 3.1793  31.20970
 3.1774  31.32390
 3.1754  31.19530
 3.1735  31.12160
 3.1715  30.98430
 3.1696  30.82750
 3.1677  30.70440
 3.1657  30.53240
 3.1638  30.64960
 3.1619  30.55630
 3.1599  30.40400
 3.1580  30.29100
 3.1561  30.14650
 3.1542  30.15110
 3.1523  30.24690
 3.1503  30.00990
 3.1484  29.85670
 3.1465  30.04410
 3.1446  30.01170
 3.1427  30.00850
 3.1408  29.75220
 3.1389  29.57730
 3.1370  29.66450
 3.1351  29.63220
 3.1332  29.48890
 3.1313  29.24680
 3.1294  29.16830
 3.1275  29.07850
 3.1257  28.90920
 3.1238  28.86390
 3.1219  28.92680
 3.1200  29.00500
 3.1181  28.99060
 3.1163  28.97630
 3.1144  28.88560
 3.1125  28.63230
 3.1107  28.76950
 3.1088  28.79340
 3.1069  28.59430
 3.1051  28.48730
 3.1032  28.29610
 3.1014  28.17990
 3.0995  28.07210
 3.0976  27.90500
 3.0958  27.77260
 3.0940  27.93600
 3.0921  27.99990
 3.0903  28.00990
 3.0884  27.98270
 3.0866  27.97930
 3.0848  27.81500
 3.0829  27.66750
 3.0811  27.66240
 3.0793  27.59920
 3.0774  27.56810
 3.0756  27.79420
 3.0738  27.76320
 3.0720  27.34070
 3.0701  27.37190
 3.0683  27.51660
 3.0665  27.47960
 3.0647  27.33420
 3.0629  27.43890
 3.0611  27.46420
 3.0593  27.35770
 3.0575  27.13940
 3.0557  27.09270
 3.0539  27.10890
 3.0521  27.05210
 3.0503  27.28480
 3.0485  27.51000
 3.0467  27.43790
 3.0449  27.26890
 3.0431  27.10430
 3.0413  26.95510
 3.0396  27.12080
 3.0378  27.19960
 3.0360  27.31660
 3.0342  27.33660
 3.0324  27.06540
 3.0307  26.61610
 3.0289  26.44790
 3.0271  26.68970
 3.0254  26.81510
 3.0236  26.81710
 3.0218  26.75300
 3.0201  26.66720
 3.0183  26.75150
 3.0166  26.72230
 3.0148  26.66990
 3.0130  26.63460
 3.0113  26.44040
 3.0096  26.49720
 3.0078  26.60670
 3.0061  26.45330
 3.0043  26.03150
 3.0026  25.97080
 3.0008  26.26170
 2.9991  26.25220
 2.9974  26.07330
 2.9956  25.97100
 2.9939  25.95370
 2.9922  25.98940
 2.9905  26.08590
 2.9887  26.10120
 2.9870  26.08090
 2.9853  26.15830
 2.9836  25.84390
 2.9819  25.60830
 2.9802  25.53110
 2.9784  25.53470
 2.9767  25.62880
 2.9750  25.60040
 2.9733  25.54580
 2.9716  25.51500
 2.9699  25.56890
 2.9682  25.64720
 2.9665  25.41220
 2.9648  25.70630
 2.9631  25.90620
 2.9614  25.86150
 2.9597  25.59140
 2.9581  25.20670
 2.9564  24.85810
 2.9547  25.08790
 2.9530  25.23780
 2.9513  25.40930
 2.9496  25.48630
 2.9480  25.29010
 2.9463  25.26370
 2.9446  25.30630
 2.9429  25.03050
 2.9413  24.98560
 2.9396  25.18750
 2.9379  24.97450
 2.9363  24.76870
 2.9346  24.81360
 2.9330  24.71740
 2.9313  24.54970
 2.9296  24.79190
 2.9280  25.04250
 2.9263  24.85280
 2.9247  24.90070
 2.9230  25.39870
 2.9214  25.72090
 2.9197  25.49890
 2.9181  25.24060
 2.9165  25.25000
 2.9148  25.31660
 2.9132  25.18560
 2.9116  25.30230
 2.9099  25.26740
 2.9083  24.97950
 2.9067  25.09860
 2.9050  25.51230
 2.9034  26.00700
 2.9018  25.75630
 2.9002  25.24210
 2.8985  25.22820
 2.8969  25.27080
 2.8953  25.37140
 2.8937  25.69660
 2.8921  25.73930
 2.8905  25.67090
 2.8888  25.68730
 2.8872  25.78510
 2.8856  25.56050
 2.8840  25.81450
 2.8824  26.08550
 2.8808  25.88030
 2.8792  25.47560
 2.8776  25.52400
 2.8760  25.75160
 2.8744  25.91550
 2.8728  26.08400
 2.8712  26.08340
 2.8697  25.79790
 2.8681  25.66600
 2.8665  25.67860
 2.8649  25.69030
 2.8633  25.85870
 2.8617  25.95090
 2.8602  26.08640
 2.8586  26.27590
 2.8570  26.16630
 2.8554  26.17730
 2.8539  26.11670
 2.8523  26.26150
 2.8507  26.46790
 2.8492  26.01750
 2.8476  25.68300
 2.8460  26.12960
 2.8445  26.34600
 2.8429  26.35240
 2.8413  26.31020
 2.8398  26.23760
 2.8382  26.11670
 2.8367  26.17240
 2.8351  26.36650
 2.8336  26.08750
 2.8320  26.06480
 2.8305  26.39600
 2.8289  26.29800
 2.8274  26.23960
 2.8259  26.56800
 2.8243  26.88090
 2.8228  26.93980
 2.8213  26.97120
 2.8197  26.93600
 2.8182  26.47940
 2.8167  26.28470
 2.8151  26.57420
 2.8136  26.83580
 2.8121  26.50070
 2.8106  26.17900
 2.8090  26.43500
 2.8075  26.65430
 2.8060  27.06180
 2.8045  27.21920
 2.8030  27.31730
 2.8014  27.85810
 2.7999  27.70070
 2.7984  26.85970
 2.7969  26.90320
 2.7954  26.77910
 2.7939  27.24040
 2.7924  28.10640
 2.7909  27.93360
 2.7894  28.02800
 2.7879  28.44820
 2.7864  28.21760
 2.7849  27.72130
 2.7834  27.91710
 2.7819  28.41100
 2.7804  28.50660
 2.7789  28.27420
 2.7774  28.74050
 2.7759  29.36700
 2.7745  29.57440
 2.7730  29.23990
 2.7715  29.29840
 2.7700  29.34300
 2.7685  29.72550
 2.7671  29.84990
 2.7656  30.01210
 2.7641  30.33970
 2.7626  30.29260
 2.7612  29.95450
 2.7597  29.82410
 2.7582  30.24390
 2.7568  31.00950
 2.7553  31.38890
 2.7538  30.91430
 2.7524  30.79560
 2.7509  31.06590
 2.7494  31.44920
 2.7480  31.84140
 2.7465  31.90610
 2.7451  32.11540
 2.7436  32.82000
 2.7422  33.56460
 2.7407  33.80240
 2.7393  33.39270
 2.7378  33.08760
 2.7364  33.66270
 2.7350  33.95190
 2.7335  34.02880
 2.7321  34.62700
 2.7306  35.25610
 2.7292  35.53250
 2.7278  35.75050
 2.7263  36.31380
 2.7249  36.84760
 2.7235  37.20630
 2.7220  38.28220
 2.7206  39.38450
 2.7192  38.96820
 2.7178  39.03300
 2.7163  39.43560
 2.7149  39.88530
 2.7135  40.32000
 2.7121  41.11520
 2.7106  41.76940
 2.7092  41.85660
 2.7078  41.89980
 2.7064  42.03500
 2.7050  42.34020
 2.7036  42.86350
 2.7022  43.28660
 2.7008  43.28070
 2.6994  43.68310
 2.6980  44.00790
 2.6965  44.43570
 2.6951  45.48150
 2.6938  45.84540
 2.6923  45.31260
 2.6910  45.01540
 2.6896  45.13810
 2.6882  45.48300
 2.6868  45.76300
 2.6854  45.98830
 2.6840  46.21850
 2.6826  46.17980
 2.6812  46.44410
 2.6798  46.85890
 2.6784  47.10960
 2.6771  47.52430
 2.6757  47.28030
 2.6743  46.91220
 2.6729  47.08100
 2.6715  48.20200
 2.6702  48.25140
 2.6688  47.73030
 2.6674  48.46300
 2.6660  48.47830
 2.6647  47.90610
 2.6633  47.24560
 2.6619  47.43260
 2.6606  47.58150
 2.6592  47.41500
 2.6578  47.31570
 2.6565  47.51460
 2.6551  47.41540
 2.6538  47.65240
 2.6524  47.94270
 2.6511  47.73510
 2.6497  47.35030
 2.6484  47.51800
 2.6470  47.90640
 2.6456  48.01080
 2.6443  47.91240
 2.6429  47.99910
 2.6416  47.57180
 2.6403  47.41130
 2.6389  47.62370
 2.6376  47.75860
 2.6362  47.60150
 2.6349  47.94100
 2.6336  47.92550
 2.6322  47.95430
 2.6309  48.77920
 2.6296  48.37820
 2.6282  48.13650
 2.6269  48.37170
 2.6256  47.86710
 2.6242  47.74230
 2.6229  47.80210
 2.6216  48.09080
 2.6203  48.16690
 2.6189  48.16850
 2.6176  48.90170
 2.6163  48.67160
 2.6150  48.02340
 2.6136  48.15930
 2.6123  48.06530
 2.6110  48.05540
 2.6097  48.31360
 2.6084  48.43900
 2.6071  48.56010
 2.6058  48.81900
 2.6044  48.74000
 2.6031  48.40820
 2.6018  48.19540
 2.6005  48.03380
 2.5992  47.74790
 2.5979  47.85200
 2.5966  48.78200
 2.5953  49.74090
 2.5940  48.89660
 2.5927  47.89680
 2.5914  47.81920
 2.5901  48.20860
 2.5888  48.33700
 2.5876  48.51750
 2.5863  48.29540
 2.5850  48.37160
 2.5837  48.39740
 2.5824  47.91710
 2.5811  48.12730
 2.5798  48.12820
 2.5785  48.28240
 2.5773  48.50800
 2.5760  48.39680
 2.5747  48.32410
 2.5734  48.63050
 2.5722  48.08830
 2.5709  47.86130
 2.5696  48.00580
 2.5683  47.77540
 2.5671  47.83440
 2.5658  48.08750
 2.5645  48.47460
 2.5633  48.64330
 2.5620  48.71050
 2.5607  48.34540
 2.5595  47.86720
 2.5582  47.39860
 2.5569  47.39530
 2.5557  47.53100
 2.5544  47.70160
 2.5532  47.90220
 2.5519  47.72000
 2.5507  47.62090
 2.5494  47.45330
 2.5481  47.60450
 2.5469  47.66690
 2.5456  47.63500
 2.5444  47.74100
 2.5431  48.08320
 2.5419  47.99450
 2.5406  47.96450
 2.5394  47.76370
 2.5382  47.65660
 2.5369  47.63450
 2.5357  47.47120
 2.5344  47.64690
 2.5332  47.76040
 2.5320  47.69430
 2.5307  47.49630
 2.5295  47.42510
 2.5283  47.48530
 2.5270  48.10550
 2.5258  48.10100
 2.5246  47.73190
 2.5233  47.57920
 2.5221  47.55100
 2.5209  47.63230
 2.5197  47.61540
 2.5184  47.28510
 2.5172  47.18250
 2.5160  47.49310
 2.5148  47.53580
 2.5136  47.35450
 2.5123  47.49860
 2.5111  47.54150
 2.5099  47.38080
 2.5087  47.47820
 2.5075  47.77440
 2.5063  47.98050
 2.5051  47.75900
 2.5038  47.77860
 2.5026  47.70180
 2.5014  47.55910
 2.5002  47.51580
 2.4990  47.72890
 2.4978  47.97510
 2.4966  47.87450
 2.4954  47.58020
 2.4942  47.67270
 2.4930  47.62560
 2.4918  47.44810
 2.4906  47.14250
 2.4894  47.36850
 2.4882  47.64740
 2.4870  47.65510
 2.4858  47.87870
 2.4846  47.94910
 2.4835  47.51440
 2.4823  47.16920
 2.4811  47.48210
 2.4799  47.68560
 2.4787  47.55350
 2.4775  47.52770
 2.4764  47.67400
 2.4752  47.84510
 2.4740  47.78590
 2.4728  47.68770
 2.4716  47.71380
 2.4705  47.47520
 2.4693  47.33320
 2.4681  47.37610
 2.4669  47.50600
 2.4657  47.36260
 2.4646  47.39280
 2.4634  47.56130
 2.4622  47.75310
 2.4611  47.79590
 2.4599  47.78400
 2.4587  47.56150
 2.4576  47.67340
 2.4564  47.90310
 2.4552  47.88200
 2.4541  47.84840
 2.4529  47.90280
 2.4518  47.69750
 2.4506  47.44290
 2.4494  47.49270
 2.4483  47.51300
 2.4471  47.55850
 2.4460  47.82320
 2.4448  47.66650
 2.4437  47.30570
 2.4425  47.04910
 2.4414  47.03240
 2.4402  47.59170
 2.4391  47.73900
 2.4379  47.54860
 2.4368  47.50480
 2.4356  47.55920
 2.4345  47.43520
 2.4333  47.25120
 2.4322  47.25880
 2.4311  47.62220
 2.4299  48.20770
 2.4288  47.92060
 2.4276  47.84440
 2.4265  48.08270
 2.4254  47.56740
 2.4242  47.34390
 2.4231  47.34280
 2.4220  47.17560
 2.4209  47.33920
 2.4197  47.54210
 2.4186  47.59540
 2.4175  47.53500
 2.4163  47.72220
 2.4152  47.92140
 2.4141  47.70780
 2.4130  47.60000
 2.4118  47.23130
 2.4107  46.97990
 2.4096  47.12870
 2.4085  47.45340
 2.4074  47.48790
 2.4063  47.39270
 2.4051  47.66240
 2.4040  47.86250
 2.4029  47.71170
 2.4018  47.60540
 2.4007  47.58300
 2.3996  47.58670
 2.3985  47.61950
 2.3973  47.64700
 2.3962  47.13020
 2.3951  46.91170
 2.3940  47.32620
 2.3929  47.35450
 2.3918  47.39220
 2.3907  47.66610
 2.3896  47.84020
 2.3885  47.64330
 2.3874  47.31110
 2.3863  47.00880
 2.3852  47.06230
 2.3841  47.27130
 2.3830  47.09060
 2.3819  47.14080
 2.3808  47.46030
 2.3798  47.26830
 2.3786  46.80630
 2.3776  46.93890
 2.3765  47.60000
 2.3754  47.76790
 2.3743  47.67980
 2.3732  47.69000
 2.3721  47.94120
 2.3710  47.77830
 2.3700  47.58980
 2.3689  47.70860
 2.3678  47.55890
 2.3667  47.15410
 2.3656  46.68070
 2.3645  46.76700
 2.3635  47.13000
 2.3624  47.29140
 2.3613  47.19660
 2.3603  47.06060
 2.3592  46.92550
 2.3581  47.20340
 2.3570  47.63420
 2.3560  47.47000
 2.3549  47.00300
 2.3538  46.33480
 2.3527  46.35930
 2.3517  46.58530
 2.3506  47.19190
 2.3495  47.50000
 2.3485  47.33800
 2.3474  46.97020
 2.3464  46.62530
 2.3453  46.51790
 2.3442  46.56830
 2.3432  46.64650
 2.3421  46.87900
 2.3411  47.27740
 2.3400  47.03290
 2.3390  46.76800
 2.3379  46.70300
 2.3369  46.53130
 2.3358  46.64620
 2.3347  46.74160
 2.3337  46.69360
 2.3326  46.76920
 2.3316  46.97210
 2.3306  46.97700
 2.3295  46.70440
 2.3285  46.86440
 2.3274  47.02540
 2.3264  47.12150
 2.3253  46.82620
 2.3243  46.74330
 2.3232  46.93160
 2.3222  47.11170
 2.3212  47.02680
 2.3201  46.79250
 2.3191  46.96440
 2.3180  47.11900
 2.3170  47.03580
 2.3160  47.00910
 2.3149  46.73970
 2.3139  46.85940
 2.3129  47.05650
 2.3118  47.20270
 2.3108  47.04910
 2.3098  46.80630
 2.3088  46.40730
 2.3077  45.91970
 2.3067  46.06920
 2.3057  46.75010
 2.3047  47.18120
 2.3036  47.09260
 2.3026  46.77170
 2.3016  46.87960
 2.3006  46.93250
 2.2995  47.18290
 2.2985  47.24920
 2.2975  47.08420
 2.2965  47.02240
 2.2955  47.03280
 2.2944  46.90310
 2.2934  46.61530
 2.2924  46.58500
 2.2914  46.97010
 2.2904  46.80210
 2.2894  46.46460
 2.2884  46.47520
 2.2874  46.61380
 2.2864  46.53810
 2.2854  46.54220
 2.2843  46.85690
 2.2833  46.53610
 2.2823  46.04860
 2.2813  46.18070
 2.2803  46.23920
 2.2793  46.31300
 2.2783  46.18220
 2.2773  46.24150
 2.2763  46.18010
 2.2753  46.12720
 2.2743  46.33540
 2.2733  46.03600
 2.2723  45.73220
 2.2713  45.85580
 2.2703  46.19050
 2.2694  46.44180
 2.2684  46.22330
 2.2674  46.14170
 2.2664  46.11810
 2.2654  46.31970
 2.2644  46.46890
 2.2634  46.07110
 2.2624  46.03690
 2.2614  46.46430
 2.2605  46.25100
 2.2595  46.10220
 2.2585  46.19060
 2.2575  46.34380
 2.2565  46.31900
 2.2555  46.02570
 2.2546  46.05210
 2.2536  45.82460
 2.2526  46.20580
 2.2516  46.42150
 2.2506  46.16310
 2.2497  46.21090
 2.2487  45.92730
 2.2477  45.72500
 2.2467  45.93290
 2.2458  46.34130
 2.2448  46.24930
 2.2438  45.83300
 2.2428  45.70190
 2.2419  45.59040
 2.2409  45.57670
 2.2399  45.45110
 2.2390  45.34350
 2.2380  45.85660
 2.2370  45.75150
 2.2361  45.65870
 2.2351  45.43700
 2.2342  44.89620
 2.2332  45.73570
 2.2322  45.69500
 2.2313  44.61390
 2.2303  44.71520
 2.2294  45.48460
 2.2284  46.20480
 2.2274  46.13780
 2.2265  45.66010
 2.2255  45.33800
 2.2246  45.30690
 2.2236  45.50200
 2.2227  45.67620
 2.2217  46.03710
 2.2208  46.06130
 2.2198  45.75140
 2.2189  45.68720
 2.2179  45.10820
 2.2170  45.34000
 2.2160  45.59930
 2.2151  45.48630
 2.2141  45.79140
 2.2132  45.32890
 2.2122  45.09290
 2.2113  45.69110
 2.2103  45.62310
 2.2094  45.45150
 2.2085  45.39400
 2.2075  45.80930
 2.2066  45.71050
 2.2056  46.13420
 2.2047  46.04700
 2.2038  45.23630
 2.2028  45.19250
 2.2019  44.97840
 2.2010  44.90590
 2.2000  45.32010
 2.1991  45.43910
 2.1982  45.21050
 2.1972  45.24420
 2.1963  45.40590
 2.1954  45.50640
 2.1944  45.45600
 2.1935  45.60520
 2.1926  45.73010
 2.1917  45.29960
 2.1907  45.24820
 2.1898  45.00020
 2.1889  45.07670
 2.1880  45.48140
 2.1870  45.22130
 2.1861  44.87870
 2.1852  44.96780
 2.1843  44.91190
 2.1833  44.66450
 2.1824  44.67350
 2.1815  45.10960
 2.1806  45.33660
 2.1797  44.39300
 2.1788  44.60440
 2.1778  45.26810
 2.1769  45.27610
 2.1760  44.98080
 2.1751  44.99440
 2.1742  45.24410
 2.1733  45.30800
 2.1724  45.13080
 2.1715  44.85920
 2.1706  45.16190
 2.1696  45.67530
 2.1687  45.41420
 2.1678  45.05040
 2.1669  45.25170
 2.1660  45.27300
 2.1651  44.96460
 2.1642  44.53430
 2.1633  44.59730
 2.1624  44.63930
 2.1615  45.15220
 2.1606  45.51230
 2.1597  44.88210
 2.1588  44.55040
 2.1579  44.47840
 2.1570  44.50960
 2.1561  44.63430
 2.1552  44.61610
 2.1543  44.13690
 2.1534  43.66460
 2.1525  44.09860
 2.1517  44.74900
 2.1507  44.50500
 2.1499  44.78630
 2.1490  44.63960
 2.1481  44.24880
 2.1472  43.86250
 2.1463  44.03540
 2.1454  44.31640
 2.1445  44.41140
 2.1436  44.47810
 2.1428  44.46470
 2.1419  44.34140
 2.1410  44.63050
 2.1401  44.42670
 2.1392  44.21970
 2.1383  44.17950
 2.1375  44.24070
 2.1366  44.62770
 2.1357  45.05250
 2.1348  44.51980
 2.1339  44.28790
 2.1331  44.70830
 2.1322  44.38480
 2.1313  43.48940
 2.1304  43.86460
 2.1296  44.49280
 2.1287  43.55920
 2.1278  42.76790
 2.1269  43.40850
 2.1261  44.16060
 2.1252  44.39680
 2.1243  44.10300
 2.1235  44.23850
 2.1226  44.29920
 2.1217  44.20660
 2.1208  44.34750
 2.1200  43.68310
 2.1191  43.49720
 2.1183  44.41760
 2.1174  45.09620
 2.1165  44.44470
 2.1157  44.02780
 2.1148  44.11530
 2.1139  44.04620
 2.1131  43.58920
 2.1122  44.12650
 2.1113  44.16150
 2.1105  44.23620
 2.1096  44.49180
 2.1088  44.51630
 2.1079  44.42550
 2.1071  44.25890
 2.1062  44.63140
 2.1054  45.20450
 2.1045  44.80260
 2.1036  43.68060
 2.1028  43.55610
 2.1019  44.70400
 2.1011  44.72860
 2.1002  43.56060
 2.0994  43.40730
 2.0985  43.92520
 2.0977  44.01590
 2.0968  43.53190
 2.0960  43.17810
 2.0951  44.40570
 2.0943  44.58340
 2.0934  44.41090
 2.0926  44.05040
 2.0918  43.86880
 2.0909  44.23090
 2.0901  43.82210
 2.0892  43.82270
 2.0884  44.15430
 2.0875  44.13240
 2.0867  43.05850
 2.0859  43.07220
 2.0850  43.52820
 2.0842  43.39460
 2.0833  42.97370
 2.0825  42.58860
 2.0817  43.87830
 2.0808  44.83760
 2.0800  44.79360
 2.0792  44.59120
 2.0783  44.86690
 2.0775  44.01760
 2.0767  43.02070
 2.0759  43.57200
 2.0750  43.49530
 2.0742  43.39720
 2.0734  44.12900
 2.0725  44.05510
 2.0717  43.88640
 2.0709  43.94140
 2.0701  44.41260
 2.0692  44.52480
 2.0684  43.93710
 2.0676  43.08960
 2.0667  43.06650
 2.0659  44.14220
 2.0651  44.00270
 2.0643  43.72740
 2.0635  43.89930
 2.0626  44.16770
 2.0618  43.64020
 2.0610  43.26580
 2.0602  43.77290
 2.0594  44.33470
 2.0585  43.68540
 2.0577  43.65630
 2.0569  43.99710
 2.0561  44.22500
 2.0553  44.57770
 2.0545  43.68000
 2.0537  42.86110
 2.0528  43.70740
 2.0520  44.40640
 2.0512  44.15810
 2.0504  43.58470
 2.0496  43.36560
 2.0488  43.37220
 2.0480  42.16840
 2.0472  42.05170
 2.0464  42.71440
 2.0456  42.35760
 2.0447  41.49250
 2.0439  42.55940
 2.0431  43.90240
 2.0423  43.20670
 2.0415  42.33920
 2.0407  42.70700
 2.0399  42.89830
 2.0391  43.34390
 2.0383  44.03360
 2.0375  43.34710
 2.0367  43.25930
 2.0359  43.31460
 2.0351  42.77260
 2.0343  42.71550
 2.0335  42.92160
 2.0327  43.30440
 2.0319  42.60990
 2.0311  41.72830
 2.0303  42.74510
 2.0295  43.92470
 2.0287  44.77660
 2.0280  43.55620
 2.0272  41.61980
 2.0264  40.54270
 2.0256  40.10750
 2.0248  41.62410
 2.0240  42.53860
 2.0232  42.02290
 2.0224  42.79630
 2.0216  43.81170
 2.0208  42.85090
 2.0200  42.62790
 2.0193  43.43060
 2.0185  43.70370
 2.0177  43.47900
 2.0169  42.62290
 2.0161  42.25430
 2.0153  42.69260
 2.0146  42.65270
 2.0138  42.04140
 2.0130  41.93470
 2.0122  41.29960
 2.0114  41.84950
 2.0107  43.83000
 2.0099  43.96140
 2.0091  43.98950
 2.0083  43.96410
 2.0075  43.98010
 2.0068  43.78930
 2.0060  43.63650
 2.0052  43.27530
 2.0044  42.17640
 2.0037  42.05910
 2.0029  41.98850
 2.0021  42.77330
 2.0013  43.53790
 2.0006  43.27420
 1.9998  42.46840
