Name: Brass plate
Type: Manmade materials
Class: Reflectance target
Subclass: 
Particle Size: Solid
Sample No.: SN: ILF-17464-2-1
Owner: JPL
Wavelength range: IR
Origin: Labsphere, P.O. Box 70, Shaker Street, North Sutton, NH 03260
(603) 927-4266
Description: Measurement made at bottom left. Field Brass 2.
Measured Oct. 30th 1997 to Nov. 2nd 1997.




Measurement: Hemispherical Reflectance
First Column: X
Second Column: Y
X Units: Wavelength (micrometers)
Y Units: Reflectence (percent)
First X Value: 15.3853
Last X Value: 2.00032
Number of X Values: 2256
Additional information: None.
 
15.3853	85.5085
15.3397	85.4712
15.2945	85.5621
15.2495	85.5684
15.2048	85.4596
15.1603	85.5504
15.1161	85.6179
15.0722	85.5128
15.0285	85.6083
14.9851	85.9287
14.9419	86.0352
14.8989	85.8431
14.8563	85.5435
14.8138	85.5034
14.7716	85.5336
14.7296	85.4753
14.6879	85.5993
14.6464	85.665
14.6052	85.537
14.5641	85.5426
14.5233	85.6135
14.4828	85.7417
14.4424	85.7058
14.4023	85.6381
14.3624	85.6169
14.3227	85.622
14.2833	85.5516
14.244	85.5792
14.205	85.5827
14.1662	85.6325
14.1276	85.6937
14.0892	85.6482
14.051	85.5725
14.0131	85.552
13.9753	85.4789
13.9377	85.506
13.9004	85.6495
13.8632	85.5961
13.8262	85.4407
13.7895	85.4062
13.7529	85.5218
13.7165	85.5754
13.6803	85.5291
13.6443	85.5235
13.6085	85.5153
13.5729	85.4981
13.5374	85.4935
13.5022	85.5204
13.4671	85.4269
13.4322	85.2721
13.3975	85.396
13.363	85.5166
13.3286	85.4575
13.2944	85.374
13.2604	85.4062
13.2266	85.4596
13.193	85.5269
13.1595	85.5927
13.1262	85.5618
13.093	85.4791
13.06	85.5184
13.0272	85.4855
12.9946	85.3675
12.9621	85.3988
12.9298	85.361
12.8976	85.3024
12.8656	85.3067
12.8337	85.1848
12.8021	85.1398
12.7705	85.2686
12.7391	85.2883
12.7079	85.2579
12.6769	85.2079
12.6459	85.1342
12.6152	85.0691
12.5845	85.0807
12.5541	85.1256
12.5238	85.0732
12.4936	85.0757
12.4635	85.048
12.4337	84.9984
12.4039	85.0477
12.3743	85.1376
12.3448	85.1461
12.3155	85.076
12.2863	85.0939
12.2573	85.2062
12.2284	85.1872
12.1996	85.1217
12.171	85.0399
12.1425	85.0047
12.1141	85.197
12.0859	85.252
12.0578	85.1487
12.0298	85.0678
12.0019	85.0838
11.9742	85.1733
11.9466	85.0726
11.9192	85.0667
11.8918	85.1528
11.8646	85.1096
11.8375	85.0081
11.8106	85.0015
11.7837	85.0738
11.757	85.0726
11.7304	85.1538
11.7039	85.2227
11.6776	85.1353
11.6513	85.1703
11.6252	85.1919
11.5992	85.2235
11.5733	85.188
11.5475	85.1862
11.5219	85.2414
11.4963	85.2359
11.4709	85.2289
11.4455	85.2068
11.4203	85.1312
11.3952	85.1009
11.3702	85.1867
11.3454	85.1818
11.3206	85.0744
11.2959	85.0173
11.2714	84.9327
11.2469	84.9352
11.2226	84.9836
11.1983	84.9758
11.1742	84.9803
11.1502	85.0406
11.1263	85.055
11.1024	85.0589
11.0787	85.0613
11.0551	85.0402
11.0316	84.9446
11.0081	84.9138
10.9848	84.9689
10.9616	84.987
10.9385	84.9522
10.9154	84.9124
10.8925	84.8416
10.8697	84.8696
10.8469	84.9163
10.8243	84.9315
10.8017	84.9206
10.7793	84.8873
10.7569	84.8712
10.7346	84.8625
10.7125	84.8335
10.6904	84.8776
10.6684	84.9185
10.6465	84.9426
10.6247	84.916
10.6029	84.9154
10.5813	84.8953
10.5597	84.8485
10.5383	84.8071
10.5169	84.8238
10.4956	84.841
10.4744	84.9191
10.4533	84.9277
10.4323	84.8586
10.4113	84.8882
10.3904	84.9217
10.3697	84.8694
10.349	84.8046
10.3284	84.7638
10.3078	84.8096
10.2874	84.9115
10.267	84.8855
10.2467	84.8333
10.2265	84.8098
10.2064	84.7828
10.1863	84.718
10.1663	84.7305
10.1464	84.7815
10.1266	84.8456
10.1069	84.9116
10.0872	84.9339
10.0676	84.8181
10.0481	84.7198
10.0287	84.7374
10.0093	84.7765
9.99005	84.9151
9.97084	84.8855
9.95169	84.7385
9.93263	84.6333
9.91364	84.6363
9.89472	84.7004
9.87587	84.6847
9.8571	84.6046
9.83839	84.623
9.81976	84.6396
9.80119	84.6557
9.78271	84.5736
9.76428	84.4842
9.74592	84.5668
9.72764	84.6618
9.70943	84.6371
9.69128	84.5247
9.6732	84.5225
9.65518	84.4893
9.63724	84.4088
9.61935	84.508
9.60155	84.6647
9.5838	84.654
9.56611	84.5226
9.5485	84.4277
9.53094	84.4793
9.51345	84.5659
9.49604	84.5807
9.47867	84.574
9.46137	84.6712
9.44414	84.7131
9.42697	84.624
9.40986	84.5956
9.39281	84.6136
9.37583	84.5071
9.35891	84.5397
9.34204	84.6565
9.32524	84.6938
9.3085	84.7517
9.29182	84.7476
9.27519	84.735
9.25863	84.7389
9.24213	84.6484
9.22568	84.6201
9.2093	84.7304
9.19297	84.7914
9.17669	84.7239
9.16048	84.7464
9.14433	84.8411
9.12823	84.8403
9.11218	84.7472
9.0962	84.723
9.08027	84.8946
9.06439	85.0513
9.04858	85.0786
9.03281	84.9836
9.0171	84.8649
9.00145	84.9142
8.98585	85.0215
8.9703	84.9935
8.9548	84.9372
8.93937	84.908
8.92398	84.9809
8.90865	85.0748
8.89337	85.0767
8.87814	85.0189
8.86296	84.9204
8.84784	84.8685
8.83277	84.8926
8.81774	84.8676
8.80277	84.9007
8.78786	84.93
8.77298	84.8739
8.75816	84.8506
8.7434	84.8479
8.72868	84.8316
8.714	84.848
8.69938	84.8664
8.68481	84.8912
8.67029	84.8252
8.65581	84.8013
8.64139	84.7918
8.62701	84.8234
8.61268	84.8657
8.5984	84.7834
8.58416	84.7963
8.56997	84.9223
8.55583	84.9541
8.54174	84.8412
8.52769	84.7622
8.51368	84.8679
8.49973	84.9047
8.48582	84.8855
8.47195	84.8481
8.45813	84.8142
8.44436	84.8396
8.43062	84.9319
8.41693	84.8479
8.4033	84.8064
8.3897	84.8915
8.37614	84.9233
8.36264	84.934
8.34917	84.9534
8.33574	84.9184
8.32236	84.758
8.30903	84.8187
8.29573	84.9033
8.28248	84.824
8.26927	84.8347
8.2561	84.9065
8.24298	84.8903
8.2299	84.8253
8.21685	84.8658
8.20385	84.9256
8.19089	84.9309
8.17797	84.9717
8.16509	85.0081
8.15225	84.9318
8.13946	84.9049
8.1267	84.8913
8.11398	84.8702
8.10131	84.851
8.08867	84.8446
8.07606	84.8983
8.0635	84.961
8.05099	84.9303
8.0385	84.9131
8.02606	84.9064
8.01366	85.0124
8.00129	85.1126
7.98896	85.1176
7.97667	85.0714
7.96442	85.0929
7.9522	85.1702
7.94002	85.2539
7.92788	85.3325
7.91578	85.398
7.90371	85.4628
7.89168	85.5297
7.87969	85.521
7.86773	85.5437
7.85581	85.5717
7.84392	85.6302
7.83207	85.6866
7.82026	85.7664
7.80849	85.8005
7.79674	85.7813
7.78503	85.7815
7.77337	85.8868
7.76173	85.914
7.75012	85.8954
7.73856	85.8845
7.72703	85.8882
7.71553	85.8899
7.70406	85.8628
7.69263	85.8814
7.68123	85.9424
7.66987	85.9325
7.65855	85.9625
7.64725	85.9426
7.63598	85.9547
7.62475	86.0153
7.61356	86.0766
7.60239	86.1117
7.59126	86.1427
7.58017	86.1292
7.5691	86.1145
7.55806	86.1445
7.54707	86.1718
7.5361	86.0902
7.52516	86.0543
7.51425	86.1467
7.50338	86.2146
7.49253	86.1924
7.48172	86.1851
7.47094	86.2191
7.46019	86.2072
7.44947	86.1506
7.43879	86.1732
7.42813	86.2287
7.4175	86.2185
7.4069	86.201
7.39634	86.2244
7.3858	86.2339
7.37529	86.2133
7.36482	86.2034
7.35437	86.2761
7.34396	86.3639
7.33357	86.3347
7.32321	86.167
7.31288	86.1429
7.30258	86.1942
7.29231	86.2454
7.28207	86.3367
7.27185	86.3351
7.26167	86.1545
7.25152	86.0822
7.24139	86.0712
7.23129	86.0867
7.22122	86.1118
7.21117	86.2773
7.20116	86.2463
7.19117	86.1192
7.18121	86.2406
7.17128	86.4683
7.16137	86.3999
7.1515	86.3139
7.14164	86.2636
7.13182	86.1349
7.12203	86.1597
7.11225	86.2067
7.10251	86.171
7.0928	86.1363
7.08311	86.0881
7.07344	86.0768
7.06381	86.1621
7.0542	86.4612
7.04461	86.7212
7.03506	86.4458
7.02552	86.2727
7.01601	86.2363
7.00653	86.2029
6.99708	86.2927
6.98765	86.3169
6.97824	86.2786
6.96886	86.5205
6.95951	86.7136
6.95018	86.3299
6.94087	86.2004
6.9316	86.2706
6.92234	86.3111
6.91311	86.3951
6.90391	86.4505
6.89473	86.3518
6.88557	86.3579
6.87644	86.5491
6.86733	87.1703
6.85824	87.0688
6.84918	86.4944
6.84015	86.3369
6.83114	86.519
6.82215	86.4857
6.81319	86.3069
6.80424	86.3892
6.79532	86.7852
6.78643	86.8912
6.77756	86.566
6.76871	86.3771
6.75989	86.242
6.75109	86.2278
6.74231	86.1831
6.73355	86.2147
6.72482	86.383
6.71611	86.5478
6.70742	86.5241
6.69875	86.2487
6.69011	86.4459
6.68149	86.7332
6.67289	86.5474
6.66431	86.3002
6.65576	86.2561
6.64722	86.7651
6.63871	87.483
6.63022	87.1407
6.62175	86.5717
6.61331	86.449
6.60488	86.3882
6.59648	86.5578
6.5881	86.6425
6.57974	86.8028
6.5714	87.0016
6.56308	86.6345
6.55478	86.5583
6.54651	86.5064
6.53825	86.3135
6.53001	86.3477
6.5218	86.5938
6.51361	86.4555
6.50544	86.6044
6.49729	87.3316
6.48915	87.4019
6.48104	86.9608
6.47295	86.6315
6.46488	86.361
6.45683	86.2807
6.4488	86.2576
6.44079	86.3049
6.4328	86.495
6.42482	86.7455
6.41687	87.4447
6.40894	87.2217
6.40103	86.3281
6.39314	86.071
6.38526	86.0817
6.37741	86.2335
6.36957	86.3421
6.36176	86.0527
6.35396	86.1881
6.34618	86.7012
6.33843	86.4094
6.33069	85.9285
6.32297	85.8942
6.31527	85.9421
6.30758	85.9656
6.29992	85.9184
6.29227	85.8487
6.28465	85.7824
6.27704	85.815
6.26945	85.7945
6.26188	85.7361
6.25432	85.7143
6.24679	85.784
6.23927	85.7955
6.23177	85.7701
6.22429	85.7255
6.21683	85.7353
6.20938	85.7777
6.20195	85.8165
6.19454	85.9722
6.18715	86.4013
6.17978	86.2096
6.17242	85.8436
6.16508	85.9603
6.15776	85.9844
6.15045	85.845
6.14317	85.8929
6.1359	85.9056
6.12864	85.9007
6.12141	86.2524
6.11419	86.7208
6.10699	86.4313
6.0998	86.1077
6.09263	86.0899
6.08549	86.1577
6.07835	86.5626
6.07123	86.7635
6.06413	86.4501
6.05705	86.8039
6.04998	87.7477
6.04293	87.0954
6.0359	86.3087
6.02888	86.2058
6.02187	86.3296
6.01489	86.571
6.00792	86.4572
6.00096	86.2973
5.99403	86.5786
5.98711	86.7247
5.9802	86.5114
5.97331	86.6076
5.96644	86.6495
5.95958	86.3443
5.95274	86.3634
5.94591	86.5474
5.9391	87.1759
5.9323	87.0454
5.92552	86.4225
5.91876	86.2755
5.91201	86.2031
5.90528	86.3917
5.89856	87.0213
5.89186	87.0196
5.88517	87.1886
5.8785	87.2112
5.87184	86.5061
5.8652	86.4777
5.85857	86.3978
5.85196	86.231
5.84536	86.1641
5.83878	86.2463
5.83221	86.5049
5.82566	86.9445
5.81912	86.8906
5.81259	86.3329
5.80608	86.1324
5.79959	86.1588
5.79311	86.107
5.78665	86.1806
5.78019	86.288
5.77376	86.5995
5.76734	87.0752
5.76093	86.6502
5.75453	86.3092
5.74815	86.4875
5.74179	86.3876
5.73543	86.2703
5.7291	86.2348
5.72277	86.3103
5.71646	86.4122
5.71017	86.4801
5.70389	86.2544
5.69762	86.143
5.69136	86.1364
5.68513	86.0675
5.6789	86.2344
5.67268	86.2911
5.66648	86.1202
5.6603	86.1959
5.65413	86.3073
5.64797	86.3515
5.64182	86.5384
5.63569	86.3037
5.62957	86.0158
5.62347	85.9929
5.61737	86.105
5.61129	86.1011
5.60522	86.0522
5.59917	86.005
5.59313	85.9428
5.5871	86.0987
5.58109	86.4213
5.57509	86.3231
5.5691	86.0407
5.56312	85.9871
5.55716	86.051
5.55121	86.0674
5.54528	86.0036
5.53935	86.0134
5.53344	85.9976
5.52754	86.006
5.52166	86.0045
5.51578	85.9563
5.50992	85.9419
5.50407	85.9923
5.49823	85.9602
5.49241	85.901
5.4866	85.9034
5.4808	86.0536
5.47501	86.1026
5.46923	86.1148
5.46347	86.1125
5.45772	85.9659
5.45198	85.9049
5.44625	85.9132
5.44054	85.9194
5.43484	85.8934
5.42914	85.9849
5.42347	86.2303
5.4178	86.1191
5.41214	85.9423
5.4065	85.9392
5.40087	85.9068
5.39525	85.9345
5.38964	85.9506
5.38404	85.9187
5.37846	85.8713
5.37288	85.8888
5.36732	85.8719
5.36177	85.8972
5.35623	86.0308
5.35071	86.0813
5.34519	85.9618
5.33968	85.8636
5.33419	85.8423
5.32871	85.8436
5.32324	85.8687
5.31778	85.8785
5.31233	85.8837
5.30689	85.9134
5.30147	85.9597
5.29605	85.9768
5.29065	85.9668
5.28525	85.873
5.27987	85.8953
5.2745	85.9241
5.26914	85.8824
5.26379	85.8659
5.25845	85.898
5.25312	85.8645
5.24781	85.7825
5.2425	85.8516
5.23721	85.9277
5.23192	85.9217
5.22665	85.8862
5.22138	85.8788
5.21613	86.0386
5.21089	86.066
5.20566	85.9194
5.20044	85.8674
5.19522	85.8507
5.19002	85.8859
5.18483	85.9015
5.17965	85.8761
5.17448	85.8776
5.16933	85.9344
5.16418	85.8994
5.15904	85.8503
5.15391	85.8674
5.14879	85.9531
5.14368	85.9356
5.13859	85.8514
5.1335	85.8351
5.12842	85.8974
5.12335	85.9125
5.1183	85.8954
5.11325	85.9239
5.10821	85.9151
5.10318	85.9272
5.09817	85.9265
5.09316	85.9183
5.08816	85.9179
5.08317	85.9147
5.07819	85.8832
5.07322	85.8961
5.06826	85.9698
5.06331	85.994
5.05837	85.9596
5.05344	85.9217
5.04852	85.8345
5.04361	85.791
5.03871	85.8292
5.03382	85.9192
5.02894	85.9523
5.02406	85.9368
5.0192	85.8997
5.01435	85.8352
5.0095	85.8721
5.00467	85.9791
4.99984	85.9607
4.99502	85.9029
4.99021	85.8999
4.98542	85.876
4.98063	85.8773
4.97585	85.9411
4.97108	85.9631
4.96632	85.9265
4.96156	85.9442
4.95682	85.9878
4.95209	85.9384
4.94736	85.8541
4.94264	85.8568
4.93794	85.9237
4.93324	85.9138
4.92855	85.881
4.92387	85.8801
4.9192	85.8662
4.91453	85.8727
4.90988	85.9055
4.90524	85.9507
4.9006	85.9672
4.89597	85.9151
4.89135	85.919
4.88674	85.8821
4.88214	85.8564
4.87755	85.9225
4.87296	85.9317
4.86839	85.9373
4.86382	85.9554
4.85926	85.8954
4.85471	85.8604
4.85017	85.9034
4.84564	85.9165
4.84111	85.9091
4.8366	85.9615
4.83209	85.9882
4.82759	85.9865
4.8231	85.9954
4.81862	85.983
4.81415	85.9339
4.80968	85.9064
4.80522	85.89
4.80077	85.9026
4.79633	85.9113
4.7919	85.923
4.78747	85.9569
4.78306	85.9176
4.77865	85.9378
4.77425	85.9797
4.76986	85.9457
4.76547	85.9483
4.7611	85.9745
4.75673	85.9071
4.75237	85.9168
4.74802	86.0258
4.74367	86.0323
4.73934	85.922
4.73501	85.8889
4.73069	85.921
4.72638	85.9271
4.72207	85.951
4.71777	85.9756
4.71348	85.9881
4.7092	86.0217
4.70493	85.9979
4.70066	85.9312
4.69641	85.9282
4.69216	85.954
4.68791	85.9545
4.68368	85.9531
4.67945	85.8997
4.67523	85.8513
4.67102	85.8755
4.66682	85.9359
4.66262	85.946
4.65843	85.9437
4.65425	85.9574
4.65007	85.9601
4.64591	85.9721
4.64175	85.9715
4.6376	85.9727
4.63345	85.9173
4.62932	85.8737
4.62519	85.8926
4.62106	85.9336
4.61695	85.9178
4.61284	85.8563
4.60874	85.8856
4.60465	85.929
4.60056	85.9359
4.59648	85.9331
4.59241	85.9358
4.58835	85.9965
4.58429	85.9975
4.58024	85.9683
4.5762	85.9443
4.57216	85.9315
4.56814	85.9275
4.56411	85.8706
4.5601	85.9283
4.55609	86.0012
4.55209	85.985
4.5481	85.9376
4.54411	85.929
4.54013	85.9647
4.53616	85.942
4.5322	85.9162
4.52824	85.9286
4.52429	85.9551
4.52034	85.9652
4.51641	85.9388
4.51247	85.8942
4.50855	85.9267
4.50463	85.915
4.50072	85.9094
4.49682	85.9502
4.49292	85.9351
4.48903	85.909
4.48515	85.8813
4.48127	85.8445
4.4774	85.8737
4.47354	85.8965
4.46968	85.877
4.46584	85.8915
4.46199	85.888
4.45815	85.91
4.45432	85.9761
4.4505	85.9671
4.44668	85.9437
4.44287	85.8621
4.43907	85.8199
4.43527	85.8903
4.43148	85.9195
4.4277	85.9185
4.42392	85.8988
4.42015	85.9137
4.41638	85.9327
4.41262	85.9086
4.40887	85.858
4.40513	85.8466
4.40139	85.8723
4.39765	85.9168
4.39393	85.937
4.39021	85.905
4.38649	85.8466
4.38278	85.871
4.37908	85.905
4.37539	85.8725
4.3717	85.8898
4.36801	85.9307
4.36434	85.9096
4.36067	85.9622
4.357	85.9798
4.35335	85.8762
4.34969	85.8488
4.34605	85.8673
4.34241	85.9026
4.33877	85.9227
4.33514	85.8716
4.33152	85.8148
4.32791	85.8899
4.3243	85.9759
4.32069	86.0247
4.3171	86.0627
4.31351	86.0719
4.30992	86.0206
4.30634	85.9934
4.30277	86.0124
4.2992	86.0674
4.29564	86.0306
4.29208	86.0102
4.28853	86.0304
4.28499	86.0574
4.28145	86.0257
4.27792	85.9933
4.27439	85.9614
4.27087	86.011
4.26735	86.103
4.26384	86.0879
4.26034	85.9573
4.25684	85.8917
4.25335	85.9684
4.24986	86.056
4.24638	86.0842
4.24291	86.0979
4.23944	86.1212
4.23598	86.1629
4.23252	86.1712
4.22906	86.1771
4.22562	86.1332
4.22218	86.079
4.21874	86.0522
4.21531	86.0402
4.21189	86.0152
4.20847	85.9745
4.20506	85.9
4.20165	85.8672
4.19825	85.8583
4.19485	85.8382
4.19146	85.8878
4.18807	85.9025
4.18469	85.8693
4.18132	85.8274
4.17795	85.7826
4.17458	85.7865
4.17123	85.822
4.16787	85.8303
4.16453	85.8702
4.16118	85.8855
4.15785	85.8806
4.15451	85.8822
4.15119	85.8747
4.14787	85.8486
4.14455	85.8821
4.14124	85.9302
4.13794	85.8813
4.13464	85.8364
4.13134	85.8345
4.12805	85.8509
4.12477	85.8867
4.12149	85.881
4.11822	85.8004
4.11495	85.7704
4.11168	85.8178
4.10843	85.879
4.10517	85.8671
4.10192	85.8141
4.09868	85.7458
4.09545	85.7578
4.09221	85.7798
4.08899	85.7882
4.08576	85.8231
4.08255	85.8031
4.07933	85.7832
4.07613	85.8378
4.07292	85.8729
4.06973	85.8373
4.06654	85.8366
4.06335	85.8274
4.06017	85.8157
4.05699	85.8849
4.05382	85.8713
4.05065	85.8261
4.04749	85.8039
4.04433	85.8194
4.04118	85.8374
4.03803	85.7854
4.03489	85.7513
4.03175	85.8139
4.02862	85.8629
4.02549	85.8375
4.02237	85.8612
4.01925	85.881
4.01614	85.86
4.01303	85.8821
4.00993	85.9326
4.00683	85.919
4.00373	85.7958
4.00064	85.6897
3.99756	85.7181
3.99448	85.7966
3.9914	85.8372
3.98833	85.8215
3.98527	85.8251
3.98221	85.8701
3.97915	85.8585
3.9761	85.8199
3.97305	85.8182
3.97001	85.802
3.96697	85.7964
3.96394	85.8037
3.96091	85.779
3.95789	85.7706
3.95487	85.8472
3.95186	85.8499
3.94885	85.8024
3.94584	85.7837
3.94284	85.7711
3.93984	85.7503
3.93685	85.7129
3.93386	85.7132
3.93088	85.7672
3.9279	85.8345
3.92493	85.8294
3.92196	85.7911
3.919	85.8145
3.91604	85.8937
3.91308	85.8591
3.91013	85.7728
3.90718	85.7641
3.90424	85.7481
3.9013	85.8349
3.89837	85.9005
3.89544	85.8556
3.89252	85.812
3.8896	85.7746
3.88668	85.805
3.88377	85.8778
3.88086	85.822
3.87796	85.7757
3.87506	85.8087
3.87217	85.849
3.86928	85.7785
3.86639	85.6735
3.86351	85.7457
3.86064	85.8304
3.85776	85.816
3.8549	85.8068
3.85203	85.7655
3.84917	85.7909
3.84631	85.8179
3.84346	85.77
3.84062	85.758
3.83777	85.785
3.83494	85.7778
3.8321	85.7741
3.82927	85.7584
3.82644	85.7527
3.82362	85.7841
3.82081	85.7711
3.81799	85.7987
3.81518	85.8211
3.81238	85.7967
3.80958	85.7327
3.80678	85.7057
3.80399	85.7666
3.8012	85.7881
3.79841	85.7213
3.79563	85.7351
3.79286	85.7406
3.79008	85.7478
3.78731	85.7295
3.78455	85.7599
3.78179	85.789
3.77903	85.7669
3.77628	85.7298
3.77353	85.7506
3.77079	85.788
3.76805	85.7936
3.76531	85.7848
3.76258	85.7192
3.75985	85.7214
3.75713	85.7416
3.7544	85.667
3.75169	85.6469
3.74898	85.72
3.74627	85.7843
3.74356	85.7868
3.74086	85.7185
3.73816	85.6916
3.73547	85.6658
3.73278	85.6853
3.7301	85.6947
3.72741	85.7087
3.72474	85.7487
3.72206	85.7773
3.71939	85.7856
3.71673	85.7173
3.71406	85.724
3.71141	85.7333
3.70875	85.7626
3.7061	85.7779
3.70345	85.7826
3.70081	85.7882
3.69817	85.7534
3.69553	85.7006
3.6929	85.6754
3.69027	85.7197
3.68765	85.7694
3.68503	85.7837
3.68241	85.7702
3.6798	85.7283
3.67719	85.7417
3.67458	85.7949
3.67198	85.8252
3.66938	85.7629
3.66678	85.7137
3.66419	85.7461
3.66161	85.7514
3.65902	85.7101
3.65644	85.7286
3.65387	85.7156
3.65129	85.6841
3.64872	85.7074
3.64616	85.7897
3.64359	85.7749
3.64103	85.7223
3.63848	85.7149
3.63593	85.6946
3.63338	85.6575
3.63084	85.6883
3.6283	85.7335
3.62576	85.7927
3.62322	85.7965
3.62069	85.8101
3.61817	85.8235
3.61564	85.7272
3.61312	85.6733
3.61061	85.7445
3.6081	85.7899
3.60559	85.737
3.60308	85.7345
3.60058	85.7096
3.59808	85.6967
3.59558	85.7159
3.59309	85.725
3.59061	85.7516
3.58812	85.7932
3.58564	85.797
3.58316	85.7128
3.58069	85.7012
3.57822	85.6964
3.57575	85.729
3.57328	85.7073
3.57082	85.7159
3.56836	85.7645
3.56591	85.7513
3.56346	85.7719
3.56101	85.7866
3.55857	85.7579
3.55613	85.704
3.55369	85.6877
3.55126	85.7594
3.54883	85.7654
3.5464	85.7153
3.54397	85.7575
3.54155	85.7716
3.53914	85.769
3.53672	85.7769
3.53431	85.746
3.5319	85.7569
3.5295	85.7585
3.5271	85.7296
3.5247	85.6935
3.52231	85.7146
3.51991	85.7763
3.51753	85.7741
3.51514	85.811
3.51276	85.8732
3.51038	85.9109
3.50801	85.9041
3.50563	85.8996
3.50327	85.8413
3.5009	85.8717
3.49854	85.8852
3.49618	85.8546
3.49382	85.8464
3.49147	85.8278
3.48912	85.7699
3.48677	85.7818
3.48443	85.8164
3.48209	85.7848
3.47975	85.7919
3.47742	85.8083
3.47509	85.7755
3.47276	85.7934
3.47044	85.7701
3.46812	85.8405
3.4658	85.8522
3.46348	85.777
3.46117	85.8386
3.45886	85.8366
3.45656	85.768
3.45425	85.8201
3.45195	85.8917
3.44966	85.8644
3.44736	85.8717
3.44507	85.8801
3.44279	85.8076
3.4405	85.7144
3.43822	85.7764
3.43594	85.8361
3.43367	85.871
3.43139	85.9312
3.42912	85.9648
3.42686	85.9107
3.42459	85.8637
3.42233	85.9467
3.42007	85.9625
3.41782	85.9213
3.41557	85.8801
3.41332	85.9143
3.41108	85.9288
3.40883	85.8258
3.40659	85.8096
3.40435	85.863
3.40212	85.8295
3.39989	85.7621
3.39766	85.7374
3.39544	85.8374
3.39322	85.9666
3.391	85.8897
3.38878	85.7727
3.38657	85.8083
3.38436	85.824
3.38215	85.7579
3.37994	85.6834
3.37774	85.6706
3.37554	85.7821
3.37335	85.8271
3.37115	85.7819
3.36896	85.7201
3.36678	85.729
3.36459	85.8154
3.36241	85.8196
3.36023	85.8447
3.35805	85.8018
3.35588	85.7472
3.35371	85.7658
3.35154	85.7949
3.34938	85.7114
3.34721	85.694
3.34505	85.7068
3.3429	85.7117
3.34074	85.723
3.33859	85.7042
3.33644	85.6753
3.3343	85.6968
3.33215	85.7842
3.33001	85.7878
3.32788	85.7067
3.32574	85.6954
3.32361	85.7015
3.32148	85.7337
3.31936	85.7482
3.31723	85.7251
3.31511	85.7419
3.31299	85.7491
3.31088	85.7299
3.30876	85.7
3.30665	85.7363
3.30455	85.7685
3.30244	85.7985
3.30034	85.7698
3.29824	85.7205
3.29614	85.7099
3.29405	85.7496
3.29196	85.7244
3.28987	85.7666
3.28778	85.8518
3.2857	85.7639
3.28362	85.643
3.28154	85.628
3.27946	85.6767
3.27739	85.7008
3.27532	85.6647
3.27325	85.7143
3.27119	85.8176
3.26913	85.8667
3.26707	85.8186
3.26501	85.7756
3.26295	85.7954
3.2609	85.6939
3.25885	85.6687
3.2568	85.7215
3.25476	85.7962
3.25272	85.7733
3.25068	85.7549
3.24864	85.7577
3.24661	85.8063
3.24458	85.7918
3.24255	85.8388
3.24052	85.8358
3.2385	85.713
3.23648	85.6303
3.23446	85.6048
3.23244	85.6562
3.23043	85.7164
3.22841	85.7176
3.2264	85.7022
3.2244	85.7316
3.22239	85.7833
3.22039	85.7539
3.21839	85.748
3.2164	85.7139
3.2144	85.733
3.21241	85.8322
3.21042	85.8423
3.20844	85.7588
3.20645	85.7021
3.20447	85.6409
3.20249	85.6276
3.20051	85.738
3.19854	85.8527
3.19657	85.8232
3.1946	85.7282
3.19263	85.8014
3.19067	85.8517
3.1887	85.7657
3.18674	85.7107
3.18479	85.6878
3.18283	85.6985
3.18088	85.6409
3.17893	85.6438
3.17698	85.6866
3.17504	85.7174
3.17309	85.7761
3.17115	85.7735
3.16921	85.7646
3.16728	85.8009
3.16534	85.7247
3.16341	85.7558
3.16148	85.7892
3.15956	85.7277
3.15763	85.6597
3.15571	85.7792
3.15379	85.8462
3.15187	85.7508
3.14996	85.7476
3.14805	85.6926
3.14614	85.6759
3.14423	85.6874
3.14232	85.7705
3.14042	85.7859
3.13852	85.8025
3.13662	85.8485
3.13472	85.7733
3.13283	85.7698
3.13094	85.8326
3.12905	85.7565
3.12716	85.6881
3.12528	85.7381
3.12339	85.6798
3.12151	85.6545
3.11964	85.7138
3.11776	85.6962
3.11589	85.7522
3.11401	85.8006
3.11214	85.7376
3.11028	85.7677
3.10841	85.7613
3.10655	85.747
3.10469	85.761
3.10283	85.8044
3.10098	85.9076
3.09912	85.9163
3.09727	85.8624
3.09542	85.7926
3.09358	85.6421
3.09173	85.6754
3.08989	85.749
3.08805	85.7441
3.08621	85.7589
3.08437	85.8287
3.08254	85.906
3.08071	85.8194
3.07888	85.803
3.07705	85.7887
3.07523	85.7706
3.0734	85.8378
3.07158	85.8174
3.06977	85.8252
3.06795	85.7694
3.06613	85.7548
3.06432	85.7498
3.06251	85.7466
3.0607	85.7618
3.0589	85.8217
3.0571	85.7821
3.05529	85.6718
3.05349	85.6364
3.0517	85.7216
3.0499	85.8486
3.04811	85.8562
3.04632	85.8105
3.04453	85.8258
3.04274	85.8062
3.04096	85.7237
3.03918	85.7032
3.0374	85.6531
3.03562	85.6675
3.03384	85.7576
3.03207	85.7703
3.03029	85.8054
3.02852	85.8164
3.02676	85.8581
3.02499	85.8752
3.02323	85.8447
3.02146	85.8505
3.0197	85.8517
3.01795	85.8406
3.01619	85.8121
3.01444	85.8558
3.01269	85.8337
3.01094	85.7683
3.00919	85.7732
3.00744	85.8049
3.0057	85.8083
3.00396	85.8017
3.00222	85.714
3.00048	85.6957
2.99875	85.7754
2.99701	85.7757
2.99528	85.7813
2.99355	85.8334
2.99183	85.7842
2.9901	85.7461
2.98838	85.7377
2.98666	85.7805
2.98494	85.7967
2.98322	85.8143
2.9815	85.7653
2.97979	85.6315
2.97808	85.6004
2.97637	85.7049
2.97466	85.8215
2.97295	85.8466
2.97125	85.8925
2.96955	85.8784
2.96785	85.8234
2.96615	85.8259
2.96446	85.7435
2.96276	85.6368
2.96107	85.7577
2.95938	85.8774
2.95769	85.83
2.95601	85.7447
2.95432	85.6958
2.95264	85.6769
2.95096	85.7652
2.94928	85.7389
2.9476	85.6984
2.94593	85.7282
2.94425	85.7104
2.94258	85.7131
2.94092	85.7168
2.93925	85.7724
2.93758	85.8281
2.93592	85.8376
2.93426	85.8007
2.9326	85.7479
2.93094	85.7531
2.92928	85.7004
2.92763	85.6508
2.92598	85.7499
2.92433	85.867
2.92268	85.8131
2.92103	85.7149
2.91939	85.6326
2.91775	85.6317
2.9161	85.666
2.91447	85.7338
2.91283	85.7629
2.91119	85.6942
2.90956	85.6681
2.90793	85.6539
2.9063	85.6993
2.90467	85.8105
2.90304	85.7685
2.90142	85.7542
2.89979	85.7737
2.89817	85.7043
2.89656	85.7685
2.89494	85.7277
2.89332	85.6241
2.89171	85.6295
2.8901	85.6959
2.88849	85.726
2.88688	85.6859
2.88527	85.6387
2.88367	85.7118
2.88206	85.7245
2.88046	85.7669
2.87886	85.8024
2.87727	85.761
2.87567	85.7061
2.87408	85.7132
2.87248	85.756
2.87089	85.7616
2.8693	85.704
2.86772	85.6555
2.86613	85.6342
2.86455	85.6375
2.86297	85.6277
2.86139	85.6385
2.85981	85.6866
2.85823	85.6288
2.85666	85.6546
2.85508	85.7419
2.85351	85.8074
2.85194	85.7385
2.85038	85.6547
2.84881	85.6565
2.84724	85.6686
2.84568	85.6306
2.84412	85.6086
2.84256	85.7253
2.841	85.6281
2.83945	85.6278
2.83789	85.656
2.83634	85.6576
2.83479	85.6742
2.83324	85.6566
2.83169	85.6881
2.83015	85.6996
2.82861	85.7007
2.82706	85.7006
2.82552	85.7069
2.82398	85.7286
2.82245	85.7528
2.82091	85.7426
2.81938	85.6855
2.81784	85.7021
2.81631	85.6026
2.81479	85.5928
2.81326	85.6901
2.81173	85.6504
2.81021	85.6088
2.80869	85.7152
2.80716	85.6856
2.80565	85.6193
2.80413	85.7854
2.80261	85.9399
2.8011	85.7735
2.79959	85.5408
2.79808	85.5627
2.79657	85.7118
2.79506	85.6648
2.79355	85.5676
2.79205	85.5634
2.79055	85.5387
2.78904	85.6197
2.78754	85.8188
2.78605	85.7409
2.78455	85.4125
2.78306	85.4118
2.78156	85.4456
2.78007	85.3434
2.77858	85.4572
2.77709	85.5129
2.77561	85.4324
2.77412	85.5288
2.77264	85.4797
2.77116	85.5985
2.76968	85.7286
2.7682	85.8564
2.76672	85.7142
2.76524	85.5785
2.76377	85.6395
2.7623	85.7166
2.76083	85.6927
2.75936	85.5664
2.75789	85.6751
2.75642	86.204
2.75496	86.3176
2.7535	85.7823
2.75203	85.5621
2.75057	85.5539
2.74912	85.6423
2.74766	85.587
2.7462	85.4485
2.74475	85.3986
2.7433	85.4422
2.74185	85.859
2.7404	86.2975
2.73895	86.1798
2.7375	85.7131
2.73606	85.6692
2.73462	85.8054
2.73318	85.6108
2.73174	85.4841
2.7303	85.4389
2.72886	85.4388
2.72742	85.5748
2.72599	85.8596
2.72456	86.0588
2.72313	85.9104
2.7217	86.173
2.72027	86.4006
2.71884	85.7664
2.71742	85.4216
2.71599	85.3421
2.71457	85.4295
2.71315	85.5352
2.71173	85.9816
2.71032	86.1223
2.7089	85.7583
2.70748	85.5195
2.70607	85.4359
2.70466	85.3964
2.70325	85.5443
2.70184	85.7004
2.70043	85.6289
2.69903	85.4827
2.69762	85.4577
2.69622	85.6167
2.69482	85.8893
2.69342	85.8254
2.69202	85.5109
2.69062	85.4657
2.68923	85.4891
2.68783	85.5349
2.68644	85.5819
2.68505	85.5769
2.68366	85.6213
2.68227	85.5216
2.68089	85.5059
2.6795	85.8016
2.67812	85.9618
2.67673	86.1116
2.67535	85.9281
2.67397	85.6535
2.6726	85.687
2.67122	86.3293
2.66984	86.4417
2.66847	85.8822
2.6671	86.1187
2.66572	86.293
2.66435	86.0028
2.66299	85.5077
2.66162	85.5232
2.66025	85.5844
2.65889	85.5198
2.65753	85.371
2.65616	85.4378
2.65481	85.4384
2.65345	85.5655
2.65209	85.6147
2.65073	85.3669
2.64938	85.2322
2.64803	85.3306
2.64667	85.559
2.64532	85.6389
2.64397	85.3951
2.64263	85.3401
2.64128	85.4036
2.63994	85.465
2.63859	85.3839
2.63725	85.3919
2.63591	85.3507
2.63457	85.5038
2.63323	85.56
2.6319	85.6537
2.63056	86.0141
2.62923	85.8316
2.62789	85.709
2.62656	85.9129
2.62523	85.5467
2.6239	85.3425
2.62258	85.3769
2.62125	85.7436
2.61993	85.9909
2.6186	85.8433
2.61728	85.9418
2.61596	85.6623
2.61464	85.2802
2.61332	85.3099
2.61201	85.4195
2.61069	85.4847
2.60938	85.479
2.60807	85.5076
2.60675	85.7424
2.60544	86.0057
2.60414	85.8283
2.60283	85.6572
2.60152	85.5091
2.60022	85.3531
2.59891	85.3414
2.59761	85.565
2.59631	86.109
2.59501	86.763
2.59371	86.2579
2.59242	85.5165
2.59112	85.3322
2.58983	85.4083
2.58853	85.4781
2.58724	85.5479
2.58595	85.4987
2.58466	85.8739
2.58338	85.9373
2.58209	85.5949
2.5808	85.513
2.57952	85.3006
2.57824	85.2738
2.57695	85.4044
2.57567	85.3944
2.5744	85.571
2.57312	85.6849
2.57184	85.3722
2.57057	85.4361
2.56929	85.5012
2.56802	85.3453
2.56675	85.2177
2.56548	85.2976
2.56421	85.4302
2.56294	85.5756
2.56168	85.7496
2.56041	85.6911
2.55915	85.4522
2.55789	85.2816
2.55662	85.2568
2.55536	85.3765
2.5541	85.4005
2.55285	85.2898
2.55159	85.2713
2.55034	85.4252
2.54908	85.4578
2.54783	85.4167
2.54658	85.4175
2.54533	85.3047
2.54408	85.2558
2.54283	85.3114
2.54159	85.3211
2.54034	85.3285
2.5391	85.2732
2.53785	85.1878
2.53661	85.2973
2.53537	85.407
2.53413	85.4593
2.53289	85.3678
2.53166	85.3464
2.53042	85.3678
2.52919	85.321
2.52795	85.2712
2.52672	85.2451
2.52549	85.2347
2.52426	85.2824
2.52303	85.3229
2.52181	85.3201
2.52058	85.318
2.51936	85.2875
2.51813	85.2381
2.51691	85.2724
2.51569	85.3204
2.51447	85.2515
2.51325	85.0922
2.51203	85.0311
2.51082	85.189
2.5096	85.3132
2.50839	85.2933
2.50717	85.3501
2.50596	85.2964
2.50475	85.2007
2.50354	85.219
2.50233	85.2682
2.50113	85.3387
2.49992	85.3319
2.49872	85.2774
2.49751	85.1886
2.49631	85.121
2.49511	85.2664
2.49391	85.2845
2.49271	85.2049
2.49151	85.2331
2.49031	85.3566
2.48912	85.3911
2.48792	85.2445
2.48673	85.1598
2.48554	85.1236
2.48435	85.1498
2.48316	85.2182
2.48197	85.2259
2.48078	85.1417
2.4796	85.165
2.47841	85.2297
2.47723	85.2399
2.47604	85.1945
2.47486	85.1802
2.47368	85.3421
2.4725	85.3787
2.47132	85.2973
2.47014	85.2415
2.46897	85.239
2.46779	85.2515
2.46662	85.2081
2.46545	85.1985
2.46427	85.1975
2.4631	85.2579
2.46193	85.249
2.46077	85.1561
2.4596	85.1066
2.45843	85.1602
2.45727	85.2011
2.4561	85.1556
2.45494	85.056
2.45378	85.1074
2.45262	85.3026
2.45146	85.3661
2.4503	85.3236
2.44914	85.1824
2.44799	85.0511
2.44683	85.1901
2.44568	85.1541
2.44452	85.0685
2.44337	85.1292
2.44222	85.2388
2.44107	85.3126
2.43992	85.2389
2.43877	85.1373
2.43763	85.1195
2.43648	85.1804
2.43534	85.3273
2.43419	85.3834
2.43305	85.1995
2.43191	85.0546
2.43077	85.1041
2.42963	85.0804
2.42849	85.0505
2.42736	85.1379
2.42622	85.0996
2.42509	85.0912
2.42395	85.0911
2.42282	85.0177
2.42169	85.1351
2.42056	85.2535
2.41943	85.2955
2.4183	85.2379
2.41717	85.0829
2.41605	85.1012
2.41492	85.1858
2.4138	85.1539
2.41267	85.1124
2.41155	85.1704
2.41043	85.2252
2.40931	85.2837
2.40819	85.1996
2.40707	85.1413
2.40595	85.2318
2.40484	85.285
2.40372	85.2399
2.40261	85.194
2.4015	85.225
2.40039	85.1848
2.39928	85.2161
2.39817	85.2465
2.39706	85.1086
2.39595	84.9616
2.39484	85.1288
2.39374	85.2551
2.39263	85.2309
2.39153	85.2261
2.39043	85.1423
2.38932	85.0327
2.38822	85.0933
2.38712	85.1165
2.38603	85.0161
2.38493	84.9976
2.38383	85.1045
2.38274	85.2301
2.38164	85.3264
2.38055	85.3185
2.37946	85.2703
2.37836	85.1246
2.37727	84.9839
2.37618	85.0291
2.3751	85.1596
2.37401	85.0762
2.37292	84.9635
2.37184	85.041
2.37075	85.1348
2.36967	85.0899
2.36859	85.0386
2.3675	85.0497
2.36642	85.1105
2.36534	85.0665
2.36427	84.9884
2.36319	85.0737
2.36211	85.1124
2.36104	85.0864
2.35996	85.1544
2.35889	85.3269
2.35781	85.374
2.35674	85.1917
2.35567	85.1425
2.3546	85.1682
2.35353	85.1642
2.35247	85.0293
2.3514	84.9601
2.35033	85.0995
2.34927	85.2191
2.3482	85.1599
2.34714	85.1311
2.34608	85.2392
2.34502	85.2541
2.34396	85.2519
2.3429	85.1992
2.34184	85.1456
2.34078	85.0871
2.33973	85.052
2.33867	85.1406
2.33762	85.2818
2.33656	85.1842
2.33551	85.0276
2.33446	84.9869
2.33341	85.11
2.33236	85.1862
2.33131	85.1629
2.33026	85.1113
2.32922	85.0683
2.32817	85.0413
2.32712	84.9721
2.32608	85.0297
2.32504	85.1914
2.324	85.176
2.32295	85.0913
2.32191	85.0775
2.32087	85.1289
2.31984	85.0263
2.3188	84.9266
2.31776	85.0168
2.31673	85.1118
2.31569	85.1199
2.31466	85.073
2.31362	85.0536
2.31259	85.1447
2.31156	85.0586
2.31053	85.0327
2.3095	85.086
2.30847	84.9917
2.30745	85.0923
2.30642	85.1106
2.3054	85.0134
2.30437	85.033
2.30335	85.1299
2.30232	85.1541
2.3013	85.1238
2.30028	85.0199
2.29926	84.9854
2.29824	85.0979
2.29722	85.0576
2.29621	85.0939
2.29519	85.2117
2.29417	85.0806
2.29316	84.9019
2.29215	84.8774
2.29113	84.7897
2.29012	84.8073
2.28911	84.8935
2.2881	84.9249
2.28709	84.9968
2.28608	85.1416
2.28507	85.0778
2.28407	85.0908
2.28306	85.1907
2.28206	85.2456
2.28105	85.155
2.28005	85.0578
2.27905	85.1953
2.27805	85.1371
2.27705	84.9203
2.27605	84.8818
2.27505	84.9092
2.27405	85.031
2.27305	85.0742
2.27206	85.1017
2.27106	85.0975
2.27007	85.0117
2.26907	84.9518
2.26808	85.0066
2.26709	84.9511
2.2661	84.9027
2.26511	85.015
2.26412	85.009
2.26313	85.0567
2.26214	85.0948
2.26116	85.0184
2.26017	85.0465
2.25919	85.0471
2.2582	84.9022
2.25722	84.9791
2.25624	85.0876
2.25526	85.0671
2.25428	85.1597
2.2533	85.2018
2.25232	85.1008
2.25134	85.0137
2.25036	84.883
2.24939	84.863
2.24841	85.089
2.24744	85.2148
2.24646	85.1435
2.24549	85.0672
2.24452	85.0462
2.24355	85.0039
2.24257	85.047
2.24161	84.9117
2.24064	84.8743
2.23967	84.9596
2.2387	85.145
2.23774	85.2356
2.23677	85.109
2.23581	84.9801
2.23484	84.9018
2.23388	84.9297
2.23292	84.9892
2.23196	85.0639
2.231	84.9804
2.23004	84.9293
2.22908	84.8799
2.22812	84.8927
2.22716	84.9991
2.22621	85.129
2.22525	85.1237
2.2243	84.9442
2.22334	84.8523
2.22239	84.9218
2.22144	84.8826
2.22049	85.0236
2.21953	85.0691
2.21859	84.8871
2.21764	84.8785
2.21669	85.0162
2.21574	84.9371
2.21479	84.7686
2.21385	84.7478
2.2129	84.894
2.21196	84.9997
2.21102	85.0467
2.21007	85.0889
2.20913	85.0083
2.20819	85.014
2.20725	84.9756
2.20631	84.8274
2.20537	84.8804
2.20444	85.0511
2.2035	85.1602
2.20256	84.9911
2.20163	84.7391
2.20069	84.8073
2.19976	85.0495
2.19883	85.0899
2.19789	84.9614
2.19696	84.9829
2.19603	84.9524
2.1951	84.8291
2.19417	84.84
2.19325	84.8848
2.19232	85.0238
2.19139	85.0247
2.19047	85.0898
2.18954	85.2044
2.18862	85.0994
2.18769	84.9798
2.18677	84.9416
2.18585	84.9937
2.18493	85.0502
2.18401	84.8937
2.18309	84.7669
2.18217	84.6854
2.18125	84.7636
2.18033	84.8596
2.17942	84.9008
2.1785	85.0341
2.17759	85.0107
2.17667	84.9595
2.17576	84.9251
2.17485	84.9274
2.17393	84.9565
2.17302	85.0275
2.17211	84.9472
2.1712	84.9608
2.17029	84.9839
2.16939	84.9643
2.16848	84.9877
2.16757	84.8825
2.16667	84.9714
2.16576	84.993
2.16486	84.7769
2.16395	84.7531
2.16305	84.7944
2.16215	84.9222
2.16125	84.9892
2.16035	84.8835
2.15945	84.9365
2.15855	84.7903
2.15765	84.5901
2.15675	84.7924
2.15586	84.9666
2.15496	84.8519
2.15406	84.9381
2.15317	85.0738
2.15228	84.9097
2.15138	84.7725
2.15049	84.8776
2.1496	84.9673
2.14871	84.9129
2.14782	84.7151
2.14693	84.7204
2.14604	84.7974
2.14515	84.7559
2.14427	84.9929
2.14338	85.0644
2.14249	84.8566
2.14161	84.8503
2.14072	84.7322
2.13984	84.7844
2.13896	84.9004
2.13808	84.7852
2.13719	84.6812
2.13631	84.7353
2.13543	84.6818
2.13455	84.9019
2.13368	85.1148
2.1328	84.8432
2.13192	84.7002
2.13105	84.8414
2.13017	84.9377
2.1293	84.8596
2.12842	84.9135
2.12755	84.9448
2.12668	84.8785
2.1258	84.8738
2.12493	84.8916
2.12406	84.7352
2.12319	84.6913
2.12232	84.9698
2.12145	85.1222
2.12059	84.9187
2.11972	84.5648
2.11885	84.7699
2.11799	85.0879
2.11712	85.0137
2.11626	84.9123
2.1154	84.9817
2.11453	85.0312
2.11367	84.8498
2.11281	84.85
2.11195	85.0041
2.11109	84.9139
2.11023	84.8251
2.10937	84.883
2.10851	84.9709
2.10766	84.8596
2.1068	84.7996
2.10594	84.8482
2.10509	84.7493
2.10423	84.8608
2.10338	85.0359
2.10253	84.8706
2.10168	84.6699
2.10082	84.5914
2.09997	84.7815
2.09912	84.8082
2.09827	84.6937
2.09742	84.6954
2.09658	84.8293
2.09573	84.7244
2.09488	84.5581
2.09404	84.729
2.09319	84.8419
2.09235	84.8762
2.0915	84.888
2.09066	84.8532
2.08982	84.8204
2.08897	84.6096
2.08813	84.7113
2.08729	84.9099
2.08645	85.0347
2.08561	84.9189
2.08477	84.662
2.08394	84.7229
2.0831	84.687
2.08226	84.5446
2.08143	84.6108
2.08059	84.6566
2.07976	84.675
2.07892	84.642
2.07809	84.6455
2.07726	84.6388
2.07643	84.6284
2.07559	84.6765
2.07476	84.788
2.07393	84.6319
2.0731	84.6521
2.07228	84.8668
2.07145	84.851
2.07062	84.8815
2.06979	85.0562
2.06897	84.8614
2.06814	84.6769
2.06732	84.7118
2.06649	84.7674
2.06567	84.6822
2.06485	84.6253
2.06403	84.8892
2.0632	84.8428
2.06238	84.8057
2.06156	84.9435
2.06074	84.9614
2.05993	84.9358
2.05911	84.8643
2.05829	84.9015
2.05747	84.777
2.05666	84.7515
2.05584	84.9139
2.05503	84.9748
2.05421	84.9012
2.0534	84.6938
2.05259	84.5154
2.05177	84.726
2.05096	84.8894
2.05015	84.9472
2.04934	85.0317
2.04853	84.9491
2.04772	84.7093
2.04691	84.6255
2.04611	84.6941
2.0453	84.7854
2.04449	84.6588
2.04369	84.7515
2.04288	84.8638
2.04208	84.6845
2.04127	84.6517
2.04047	84.737
2.03967	84.7494
2.03886	84.7441
2.03806	84.6894
2.03726	84.5701
2.03646	84.6869
2.03566	84.7735
2.03486	84.513
2.03407	84.6024
2.03327	84.8657
2.03247	84.826
2.03167	84.7919
2.03088	84.8565
2.03008	84.6786
2.02929	84.644
2.0285	84.8523
2.0277	84.786
2.02691	84.7233
2.02612	84.7109
2.02533	84.6975
2.02453	84.9432
2.02374	84.9246
2.02295	84.8126
2.02217	84.7145
2.02138	84.4849
2.02059	84.536
2.0198	84.6279
2.01902	84.5644
2.01823	84.6364
2.01744	84.7352
2.01666	84.7775
2.01588	84.7738
2.01509	84.6202
2.01431	84.6988
2.01353	84.7817
2.01275	84.6461
2.01196	84.5428
2.01118	84.4356
2.0104	84.4272
2.00963	84.4498
2.00885	84.6174
2.00807	84.754
2.00729	84.6012
2.00651	84.5608
2.00574	84.7734
2.00496	84.8051
2.00419	84.6749
2.00341	84.7956
2.00264	84.922
2.00187	84.7927
2.00109	84.6098
2.00032	84.6653
