Name: Beryl Be_3Al_2Si_6O_18
Type: Mineral
Class: Silicates
Subclass: Cyclosilicates
Particle Size: 125-500um
Sample No.: CS-2A
Owner: JPL
Wavelength range: IR
Origin: Brazil, Minas Gerais
Collected by Ward's
Description: 





Measurement: Hemispherical reflectance
First Column: X
Second Column: Y
X Units:  Wavelength (micrometers)
Y Units:  Reflectance (percent)
First X Value: 15.3853
Last X Value: 2.00032
Number of X Values: 2256
Additional information: cs02aa.txt
 
15.3853	7.50481
15.3397	7.52628
15.2945	7.20633
15.2495	6.65522
15.2048	6.2617
15.1603	6.61179
15.1161	7.15651
15.0722	7.77684
15.0285	8.42562
14.9851	9.42988
14.9419	10.4488
14.8989	11.4122
14.8563	12.843
14.8138	14.5212
14.7716	16.0993
14.7296	17.7223
14.6879	19.1843
14.6464	20.121
14.6052	20.7067
14.5641	21.0902
14.5233	21.3211
14.4828	20.9368
14.4424	20.0141
14.4023	18.7694
14.3624	16.9909
14.3227	14.6014
14.2833	12.191
14.244	9.85067
14.205	7.66916
14.1662	5.86939
14.1276	4.72746
14.0892	4.25854
14.051	4.15406
14.0131	4.28497
13.9753	4.5252
13.9377	4.70933
13.9004	5.05941
13.8632	5.38543
13.8262	5.6805
13.7895	6.20579
13.7529	6.85116
13.7165	7.51737
13.6803	8.19662
13.6443	8.76995
13.6085	9.3421
13.5729	9.89067
13.5374	10.3221
13.5022	10.8416
13.4671	11.4334
13.4322	11.9571
13.3975	12.168
13.363	12.276
13.3286	12.4914
13.2944	12.5721
13.2604	12.3131
13.2266	11.8388
13.193	11.4372
13.1595	10.778
13.1262	9.78934
13.093	8.51936
13.06	7.06551
13.0272	5.80153
12.9946	4.82318
12.9621	4.05301
12.9298	3.87061
12.8976	3.88341
12.8656	3.96601
12.8337	4.30675
12.8021	4.60351
12.7705	4.83536
12.7391	5.03326
12.7079	5.35857
12.6769	5.71225
12.6459	6.17902
12.6152	6.79955
12.5845	7.45679
12.5541	7.94719
12.5238	8.50155
12.4936	9.07446
12.4635	9.69139
12.4337	10.3848
12.4039	10.8405
12.3743	11.0702
12.3448	11.2279
12.3155	11.2511
12.2863	11.1773
12.2573	10.8505
12.2284	10.4182
12.1996	9.93875
12.171	9.09135
12.1425	8.20755
12.1141	7.40314
12.0859	6.62447
12.0578	5.93958
12.0298	5.32613
12.0019	4.80511
11.9742	4.23075
11.9466	3.86984
11.9192	3.5879
11.8918	3.37903
11.8646	3.31287
11.8375	3.29268
11.8106	3.35058
11.7837	3.45542
11.757	3.6372
11.7304	3.853
11.7039	3.89932
11.6776	4.14825
11.6513	4.38909
11.6252	4.48335
11.5992	4.76859
11.5733	4.97238
11.5475	4.99238
11.5219	5.16358
11.4963	5.43504
11.4709	5.69295
11.4455	5.84666
11.4203	5.96164
11.3952	6.26677
11.3702	6.47394
11.3454	6.63068
11.3206	6.903
11.2959	7.18779
11.2714	7.45593
11.2469	7.88366
11.2226	8.16373
11.1983	8.3862
11.1742	8.67291
11.1502	9.06901
11.1263	9.3702
11.1024	9.75956
11.0787	10.2317
11.0551	10.8252
11.0316	11.3282
11.0081	11.8335
10.9848	12.4963
10.9616	13.0242
10.9385	13.6343
10.9154	14.3508
10.8925	15.0812
10.8697	15.8887
10.8469	16.7173
10.8243	17.564
10.8017	18.3312
10.7793	19.1332
10.7569	20.0315
10.7346	20.8214
10.7125	21.5771
10.6904	22.4261
10.6684	23.279
10.6465	24.045
10.6247	24.8992
10.6029	25.8739
10.5813	26.7229
10.5597	27.7379
10.5383	28.9215
10.5169	30.0888
10.4956	31.2187
10.4744	32.4492
10.4533	33.7469
10.4323	34.9534
10.4113	35.9195
10.3904	36.6118
10.3697	37.0014
10.349	37.1911
10.3284	37.1364
10.3078	36.9924
10.2874	36.7226
10.267	36.2971
10.2467	35.6947
10.2265	35.0267
10.2064	34.2589
10.1863	33.3737
10.1663	32.4001
10.1464	31.3795
10.1266	30.071
10.1069	28.6054
10.0872	26.79
10.0676	24.6833
10.0481	22.4182
10.0287	20.2307
10.0093	18.4674
9.99005	17.2254
9.97084	16.5074
9.95169	16.2044
9.93263	16.3618
9.91364	16.8052
9.89472	17.4122
9.87587	18.2038
9.8571	19.0743
9.83839	20.1316
9.81976	21.1863
9.80119	21.8412
9.78271	22.0263
9.76428	21.8813
9.74592	21.4246
9.72764	20.6132
9.70943	19.5725
9.69128	18.3756
9.6732	17.1716
9.65518	15.9862
9.63724	14.9645
9.61935	14.3718
9.60155	13.9496
9.5838	13.6116
9.56611	13.4859
9.5485	13.4626
9.53094	13.3901
9.51345	13.4001
9.49604	13.4713
9.47867	13.6119
9.46137	13.7417
9.44414	13.9239
9.42697	14.0649
9.40986	14.1109
9.39281	14.3107
9.37583	14.359
9.35891	14.3651
9.34204	14.5795
9.32524	14.901
9.3085	14.9701
9.29182	14.8373
9.27519	14.8088
9.25863	14.7826
9.24213	14.598
9.22568	14.4101
9.2093	14.1779
9.19297	13.7977
9.17669	13.4598
9.16048	13.2253
9.14433	13.0215
9.12823	12.576
9.11218	12.0556
9.0962	11.4726
9.08027	10.8494
9.06439	10.3072
9.04858	9.92599
9.03281	9.56919
9.0171	9.04509
9.00145	8.48736
8.98585	8.02393
8.9703	7.56828
8.9548	7.08989
8.93937	6.76551
8.92398	6.49595
8.90865	6.22204
8.89337	6.00143
8.87814	5.81937
8.86296	5.54152
8.84784	5.28715
8.83277	5.22089
8.81774	5.16352
8.80277	5.12364
8.78786	5.04283
8.77298	4.90889
8.75816	4.8528
8.7434	4.81963
8.72868	4.87391
8.714	4.98159
8.69938	4.87815
8.68481	4.80192
8.67029	4.85484
8.65581	4.9059
8.64139	4.93608
8.62701	5.04202
8.61268	5.17867
8.5984	5.37293
8.58416	5.68919
8.56997	5.91036
8.55583	6.05938
8.54174	6.41272
8.52769	6.80547
8.51368	7.1097
8.49973	7.43651
8.48582	7.84166
8.47195	8.37214
8.45813	8.89645
8.44436	9.37543
8.43062	9.90039
8.41693	10.5407
8.4033	11.408
8.3897	12.534
8.37614	13.9518
8.36264	15.5354
8.34917	17.0795
8.33574	18.3928
8.32236	19.4211
8.30903	20.1305
8.29573	20.6676
8.28248	21.1262
8.26927	21.493
8.2561	21.7949
8.24298	21.8557
8.2299	21.911
8.21685	22.109
8.20385	22.2676
8.19089	22.4995
8.17797	22.6293
8.16509	22.629
8.15225	22.6843
8.13946	22.7404
8.1267	22.8357
8.11398	23.0528
8.10131	23.153
8.08867	23.2049
8.07606	23.2766
8.0635	23.366
8.05099	23.4438
8.0385	23.4947
8.02606	23.5252
8.01366	23.6167
8.00129	23.6947
7.98896	23.7505
7.97667	23.6741
7.96442	23.6283
7.9522	23.6863
7.94002	23.7087
7.92788	23.6781
7.91578	23.6493
7.90371	23.5158
7.89168	23.4097
7.87969	23.33
7.86773	23.0928
7.85581	22.6707
7.84392	22.283
7.83207	21.7977
7.82026	21.079
7.80849	20.061
7.79674	18.5596
7.78503	16.7376
7.77337	14.8653
7.76173	12.9724
7.75012	11.1892
7.73856	9.66949
7.72703	8.30428
7.71553	7.20239
7.70406	6.20965
7.69263	5.2737
7.68123	4.51741
7.66987	3.93661
7.65855	3.36366
7.64725	2.82368
7.63598	2.3686
7.62475	2.0283
7.61356	1.83138
7.60239	1.66558
7.59126	1.44629
7.58017	1.17548
7.5691	0.993071
7.55806	0.860473
7.54707	0.718305
7.5361	0.612636
7.52516	0.550316
7.51425	0.503063
7.50338	0.443929
7.49253	0.456109
7.48172	0.498596
7.47094	0.481255
7.46019	0.433762
7.44947	0.379047
7.43879	0.378572
7.42813	0.38615
7.4175	0.399029
7.4069	0.371781
7.39634	0.369149
7.3858	0.367189
7.37529	0.268146
7.36482	0.219694
7.35437	0.274991
7.34396	0.268154
7.33357	0.27142
7.32321	0.281587
7.31288	0.273407
7.30258	0.274354
7.29231	0.290896
7.28207	0.36063
7.27185	0.373692
7.26167	0.296176
7.25152	0.30017
7.24139	0.29646
7.23129	0.25458
7.22122	0.287262
7.21117	0.360534
7.20116	0.266503
7.19117	0.263415
7.18121	0.319242
7.17128	0.296623
7.16137	0.237053
7.1515	0.322533
7.14164	0.422128
7.13182	0.384907
7.12203	0.398751
7.11225	0.374335
7.10251	0.364162
7.0928	0.330576
7.08311	0.348154
7.07344	0.355537
7.06381	0.393258
7.0542	0.52494
7.04461	0.596028
7.03506	0.51959
7.02552	0.465598
7.01601	0.498276
7.00653	0.471979
6.99708	0.44861
6.98765	0.516435
6.97824	0.598037
6.96886	0.543197
6.95951	0.489035
6.95018	0.566145
6.94087	0.544226
6.9316	0.561875
6.92234	0.559191
6.91311	0.568925
6.90391	0.635577
6.89473	0.611471
6.88557	0.625047
6.87644	0.649948
6.86733	0.610241
6.85824	0.585519
6.84918	0.595121
6.84015	0.664546
6.83114	0.732942
6.82215	0.721287
6.81319	0.680983
6.80424	0.64497
6.79532	0.681752
6.78643	0.767924
6.77756	0.846141
6.76871	0.840611
6.75989	0.767336
6.75109	0.756355
6.74231	0.749809
6.73355	0.703204
6.72482	0.7808
6.71611	0.858397
6.70742	0.816087
6.69875	0.816091
6.69011	0.979977
6.68149	1.00778
6.67289	0.915313
6.66431	0.932827
6.65576	0.943334
6.64722	0.962637
6.63871	0.995363
6.63022	0.982488
6.62175	0.942252
6.61331	0.92002
6.60488	0.983007
6.59648	1.05258
6.5881	1.03763
6.57974	1.13538
6.5714	1.26496
6.56308	1.2255
6.55478	1.17453
6.54651	1.14591
6.53825	1.13055
6.53001	1.15742
6.5218	1.16577
6.51361	1.10543
6.50544	1.13636
6.49729	1.18414
6.48915	1.16224
6.48104	1.09247
6.47295	1.02459
6.46488	0.955685
6.45683	1.00293
6.4488	1.10541
6.44079	1.13691
6.4328	1.20061
6.42482	1.244
6.41687	1.27495
6.40894	1.26104
6.40103	1.22675
6.39314	1.23663
6.38526	1.25272
6.37741	1.31593
6.36957	1.31439
6.36176	1.28254
6.35396	1.32879
6.34618	1.38811
6.33843	1.4142
6.33069	1.45373
6.32297	1.45947
6.31527	1.42581
6.30758	1.4218
6.29992	1.36373
6.29227	1.39166
6.28465	1.38013
6.27704	1.41851
6.26945	1.40922
6.26188	1.30591
6.25432	1.22577
6.24679	1.2905
6.23927	1.38846
6.23177	1.34515
6.22429	1.31895
6.21683	1.3926
6.20938	1.44641
6.20195	1.42288
6.19454	1.41525
6.18715	1.46809
6.17978	1.38858
6.17242	1.29257
6.16508	1.24526
6.15776	1.15663
6.15045	1.13622
6.14317	1.17226
6.1359	1.23858
6.12864	1.27069
6.12141	1.28646
6.11419	1.28125
6.10699	1.22299
6.0998	1.24974
6.09263	1.33303
6.08549	1.32627
6.07835	1.30259
6.07123	1.3572
6.06413	1.45732
6.05705	1.54393
6.04998	1.68286
6.04293	1.67501
6.0359	1.56771
6.02888	1.59665
6.02187	1.64786
6.01489	1.7023
6.00792	1.70444
6.00096	1.81705
5.99403	2.01065
5.98711	2.04095
5.9802	2.00826
5.97331	2.09986
5.96644	2.18933
5.95958	2.21983
5.95274	2.24157
5.94591	2.223
5.9391	2.28954
5.9323	2.23103
5.92552	2.18909
5.91876	2.20334
5.91201	2.07066
5.90528	2.02636
5.89856	2.18296
5.89186	2.16025
5.88517	2.13871
5.8785	2.2374
5.87184	2.20763
5.8652	2.16059
5.85857	2.06838
5.85196	2.05267
5.84536	1.96799
5.83878	1.89784
5.83221	1.95779
5.82566	2.0236
5.81912	2.09032
5.81259	2.03486
5.80608	1.95216
5.79959	1.98489
5.79311	2.01494
5.78665	2.07579
5.78019	2.0469
5.77376	2.0735
5.76734	2.15673
5.76093	2.13526
5.75453	2.12282
5.74815	2.15732
5.74179	2.18012
5.73543	2.16291
5.7291	2.20738
5.72277	2.22796
5.71646	2.23008
5.71017	2.18364
5.70389	2.12885
5.69762	2.12361
5.69136	2.19208
5.68513	2.29132
5.6789	2.285
5.67268	2.196
5.66648	2.20843
5.6603	2.3036
5.65413	2.28231
5.64797	2.26816
5.64182	2.36506
5.63569	2.40607
5.62957	2.30341
5.62347	2.2622
5.61737	2.26421
5.61129	2.20762
5.60522	2.2606
5.59917	2.29896
5.59313	2.20702
5.5871	2.15965
5.58109	2.23038
5.57509	2.36779
5.5691	2.43181
5.56312	2.48468
5.55716	2.48353
5.55121	2.39911
5.54528	2.4201
5.53935	2.47048
5.53344	2.48396
5.52754	2.46932
5.52166	2.44599
5.51578	2.45798
5.50992	2.47089
5.50407	2.46003
5.49823	2.43168
5.49241	2.47686
5.4866	2.57682
5.4808	2.63606
5.47501	2.67671
5.46923	2.71259
5.46347	2.75792
5.45772	2.76736
5.45198	2.79318
5.44625	2.78427
5.44054	2.85924
5.43484	2.97424
5.42914	2.93682
5.42347	2.97384
5.4178	3.05321
5.41214	3.03193
5.4065	3.02651
5.40087	3.09645
5.39525	3.1909
5.38964	3.24269
5.38404	3.27105
5.37846	3.33489
5.37288	3.30833
5.36732	3.23026
5.36177	3.15416
5.35623	3.18071
5.35071	3.19366
5.34519	3.15644
5.33968	3.05728
5.33419	2.99762
5.32871	3.03651
5.32324	3.11421
5.31778	3.1679
5.31233	3.12711
5.30689	3.04764
5.30147	2.95329
5.29605	2.91839
5.29065	2.86606
5.28525	2.80683
5.27987	2.82419
5.2745	2.71544
5.26914	2.50315
5.26379	2.40446
5.25845	2.40767
5.25312	2.39064
5.24781	2.39729
5.2425	2.40665
5.23721	2.3281
5.23192	2.22413
5.22665	2.20167
5.22138	2.24404
5.21613	2.20632
5.21089	2.11394
5.20566	1.97018
5.20044	1.92248
5.19522	1.94785
5.19002	1.91708
5.18483	1.89115
5.17965	1.87223
5.17448	1.90599
5.16933	1.94638
5.16418	2.02117
5.15904	2.02375
5.15391	1.93451
5.14879	1.92242
5.14368	1.97317
5.13859	1.92354
5.1335	1.91115
5.12842	1.90903
5.12335	1.90573
5.1183	1.96148
5.11325	2.02449
5.10821	2.01518
5.10318	1.99388
5.09817	2.01557
5.09316	2.10318
5.08816	2.14869
5.08317	2.20237
5.07819	2.31285
5.07322	2.32633
5.06826	2.32876
5.06331	2.32199
5.05837	2.33961
5.05344	2.39363
5.04852	2.38064
5.04361	2.4289
5.03871	2.59495
5.03382	2.73347
5.02894	2.70197
5.02406	2.69303
5.0192	2.82332
5.01435	2.88791
5.0095	2.83022
5.00467	2.87106
4.99984	2.96007
4.99502	3.05957
4.99021	3.20893
4.98542	3.25652
4.98063	3.32756
4.97585	3.41086
4.97108	3.47626
4.96632	3.50649
4.96156	3.52533
4.95682	3.68331
4.95209	3.76493
4.94736	3.74627
4.94264	3.80915
4.93794	3.82562
4.93324	3.93001
4.92855	4.03314
4.92387	4.08536
4.9192	4.20778
4.91453	4.31884
4.90988	4.36311
4.90524	4.43532
4.9006	4.49624
4.89597	4.52737
4.89135	4.5909
4.88674	4.76643
4.88214	5.02286
4.87755	5.15465
4.87296	5.33048
4.86839	5.56342
4.86382	5.67021
4.85926	5.80149
4.85471	5.9986
4.85017	6.10556
4.84564	6.23827
4.84111	6.40399
4.8366	6.50432
4.83209	6.59219
4.82759	6.74988
4.8231	6.83514
4.81862	6.92758
4.81415	7.13307
4.80968	7.31798
4.80522	7.46244
4.80077	7.66257
4.79633	8.00135
4.7919	8.31153
4.78747	8.61298
4.78306	9.05554
4.77865	9.43332
4.77425	9.69939
4.76986	10.0429
4.76547	10.3316
4.7611	10.5159
4.75673	10.798
4.75237	11.0653
4.74802	11.2747
4.74367	11.5129
4.73934	11.8723
4.73501	12.1441
4.73069	12.3252
4.72638	12.6043
4.72207	12.8654
4.71777	13.041
4.71348	13.2276
4.7092	13.4854
4.70493	13.6307
4.70066	13.7001
4.69641	13.8391
4.69216	13.9256
4.68791	13.9283
4.68368	13.924
4.67945	13.9607
4.67523	14.0201
4.67102	14.1745
4.66682	14.2509
4.66262	14.2833
4.65843	14.3905
4.65425	14.5326
4.65007	14.5982
4.64591	14.7404
4.64175	14.9493
4.6376	15.1658
4.63345	15.3855
4.62932	15.6244
4.62519	15.8777
4.62106	16.2201
4.61695	16.5508
4.61284	16.7582
4.60874	16.8998
4.60465	17.1487
4.60056	17.4099
4.59648	17.5586
4.59241	17.726
4.58835	18.0172
4.58429	18.2461
4.58024	18.4069
4.5762	18.5847
4.57216	18.6933
4.56814	18.9037
4.56411	19.1686
4.5601	19.3868
4.55609	19.6302
4.55209	19.8514
4.5481	20.05
4.54411	20.2472
4.54013	20.3794
4.53616	20.5492
4.5322	20.8275
4.52824	21.0067
4.52429	21.0622
4.52034	21.0915
4.51641	21.214
4.51247	21.311
4.50855	21.3463
4.50463	21.3457
4.50072	21.3259
4.49682	21.2345
4.49292	21.1473
4.48903	21.0834
4.48515	20.9977
4.48127	20.877
4.4774	20.7392
4.47354	20.6776
4.46968	20.6401
4.46584	20.743
4.46199	20.8079
4.45815	20.7881
4.45432	20.8988
4.4505	21.0826
4.44668	21.2963
4.44287	21.5838
4.43907	21.8744
4.43527	22.1782
4.43148	22.5376
4.4277	22.8818
4.42392	23.2708
4.42015	23.596
4.41638	23.9127
4.41262	24.2938
4.40887	24.7507
4.40513	25.2483
4.40139	25.5936
4.39765	25.9073
4.39393	26.2708
4.39021	26.5909
4.38649	26.8985
4.38278	27.1943
4.37908	27.4757
4.37539	27.7455
4.3717	27.9044
4.36801	27.8474
4.36434	27.3984
4.36067	27.0472
4.357	27.4471
4.35335	28.1675
4.34969	28.6763
4.34605	28.9759
4.34241	29.0374
4.33877	28.9343
4.33514	28.7669
4.33152	28.6959
4.32791	28.543
4.3243	28.2509
4.32069	27.8369
4.3171	27.3033
4.31351	26.7084
4.30992	25.9979
4.30634	25.1268
4.30277	24.0937
4.2992	22.9123
4.29564	21.7215
4.29208	20.3995
4.28853	18.8465
4.28499	17.3016
4.28145	15.9332
4.27792	14.6604
4.27439	13.3893
4.27087	12.1266
4.26735	10.9183
4.26384	10.0242
4.26034	9.38811
4.25684	8.82953
4.25335	8.42865
4.24986	7.98522
4.24638	6.94924
4.24291	5.34278
4.23944	4.11995
4.23598	4.07847
4.23252	5.13353
4.22906	6.51295
4.22562	7.45813
4.22218	7.92954
4.21874	8.14659
4.21531	8.43556
4.21189	9.03008
4.20847	10.1432
4.20506	11.706
4.20165	13.8457
4.19825	16.6628
4.19485	20.0574
4.19146	23.8385
4.18807	27.7823
4.18469	31.4663
4.18132	34.7026
4.17795	37.2217
4.17458	39.0367
4.17123	40.346
4.16787	41.3525
4.16453	42.0618
4.16118	42.6172
4.15785	43.0589
4.15451	43.4127
4.15119	43.6872
4.14787	43.9074
4.14455	44.087
4.14124	44.2197
4.13794	44.2914
4.13464	44.3654
4.13134	44.4331
4.12805	44.5445
4.12477	44.6182
4.12149	44.6309
4.11822	44.5931
4.11495	44.545
4.11168	44.4859
4.10843	44.4844
4.10517	44.496
4.10192	44.4061
4.09868	44.2819
4.09545	44.2672
4.09221	44.2884
4.08899	44.2601
4.08576	44.3064
4.08255	44.3959
4.07933	44.4592
4.07613	44.5777
4.07292	44.6765
4.06973	44.7441
4.06654	44.7854
4.06335	44.8837
4.06017	44.9472
4.05699	44.9867
4.05382	45.0855
4.05065	45.1629
4.04749	45.1998
4.04433	45.2683
4.04118	45.2809
4.03803	45.3607
4.03489	45.5255
4.03175	45.6703
4.02862	45.8125
4.02549	46.0871
4.02237	46.3751
4.01925	46.5997
4.01614	46.8052
4.01303	47.0465
4.00993	47.3304
4.00683	47.6654
4.00373	47.9405
4.00064	48.1494
3.99756	48.3916
3.99448	48.6319
3.9914	48.8355
3.98833	49.0536
3.98527	49.2638
3.98221	49.4312
3.97915	49.6049
3.9761	49.7345
3.97305	49.837
3.97001	49.9875
3.96697	50.1591
3.96394	50.3125
3.96091	50.4268
3.95789	50.4888
3.95487	50.5558
3.95186	50.7045
3.94885	50.8314
3.94584	50.9122
3.94284	50.9904
3.93984	51.0668
3.93685	51.153
3.93386	51.2491
3.93088	51.3172
3.9279	51.3585
3.92493	51.3811
3.92196	51.4541
3.919	51.559
3.91604	51.6635
3.91308	51.7578
3.91013	51.8564
3.90718	51.9407
3.90424	52.0045
3.9013	52.0955
3.89837	52.1361
3.89544	52.2008
3.89252	52.2465
3.8896	52.3326
3.88668	52.4626
3.88377	52.5677
3.88086	52.6393
3.87796	52.7161
3.87506	52.7477
3.87217	52.7914
3.86928	52.8804
3.86639	52.8711
3.86351	52.9043
3.86064	53.0215
3.85776	53.0815
3.8549	53.1354
3.85203	53.2496
3.84917	53.3473
3.84631	53.319
3.84346	53.3027
3.84062	53.2982
3.83777	53.289
3.83494	53.3866
3.8321	53.4433
3.82927	53.4725
3.82644	53.5282
3.82362	53.5875
3.82081	53.6084
3.81799	53.6607
3.81518	53.6376
3.81238	53.6328
3.80958	53.6599
3.80678	53.6328
3.80399	53.5968
3.8012	53.6533
3.79841	53.6261
3.79563	53.5183
3.79286	53.4883
3.79008	53.3898
3.78731	53.1988
3.78455	53.2659
3.78179	53.4675
3.77903	53.697
3.77628	53.9422
3.77353	54.0635
3.77079	54.0937
3.76805	54.1231
3.76531	54.1661
3.76258	54.239
3.75985	54.3167
3.75713	54.3599
3.7544	54.3672
3.75169	54.3613
3.74898	54.4048
3.74627	54.4975
3.74356	54.4921
3.74086	54.4856
3.73816	54.4846
3.73547	54.4738
3.73278	54.4848
3.7301	54.4849
3.72741	54.3683
3.72474	54.217
3.72206	54.1979
3.71939	54.4105
3.71673	54.7198
3.71406	54.9258
3.71141	54.9914
3.70875	55.0279
3.7061	55.0809
3.70345	55.0995
3.70081	55.0447
3.69817	55.0237
3.69553	55.0223
3.6929	55.0307
3.69027	55.0408
3.68765	55.0376
3.68503	55.0099
3.68241	54.9687
3.6798	54.9146
3.67719	54.9173
3.67458	54.9052
3.67198	54.8633
3.66938	54.8205
3.66678	54.7993
3.66419	54.7691
3.66161	54.7739
3.65902	54.7882
3.65644	54.7743
3.65387	54.7241
3.65129	54.669
3.64872	54.7817
3.64616	54.9206
3.64359	54.957
3.64103	54.9989
3.63848	55.0899
3.63593	55.2359
3.63338	55.337
3.63084	55.3703
3.6283	55.4707
3.62576	55.5638
3.62322	55.6193
3.62069	55.7447
3.61817	55.8882
3.61564	56.0182
3.61312	56.1575
3.61061	56.2806
3.6081	56.3292
3.60559	56.3948
3.60308	56.5044
3.60058	56.6224
3.59808	56.7394
3.59558	56.8981
3.59309	57.0628
3.59061	57.1646
3.58812	57.2375
3.58564	57.2818
3.58316	57.2495
3.58069	57.3393
3.57822	57.504
3.57575	57.6325
3.57328	57.7697
3.57082	57.8678
3.56836	57.8731
3.56591	57.9085
3.56346	58.0394
3.56101	58.1897
3.55857	58.2796
3.55613	58.3111
3.55369	58.3827
3.55126	58.4824
3.54883	58.5175
3.5464	58.5612
3.54397	58.5977
3.54155	58.6483
3.53914	58.6926
3.53672	58.7704
3.53431	58.8788
3.5319	58.9212
3.5295	58.9404
3.5271	59.0018
3.5247	59.0905
3.52231	59.1299
3.51991	59.0832
3.51753	59.0398
3.51514	59.0579
3.51276	58.9974
3.51038	58.9129
3.50801	58.9107
3.50563	58.8578
3.50327	58.8415
3.5009	58.8621
3.49854	58.8072
3.49618	58.883
3.49382	58.9648
3.49147	58.963
3.48912	58.9723
3.48677	58.9968
3.48443	59.0346
3.48209	59.1383
3.47975	59.1897
3.47742	59.1393
3.47509	59.0732
3.47276	59.0507
3.47044	59.0936
3.46812	59.1304
3.4658	59.1388
3.46348	59.1484
3.46117	59.184
3.45886	59.1307
3.45656	58.9619
3.45425	58.9251
3.45195	58.9553
3.44966	58.9438
3.44736	58.8712
3.44507	58.7564
3.44279	58.6949
3.4405	58.5447
3.43822	58.4185
3.43594	58.3236
3.43367	58.1977
3.43139	58.0865
3.42912	57.9488
3.42686	57.8069
3.42459	57.6182
3.42233	57.3782
3.42007	57.1403
3.41782	56.9918
3.41557	56.9162
3.41332	56.8619
3.41108	56.8261
3.40883	56.8661
3.40659	56.8772
3.40435	56.8185
3.40212	56.7016
3.39989	56.6663
3.39766	56.7312
3.39544	56.7571
3.39322	56.7376
3.391	56.7078
3.38878	56.6256
3.38657	56.5789
3.38436	56.5371
3.38215	56.4302
3.37994	56.2931
3.37774	56.1949
3.37554	56.1284
3.37335	56.2081
3.37115	56.2418
3.36896	56.1959
3.36678	56.2136
3.36459	56.2881
3.36241	56.3253
3.36023	56.328
3.35805	56.3795
3.35588	56.4411
3.35371	56.4661
3.35154	56.4051
3.34938	56.3171
3.34721	56.3342
3.34505	56.3539
3.3429	56.2765
3.34074	56.1836
3.33859	56.1901
3.33644	56.1697
3.3343	56.075
3.33215	55.9674
3.33001	55.865
3.32788	55.7823
3.32574	55.7548
3.32361	55.7033
3.32148	55.5797
3.31936	55.5025
3.31723	55.5154
3.31511	55.5516
3.31299	55.5201
3.31088	55.2833
3.30876	55.2311
3.30665	55.2737
3.30455	55.206
3.30244	55.2084
3.30034	55.184
3.29824	55.146
3.29614	55.0894
3.29405	55.0784
3.29196	55.0562
3.28987	55.0638
3.28778	55.1183
3.2857	55.1948
3.28362	55.2057
3.28154	55.2147
3.27946	55.3162
3.27739	55.3366
3.27532	55.4098
3.27325	55.5819
3.27119	55.6491
3.26913	55.6385
3.26707	55.7037
3.26501	55.794
3.26295	55.856
3.2609	55.9527
3.25885	56.0783
3.2568	56.0887
3.25476	56.053
3.25272	56.0725
3.25068	56.143
3.24864	56.1749
3.24661	56.172
3.24458	56.1387
3.24255	55.9711
3.24052	55.7379
3.2385	55.457
3.23648	55.1935
3.23446	54.8925
3.23244	54.4031
3.23043	53.8125
3.22841	53.0472
3.2264	52.1218
3.2244	51.1383
3.22239	50.1561
3.22039	49.163
3.21839	48.3492
3.2164	47.9029
3.2144	47.85
3.21241	47.9723
3.21042	48.2617
3.20844	48.73
3.20645	49.2216
3.20447	49.6635
3.20249	49.9812
3.20051	50.2623
3.19854	50.514
3.19657	50.7493
3.1946	51.0156
3.19263	51.1442
3.19067	51.1935
3.1887	51.3267
3.18674	51.3723
3.18479	51.2957
3.18283	51.228
3.18088	51.1715
3.17893	51.0755
3.17698	50.9098
3.17504	50.6376
3.17309	50.3778
3.17115	50.1219
3.16921	49.8285
3.16728	49.5541
3.16534	49.3612
3.16341	49.3613
3.16148	49.4507
3.15956	49.525
3.15763	49.6372
3.15571	49.7896
3.15379	49.9619
3.15187	50.1264
3.14996	50.0899
3.14805	50.07
3.14614	50.1273
3.14423	50.0219
3.14232	49.8491
3.14042	49.7053
3.13852	49.5002
3.13662	49.396
3.13472	49.2409
3.13283	48.9782
3.13094	48.7626
3.12905	48.5131
3.12716	48.2453
3.12528	48.0229
3.12339	47.7289
3.12151	47.4044
3.11964	47.0781
3.11776	46.7549
3.11589	46.3528
3.11401	45.8893
3.11214	45.4237
3.11028	44.8921
3.10841	44.1512
3.10655	43.4392
3.10469	42.9064
3.10283	42.2732
3.10098	41.5606
3.09912	41.0334
3.09727	40.6578
3.09542	40.2928
3.09358	40.0004
3.09173	39.9508
3.08989	40.1365
3.08805	40.4991
3.08621	41.0089
3.08437	41.6812
3.08254	42.3646
3.08071	43.0404
3.07888	43.856
3.07705	44.5642
3.07523	45.043
3.0734	45.4803
3.07158	45.8057
3.06977	45.9206
3.06795	46.0423
3.06613	46.134
3.06432	46.114
3.06251	46.1631
3.0607	46.0883
3.0589	46.0545
3.0571	45.9485
3.05529	45.7641
3.05349	45.7917
3.0517	45.7523
3.0499	45.5274
3.04811	45.2912
3.04632	45.0757
3.04453	45.0174
3.04274	44.8869
3.04096	44.6416
3.03918	44.409
3.0374	44.2469
3.03562	44.0697
3.03384	43.8737
3.03207	43.7286
3.03029	43.55
3.02852	43.2744
3.02676	43.035
3.02499	42.8962
3.02323	42.8074
3.02146	42.6073
3.0197	42.4067
3.01795	42.2278
3.01619	42.0314
3.01444	41.9119
3.01269	41.652
3.01094	41.3908
3.00919	41.2449
3.00744	41.043
3.0057	40.8652
3.00396	40.6697
3.00222	40.3713
3.00048	40.1098
2.99875	39.8993
2.99701	39.6456
2.99528	39.4302
2.99355	39.2978
2.99183	39.0932
2.9901	38.7229
2.98838	38.4229
2.98666	38.1777
2.98494	37.9683
2.98322	37.6964
2.9815	37.4439
2.97979	37.2774
2.97808	37.1685
2.97637	37.1091
2.97466	36.8148
2.97295	36.422
2.97125	36.1897
2.96955	36.0041
2.96785	35.7992
2.96615	35.5079
2.96446	35.2638
2.96276	35.0712
2.96107	34.793
2.95938	34.508
2.95769	34.1642
2.95601	33.7968
2.95432	33.5778
2.95264	33.2406
2.95096	32.8908
2.94928	32.61
2.9476	32.3203
2.94593	32.0187
2.94425	31.7473
2.94258	31.4029
2.94092	31.2102
2.93925	30.9719
2.93758	30.61
2.93592	30.3293
2.93426	29.9936
2.9326	29.789
2.93094	29.5464
2.92928	29.2106
2.92763	28.9767
2.92598	28.7831
2.92433	28.534
2.92268	28.139
2.92103	27.7394
2.91939	27.312
2.91775	26.848
2.9161	26.4712
2.91447	26.1527
2.91283	25.7685
2.91119	25.2251
2.90956	24.6931
2.90793	24.3061
2.9063	23.885
2.90467	23.4283
2.90304	22.9671
2.90142	22.5354
2.89979	22.0246
2.89817	21.565
2.89656	21.2294
2.89494	20.8865
2.89332	20.6629
2.89171	20.2903
2.8901	19.813
2.88849	19.4188
2.88688	18.9696
2.88527	18.4904
2.88367	17.8525
2.88206	17.3374
2.88046	17.0749
2.87886	16.5981
2.87727	16.063
2.87567	15.6005
2.87408	15.2716
2.87248	14.9787
2.87089	14.587
2.8693	14.2107
2.86772	13.9428
2.86613	13.6791
2.86455	13.4349
2.86297	13.278
2.86139	13.054
2.85981	12.7919
2.85823	12.6295
2.85666	12.6022
2.85508	12.5767
2.85351	12.3464
2.85194	12.0071
2.85038	11.8541
2.84881	11.772
2.84724	11.5761
2.84568	11.3411
2.84412	11.1671
2.84256	11.145
2.841	11.2195
2.83945	11.1539
2.83789	11.0114
2.83634	11.1045
2.83479	11.1148
2.83324	10.9892
2.83169	10.9127
2.83015	10.8816
2.82861	10.8336
2.82706	10.7942
2.82552	10.6748
2.82398	10.3541
2.82245	9.96976
2.82091	9.4867
2.81938	9.12911
2.81784	8.71694
2.81631	8.39428
2.81479	8.275
2.81326	8.2458
2.81173	8.07322
2.81021	7.99065
2.80869	8.11061
2.80716	8.09461
2.80565	8.00906
2.80413	7.9538
2.80261	7.91322
2.8011	7.79723
2.79959	7.59387
2.79808	7.34599
2.79657	7.16634
2.79506	6.779
2.79355	6.14266
2.79205	5.75541
2.79055	5.33223
2.78904	4.76985
2.78754	4.43649
2.78605	4.15875
2.78455	3.898
2.78306	3.75814
2.78156	3.72266
2.78007	3.44374
2.77858	3.35179
2.77709	3.56792
2.77561	3.66745
2.77412	3.49674
2.77264	3.5108
2.77116	4.51441
2.76968	5.95751
2.7682	7.04374
2.76672	7.42895
2.76524	7.51354
2.76377	7.7356
2.7623	7.76837
2.76083	7.3792
2.75936	7.01423
2.75789	7.14914
2.75642	7.4118
2.75496	7.11012
2.7535	6.6297
2.75203	6.41574
2.75057	6.22396
2.74912	6.10434
2.74766	5.9315
2.7462	5.67641
2.74475	5.43748
2.7433	5.17102
2.74185	5.02537
2.7404	4.81303
2.73895	4.55538
2.7375	4.26746
2.73606	4.086
2.73462	4.10863
2.73318	4.03714
2.73174	4.04331
2.7303	4.12853
2.72886	4.16
2.72742	4.10709
2.72599	4.04943
2.72456	3.99501
2.72313	3.91541
2.7217	4.01363
2.72027	4.01869
2.71884	3.83626
2.71742	3.60644
2.71599	3.44521
2.71457	3.4954
2.71315	3.55279
2.71173	3.57686
2.71032	3.4104
2.7089	3.17675
2.70748	3.06412
2.70607	3.05309
2.70466	3.02513
2.70325	3.12651
2.70184	3.21591
2.70043	3.25143
2.69903	3.28391
2.69762	3.38876
2.69622	3.55683
2.69482	3.65283
2.69342	3.79948
2.69202	3.90715
2.69062	4.01804
2.68923	4.29955
2.68783	4.50108
2.68644	4.68716
2.68505	4.97692
2.68366	5.32397
2.68227	5.40182
2.68089	5.62377
2.6795	6.04705
2.67812	6.31503
2.67673	6.49604
2.67535	6.62005
2.67397	6.70391
2.6726	6.90245
2.67122	7.47326
2.66984	7.70493
2.66847	7.75158
2.6671	8.11667
2.66572	8.35232
2.66435	8.63052
2.66299	8.60879
2.66162	8.59618
2.66025	8.76696
2.65889	9.04573
2.65753	9.17226
2.65616	9.34372
2.65481	9.59956
2.65345	9.91268
2.65209	10.1025
2.65073	10.2216
2.64938	10.3957
2.64803	10.4908
2.64667	10.788
2.64532	11.1293
2.64397	11.2095
2.64263	11.2295
2.64128	11.2483
2.63994	11.2646
2.63859	11.3538
2.63725	11.5239
2.63591	11.5452
2.63457	11.6517
2.63323	11.6813
2.6319	11.7737
2.63056	11.8771
2.62923	11.6048
2.62789	11.485
2.62656	11.5217
2.62523	11.2775
2.6239	11.0452
2.62258	10.9532
2.62125	11.2054
2.61993	11.2401
2.6186	10.9804
2.61728	11.0511
2.61596	10.8869
2.61464	10.541
2.61332	10.3669
2.61201	10.1328
2.61069	10.0758
2.60938	10.1843
2.60807	10.1871
2.60675	10.1635
2.60544	10.1097
2.60414	9.94108
2.60283	9.75615
2.60152	9.58753
2.60022	9.56911
2.59891	9.5379
2.59761	9.59741
2.59631	9.76732
2.59501	10.089
2.59371	9.93263
2.59242	9.62794
2.59112	9.52049
2.58983	9.61134
2.58853	9.64153
2.58724	9.58588
2.58595	9.56213
2.58466	9.82388
2.58338	9.85783
2.58209	9.76597
2.5808	9.90314
2.57952	9.92448
2.57824	9.98713
2.57695	10.0985
2.57567	10.1647
2.5744	10.2242
2.57312	10.3759
2.57184	10.5028
2.57057	10.6819
2.56929	10.6606
2.56802	10.5818
2.56675	10.6517
2.56548	10.9126
2.56421	11.1858
2.56294	11.3687
2.56168	11.5923
2.56041	11.777
2.55915	11.8392
2.55789	12.0921
2.55662	12.4801
2.55536	12.9601
2.5541	13.4456
2.55285	13.8375
2.55159	14.3249
2.55034	14.8648
2.54908	15.533
2.54783	16.4008
2.54658	17.1146
2.54533	17.7608
2.54408	18.4801
2.54283	19.2002
2.54159	19.7898
2.54034	20.4711
2.5391	21.1898
2.53785	21.7758
2.53661	22.3863
2.53537	22.9403
2.53413	23.3946
2.53289	23.9855
2.53166	24.5336
2.53042	24.8451
2.52919	25.1398
2.52795	25.5493
2.52672	25.9841
2.52549	26.3379
2.52426	26.6489
2.52303	27.0638
2.52181	27.4834
2.52058	27.9617
2.51936	28.5028
2.51813	28.8514
2.51691	29.0355
2.51569	29.2513
2.51447	29.5898
2.51325	30.1249
2.51203	30.5531
2.51082	30.8526
2.5096	31.3091
2.50839	31.6213
2.50717	31.9044
2.50596	32.3069
2.50475	32.8024
2.50354	33.2925
2.50233	33.6434
2.50113	34.1395
2.49992	34.7177
2.49872	35.1343
2.49751	35.3698
2.49631	35.7739
2.49511	36.275
2.49391	36.7387
2.49271	37.1893
2.49151	37.5701
2.49031	38.0246
2.48912	38.4341
2.48792	38.7315
2.48673	39.0664
2.48554	39.4152
2.48435	39.895
2.48316	40.3049
2.48197	40.6694
2.48078	40.9526
2.4796	41.2388
2.47841	41.537
2.47723	41.7858
2.47604	41.976
2.47486	42.3378
2.47368	42.7214
2.4725	43.049
2.47132	43.3602
2.47014	43.5381
2.46897	43.7567
2.46779	43.9711
2.46662	44.1606
2.46545	44.4811
2.46427	44.9424
2.4631	45.3507
2.46193	45.6737
2.46077	46.0229
2.4596	46.328
2.45843	46.4432
2.45727	46.7536
2.4561	47.1122
2.45494	47.2888
2.45378	47.5337
2.45262	47.9372
2.45146	48.2493
2.4503	48.4499
2.44914	48.6365
2.44799	48.9329
2.44683	49.3162
2.44568	49.6076
2.44452	49.8106
2.44337	50.025
2.44222	50.1714
2.44107	50.4396
2.43992	50.8436
2.43877	51.1099
2.43763	51.2293
2.43648	51.4354
2.43534	51.7091
2.43419	51.9243
2.43305	52.22
2.43191	52.3552
2.43077	52.3679
2.42963	52.5528
2.42849	52.7381
2.42736	52.9192
2.42622	53.1952
2.42509	53.4389
2.42395	53.6271
2.42282	53.8686
2.42169	54.0416
2.42056	53.9492
2.41943	53.8618
2.4183	54.0014
2.41717	54.324
2.41605	54.5027
2.41492	54.5694
2.4138	54.8091
2.41267	55.078
2.41155	55.2738
2.41043	55.4441
2.40931	55.455
2.40819	55.569
2.40707	55.8881
2.40595	55.9636
2.40484	55.9973
2.40372	56.1765
2.40261	56.3531
2.4015	56.4584
2.40039	56.4286
2.39928	56.4729
2.39817	56.6559
2.39706	56.808
2.39595	56.7885
2.39484	56.8237
2.39374	56.9003
2.39263	57.0275
2.39153	57.1213
2.39043	57.098
2.38932	57.1469
2.38822	57.2836
2.38712	57.2479
2.38603	57.0879
2.38493	56.84
2.38383	56.7427
2.38274	56.6966
2.38164	56.7394
2.38055	56.8383
2.37946	56.9783
2.37836	57.1272
2.37727	57.2721
2.37618	57.3425
2.3751	57.3862
2.37401	57.5727
2.37292	57.7171
2.37184	57.7476
2.37075	57.7831
2.36967	57.9657
2.36859	58.0267
2.3675	57.9975
2.36642	57.876
2.36534	57.8455
2.36427	57.8091
2.36319	57.9075
2.36211	58.2808
2.36104	58.6241
2.35996	58.8667
2.35889	59.089
2.35781	59.1888
2.35674	59.2148
2.35567	59.116
2.3546	58.966
2.35353	58.957
2.35247	58.942
2.3514	58.8956
2.35033	58.984
2.34927	59.3233
2.3482	59.555
2.34714	59.7038
2.34608	59.8689
2.34502	60.0318
2.34396	60.2458
2.3429	60.2436
2.34184	60.0882
2.34078	60.1356
2.33973	60.1101
2.33867	59.9988
2.33762	60.0598
2.33656	60.0831
2.33551	60.2118
2.33446	60.4031
2.33341	60.4839
2.33236	60.6702
2.33131	60.9114
2.33026	60.9161
2.32922	61.1194
2.32817	61.3919
2.32712	61.4151
2.32608	61.4771
2.32504	61.803
2.324	61.9792
2.32295	62.1144
2.32191	62.4043
2.32087	62.5805
2.31984	62.5218
2.3188	62.5764
2.31776	62.7044
2.31673	62.7338
2.31569	62.8414
2.31466	62.9874
2.31362	63.2339
2.31259	63.4023
2.31156	63.3567
2.31053	63.4626
2.3095	63.5216
2.30847	63.6004
2.30745	63.6451
2.30642	63.6897
2.3054	63.7464
2.30437	63.7919
2.30335	63.8394
2.30232	63.8411
2.3013	63.9124
2.30028	63.975
2.29926	64.0615
2.29824	64.2418
2.29722	64.4361
2.29621	64.5397
2.29519	64.4211
2.29417	64.3218
2.29316	64.4565
2.29215	64.6129
2.29113	64.6179
2.29012	64.745
2.28911	64.9063
2.2881	64.9093
2.28709	64.7637
2.28608	64.6381
2.28507	64.7424
2.28407	64.8763
2.28306	64.9167
2.28206	64.8863
2.28105	64.9168
2.28005	64.9664
2.27905	65.0429
2.27805	65.157
2.27705	65.2357
2.27605	65.327
2.27505	65.4423
2.27405	65.5658
2.27305	65.5262
2.27206	65.5439
2.27106	65.6092
2.27007	65.6036
2.26907	65.6541
2.26808	65.7349
2.26709	65.8005
2.2661	65.8563
2.26511	65.7967
2.26412	65.7945
2.26313	65.8678
2.26214	66.0519
2.26116	66.1769
2.26017	66.2272
2.25919	66.1885
2.2582	66.1091
2.25722	66.1182
2.25624	66.1984
2.25526	66.2005
2.25428	66.2043
2.2533	66.1769
2.25232	66.2778
2.25134	66.4591
2.25036	66.4072
2.24939	66.3708
2.24841	66.3456
2.24744	66.2917
2.24646	66.3457
2.24549	66.3784
2.24452	66.3919
2.24355	66.3863
2.24257	66.421
2.24161	66.4576
2.24064	66.5659
2.23967	66.6199
2.2387	66.4818
2.23774	66.4277
2.23677	66.5975
2.23581	66.8098
2.23484	66.7479
2.23388	66.6369
2.23292	66.5293
2.23196	66.543
2.231	66.6173
2.23004	66.6286
2.22908	66.5765
2.22812	66.5626
2.22716	66.6657
2.22621	66.6638
2.22525	66.6656
2.2243	66.6586
2.22334	66.5903
2.22239	66.5791
2.22144	66.5716
2.22049	66.5446
2.21953	66.4639
2.21859	66.3213
2.21764	66.3769
2.21669	66.5689
2.21574	66.5289
2.21479	66.3261
2.21385	66.2868
2.2129	66.2548
2.21196	66.1407
2.21102	65.9262
2.21007	65.8156
2.20913	65.858
2.20819	65.8042
2.20725	65.6326
2.20631	65.4989
2.20537	65.2951
2.20444	65.0798
2.2035	64.9206
2.20256	64.9272
2.20163	64.9229
2.20069	64.7408
2.19976	64.5367
2.19883	64.3393
2.19789	64.3495
2.19696	64.5476
2.19603	64.7362
2.1951	65.0405
2.19417	65.1938
2.19325	65.2165
2.19232	65.3657
2.19139	65.479
2.19047	65.4457
2.18954	65.297
2.18862	65.3561
2.18769	65.5669
2.18677	65.5841
2.18585	65.6309
2.18493	65.6395
2.18401	65.6783
2.18309	65.691
2.18217	65.5656
2.18125	65.4681
2.18033	65.5874
2.17942	65.7071
2.1785	65.7944
2.17759	65.8381
2.17667	65.7707
2.17576	65.6788
2.17485	65.6322
2.17393	65.5963
2.17302	65.6474
2.17211	65.6503
2.1712	65.6448
2.17029	65.7029
2.16939	65.6383
2.16848	65.5776
2.16757	65.6451
2.16667	65.6273
2.16576	65.3682
2.16486	65.2235
2.16395	65.2229
2.16305	65.1507
2.16215	65.0544
2.16125	65.0363
2.16035	64.9229
2.15945	64.6328
2.15855	64.381
2.15765	64.2226
2.15675	64.0886
2.15586	63.8014
2.15496	63.3841
2.15406	63.1153
2.15317	62.9324
2.15228	62.8181
2.15138	62.5911
2.15049	62.5241
2.1496	62.7692
2.14871	62.8748
2.14782	62.8946
2.14693	63.0932
2.14604	63.595
2.14515	64.0966
2.14427	64.4436
2.14338	64.6928
2.14249	64.9529
2.14161	65.3066
2.14072	65.6846
2.13984	65.9449
2.13896	66.1427
2.13808	66.3275
2.13719	66.3393
2.13631	66.3192
2.13543	66.45
2.13455	66.5625
2.13368	66.6929
2.1328	66.6828
2.13192	66.5961
2.13105	66.5411
2.13017	66.6408
2.1293	66.7113
2.12842	66.5465
2.12755	66.4988
2.12668	66.5539
2.1258	66.5591
2.12493	66.6878
2.12406	66.7776
2.12319	66.8467
2.12232	66.8125
2.12145	66.7494
2.12059	66.7481
2.11972	66.715
2.11885	66.8008
2.11799	66.7877
2.11712	66.6186
2.11626	66.5505
2.1154	66.7111
2.11453	66.873
2.11367	66.7954
2.11281	66.7889
2.11195	66.7695
2.11109	66.8614
2.11023	66.7489
2.10937	66.7827
2.10851	66.8629
2.10766	66.9533
2.1068	67.033
2.10594	66.9762
2.10509	66.8736
2.10423	66.9344
2.10338	66.8503
2.10253	66.7691
2.10168	66.7828
2.10082	66.6972
2.09997	66.5091
2.09912	66.5353
2.09827	66.7594
2.09742	66.7122
2.09658	66.7047
2.09573	66.7839
2.09488	66.7088
2.09404	66.6407
2.09319	66.5307
2.09235	66.4539
2.0915	66.3567
2.09066	66.2666
2.08982	66.0253
2.08897	65.8306
2.08813	65.8307
2.08729	65.8011
2.08645	65.6491
2.08561	65.3984
2.08477	65.1517
2.08394	64.8588
2.0831	64.6068
2.08226	64.3054
2.08143	64.4293
2.08059	64.6569
2.07976	64.6295
2.07892	64.6893
2.07809	64.9172
2.07726	65.1485
2.07643	65.2228
2.07559	65.1425
2.07476	65.2016
2.07393	65.1275
2.0731	65.1873
2.07228	65.4651
2.07145	65.6975
2.07062	65.6097
2.06979	65.4641
2.06897	65.254
2.06814	65.2064
2.06732	65.5545
2.06649	65.4118
2.06567	65.2136
2.06485	65.2917
2.06403	65.2547
2.0632	65.2047
2.06238	65.121
2.06156	65.2222
2.06074	65.1894
2.05993	64.869
2.05911	64.999
2.05829	64.7173
2.05747	64.7073
2.05666	64.9
2.05584	64.6463
2.05503	64.4535
2.05421	64.4643
2.0534	64.2112
2.05259	63.9905
2.05177	64.0826
2.05096	64.1965
2.05015	64.1582
2.04934	63.8884
2.04853	63.5882
2.04772	63.7527
2.04691	64.0579
2.04611	64.5387
2.0453	65.0304
2.04449	65.4595
2.04369	65.5704
2.04288	65.7161
2.04208	66.0047
2.04127	66.1333
2.04047	66.3541
2.03967	66.4178
2.03886	66.364
2.03806	66.3274
2.03726	66.371
2.03646	66.4623
2.03566	66.4733
2.03486	66.5394
2.03407	66.7288
2.03327	66.8102
2.03247	66.6155
2.03167	66.512
2.03088	66.6934
2.03008	66.8496
2.02929	66.7682
2.0285	66.6448
2.0277	66.5539
2.02691	66.4553
2.02612	66.4403
2.02533	66.3336
2.02453	66.3942
2.02374	66.5506
2.02295	66.4288
2.02217	66.271
2.02138	66.2332
2.02059	66.3628
2.0198	66.7085
2.01902	66.7243
2.01823	66.6008
2.01744	66.6392
2.01666	66.5688
2.01588	66.3268
2.01509	66.2948
2.01431	66.3062
2.01353	66.3303
2.01275	66.359
2.01196	66.3283
2.01118	66.2489
2.0104	66.1937
2.00963	66.0676
2.00885	66.0153
2.00807	66.1132
2.00729	66.1271
2.00651	66.1122
2.00574	66.0291
2.00496	65.8005
2.00419	65.7082
2.00341	65.7481
2.00264	65.8329
2.00187	65.6383
2.00109	65.432
2.00032	65.4669
