Name: Brucite Mg(OH)_2
Type: Mineral
Class: Hydroxides
Subclass: 
Particle Size: 0-45um
Sample No.: OH-1A
Owner: JPL
Wavelength range: IR
Origin: USA, Nevada, Nye County, Gabbs
Collected by JPL
Description: 





Measurement: Hemispherical reflectance
First Column: X
Second Column: Y
X Units:  Wavelength (micrometers)
Y Units:  Reflectance (percent)
First X Value: 15.3853
Last X Value: 2.00032
Number of X Values: 2256
Additional information: oh01aa.txt
 
15.3853	4.88363
15.3397	4.72346
15.2945	4.66361
15.2495	4.81081
15.2048	4.94719
15.1603	4.7542
15.1161	4.44916
15.0722	4.35174
15.0285	4.38448
14.9851	4.66285
14.9419	4.85002
14.8989	4.82567
14.8563	4.75656
14.8138	4.60215
14.7716	4.53788
14.7296	4.3218
14.6879	4.19881
14.6464	4.39866
14.6052	4.56047
14.5641	4.57481
14.5233	4.46076
14.4828	4.30686
14.4424	4.2857
14.4023	4.42559
14.3624	4.37161
14.3227	4.45332
14.2833	4.5199
14.244	4.57226
14.205	4.35704
14.1662	4.27383
14.1276	4.29112
14.0892	4.20352
14.051	4.1283
14.0131	4.21823
13.9753	4.26413
13.9377	4.37449
13.9004	4.38101
13.8632	4.30085
13.8262	4.26428
13.7895	4.34024
13.7529	4.32041
13.7165	4.14978
13.6803	4.06629
13.6443	4.08095
13.6085	3.95789
13.5729	4.01195
13.5374	4.02726
13.5022	3.84298
13.4671	3.82192
13.4322	3.87692
13.3975	3.70569
13.363	3.45947
13.3286	3.31862
13.2944	3.32837
13.2604	3.43198
13.2266	3.5107
13.193	3.52812
13.1595	3.39571
13.1262	3.25874
13.093	3.22968
13.06	3.08654
13.0272	2.9738
12.9946	2.93485
12.9621	2.81299
12.9298	2.76346
12.8976	2.76023
12.8656	2.78341
12.8337	2.6789
12.8021	2.57043
12.7705	2.63509
12.7391	2.48885
12.7079	2.23436
12.6769	2.26371
12.6459	2.37469
12.6152	2.3685
12.5845	2.13065
12.5541	1.90547
12.5238	1.92646
12.4936	2.01921
12.4635	2.05274
12.4337	1.96712
12.4039	1.92883
12.3743	1.98655
12.3448	1.93542
12.3155	1.94068
12.2863	1.97619
12.2573	1.90971
12.2284	1.92206
12.1996	1.91046
12.171	1.75831
12.1425	1.64802
12.1141	1.75667
12.0859	1.76141
12.0578	1.59437
12.0298	1.64147
12.0019	1.79462
11.9742	1.72043
11.9466	1.65015
11.9192	1.57813
11.8918	1.58115
11.8646	1.63497
11.8375	1.63415
11.8106	1.56625
11.7837	1.61446
11.757	1.62392
11.7304	1.44057
11.7039	1.28298
11.6776	1.32983
11.6513	1.48574
11.6252	1.60946
11.5992	1.6809
11.5733	1.80088
11.5475	1.94248
11.5219	1.90239
11.4963	1.7828
11.4709	1.86691
11.4455	2.00422
11.4203	1.99646
11.3952	2.02475
11.3702	1.94467
11.3454	1.8554
11.3206	2.03011
11.2959	2.23939
11.2714	2.35321
11.2469	2.606
11.2226	2.7541
11.1983	2.7935
11.1742	2.82572
11.1502	2.91627
11.1263	2.91695
11.1024	2.86794
11.0787	2.89112
11.0551	2.99073
11.0316	2.95681
11.0081	2.96755
10.9848	2.97188
10.9616	3.01437
10.9385	3.17826
10.9154	3.2247
10.8925	3.23837
10.8697	3.31174
10.8469	3.22064
10.8243	3.10442
10.8017	3.0899
10.7793	3.07169
10.7569	3.03269
10.7346	2.9762
10.7125	2.95733
10.6904	2.90969
10.6684	2.83553
10.6465	2.81753
10.6247	2.77621
10.6029	2.82269
10.5813	2.84085
10.5597	2.76222
10.5383	2.75715
10.5169	2.76747
10.4956	2.85206
10.4744	2.92278
10.4533	2.8442
10.4323	2.8134
10.4113	2.86046
10.3904	2.76594
10.3697	2.85675
10.349	2.95779
10.3284	2.9192
10.3078	2.98173
10.2874	2.99756
10.267	2.79929
10.2467	2.80518
10.2265	2.83642
10.2064	2.94216
10.1863	3.05136
10.1663	3.15036
10.1464	3.22948
10.1266	3.29
10.1069	3.36033
10.0872	3.27754
10.0676	3.21345
10.0481	3.28741
10.0287	3.30046
10.0093	3.34421
9.99005	3.35781
9.97084	3.42536
9.95169	3.57485
9.93263	3.70649
9.91364	3.69631
9.89472	3.62768
9.87587	3.60983
9.8571	3.8014
9.83839	3.90913
9.81976	3.87179
9.80119	3.80608
9.78271	3.92658
9.76428	4.03743
9.74592	4.06809
9.72764	4.13807
9.70943	4.08576
9.69128	4.09347
9.6732	4.174
9.65518	4.14596
9.63724	4.08491
9.61935	4.10995
9.60155	4.27872
9.5838	4.37963
9.56611	4.36815
9.5485	4.24006
9.53094	4.24911
9.51345	4.39481
9.49604	4.4025
9.47867	4.40426
9.46137	4.53631
9.44414	4.57185
9.42697	4.61095
9.40986	4.70501
9.39281	4.71496
9.37583	4.6824
9.35891	4.77321
9.34204	4.79742
9.32524	4.75589
9.3085	4.90297
9.29182	4.96252
9.27519	5.00736
9.25863	5.09235
9.24213	5.12984
9.22568	5.14896
9.2093	5.02172
9.19297	5.01544
9.17669	5.29308
9.16048	5.4409
9.14433	5.45565
9.12823	5.6674
9.11218	5.96145
9.0962	6.32436
9.08027	6.63169
9.06439	6.78915
9.04858	6.90486
9.03281	7.10502
9.0171	7.36885
9.00145	7.68457
8.98585	7.9252
8.9703	8.05941
8.9548	8.05024
8.93937	7.91604
8.92398	8.07494
8.90865	8.3147
8.89337	8.4311
8.87814	8.5959
8.86296	8.71357
8.84784	8.86894
8.83277	8.953
8.81774	9.02329
8.80277	9.06683
8.78786	9.05575
8.77298	9.251
8.75816	9.3381
8.7434	9.25804
8.72868	9.15414
8.714	9.17804
8.69938	9.16873
8.68481	9.19945
8.67029	9.21249
8.65581	9.16943
8.64139	9.24343
8.62701	9.36032
8.61268	9.52585
8.5984	9.55941
8.58416	9.49303
8.56997	9.53601
8.55583	9.62542
8.54174	9.59924
8.52769	9.48128
8.51368	9.51034
8.49973	9.61684
8.48582	9.60623
8.47195	9.55923
8.45813	9.48431
8.44436	9.53674
8.43062	9.676
8.41693	9.77389
8.4033	9.79864
8.3897	9.8273
8.37614	9.83452
8.36264	9.78599
8.34917	9.79348
8.33574	9.90668
8.32236	9.97851
8.30903	9.84216
8.29573	9.83028
8.28248	9.92067
8.26927	10.0726
8.2561	10.2436
8.24298	10.2193
8.2299	10.2799
8.21685	10.4385
8.20385	10.5902
8.19089	10.6893
8.17797	10.6541
8.16509	10.7797
8.15225	10.9151
8.13946	10.8992
8.1267	11.0023
8.11398	11.2007
8.10131	11.3315
8.08867	11.322
8.07606	11.3543
8.0635	11.4404
8.05099	11.4612
8.0385	11.4703
8.02606	11.6176
8.01366	11.7865
8.00129	11.7573
7.98896	11.6945
7.97667	11.6848
7.96442	11.6788
7.9522	11.6676
7.94002	11.645
7.92788	11.5494
7.91578	11.5441
7.90371	11.6074
7.89168	11.6119
7.87969	11.6273
7.86773	11.7621
7.85581	11.8988
7.84392	11.9317
7.83207	11.872
7.82026	11.7386
7.80849	11.6729
7.79674	11.6838
7.78503	11.7027
7.77337	11.6713
7.76173	11.679
7.75012	11.6833
7.73856	11.5496
7.72703	11.5368
7.71553	11.6542
7.70406	11.7319
7.69263	11.7728
7.68123	11.7354
7.66987	11.7388
7.65855	11.8168
7.64725	11.8845
7.63598	11.8792
7.62475	11.8754
7.61356	11.9427
7.60239	11.9603
7.59126	11.928
7.58017	11.9906
7.5691	12.0615
7.55806	12.0958
7.54707	12.0944
7.5361	12.0849
7.52516	12.0133
7.51425	11.9708
7.50338	12.0206
7.49253	11.9605
7.48172	11.8515
7.47094	11.7409
7.46019	11.6812
7.44947	11.5881
7.43879	11.4345
7.42813	11.3768
7.4175	11.2846
7.4069	11.2425
7.39634	11.156
7.3858	11.0259
7.37529	10.9601
7.36482	10.8725
7.35437	10.7126
7.34396	10.5352
7.33357	10.4103
7.32321	10.2733
7.31288	10.0862
7.30258	9.89955
7.29231	9.76383
7.28207	9.5396
7.27185	9.36827
7.26167	9.25591
7.25152	9.04104
7.24139	8.74906
7.23129	8.60812
7.22122	8.44646
7.21117	8.22045
7.20116	8.10258
7.19117	8.04395
7.18121	8.02439
7.17128	7.85434
7.16137	7.56279
7.1515	7.33566
7.14164	7.16433
7.13182	6.99082
7.12203	6.90615
7.11225	6.81855
7.10251	6.66363
7.0928	6.4883
7.08311	6.33157
7.07344	6.03943
7.06381	5.66642
7.0542	5.34985
7.04461	5.18732
7.03506	4.96979
7.02552	4.73775
7.01601	4.71516
7.00653	4.81768
6.99708	4.85355
6.98765	4.92031
6.97824	4.97166
6.96886	5.00473
6.95951	5.05646
6.95018	5.08909
6.94087	5.18441
6.9316	5.30849
6.92234	5.43311
6.91311	5.59603
6.90391	5.73077
6.89473	5.89532
6.88557	6.11451
6.87644	6.30132
6.86733	6.48649
6.85824	6.66556
6.84918	6.63892
6.84015	6.62287
6.83114	6.77926
6.82215	6.8509
6.81319	6.75485
6.80424	6.75142
6.79532	6.74858
6.78643	6.62181
6.77756	6.47264
6.76871	6.36562
6.75989	6.32032
6.75109	6.36454
6.74231	6.28334
6.73355	6.20294
6.72482	6.33776
6.71611	6.51544
6.70742	6.62209
6.69875	6.70142
6.69011	6.77331
6.68149	6.96163
6.67289	7.16219
6.66431	7.25779
6.65576	7.31626
6.64722	7.46691
6.63871	7.65827
6.63022	7.68354
6.62175	7.64486
6.61331	7.71837
6.60488	7.89202
6.59648	8.09186
6.5881	8.2233
6.57974	8.2941
6.5714	8.35449
6.56308	8.39765
6.55478	8.45674
6.54651	8.35045
6.53825	8.2524
6.53001	8.31728
6.5218	8.4303
6.51361	8.48612
6.50544	8.59426
6.49729	8.74178
6.48915	8.75901
6.48104	8.71792
6.47295	8.82641
6.46488	9.15928
6.45683	9.39745
6.4488	9.54139
6.44079	9.84541
6.4328	10.2066
6.42482	10.5102
6.41687	11.0177
6.40894	11.2902
6.40103	11.3518
6.39314	11.6682
6.38526	11.9407
6.37741	12.1861
6.36957	12.4854
6.36176	12.7295
6.35396	13.0728
6.34618	13.453
6.33843	13.5961
6.33069	13.6853
6.32297	13.8678
6.31527	14.04
6.30758	14.2701
6.29992	14.4062
6.29227	14.5422
6.28465	14.7206
6.27704	14.8497
6.26945	14.9709
6.26188	15.1174
6.25432	15.0848
6.24679	15.0382
6.23927	15.0411
6.23177	15.0099
6.22429	15.0428
6.21683	15.1446
6.20938	15.1685
6.20195	15.1707
6.19454	15.2691
6.18715	15.407
6.17978	15.3274
6.17242	15.3354
6.16508	15.4493
6.15776	15.5657
6.15045	15.6366
6.14317	15.7471
6.1359	15.8398
6.12864	15.8675
6.12141	15.9675
6.11419	16.2122
6.10699	16.2255
6.0998	16.3361
6.09263	16.5117
6.08549	16.7756
6.07835	17.1964
6.07123	17.527
6.06413	17.6226
6.05705	17.9636
6.04998	18.5938
6.04293	18.7539
6.0359	18.799
6.02888	19.1081
6.02187	19.4581
6.01489	19.8944
6.00792	20.2906
6.00096	20.7004
5.99403	21.1715
5.98711	21.4931
5.9802	21.634
5.97331	21.8697
5.96644	22.1571
5.95958	22.1863
5.95274	22.3109
5.94591	22.7448
5.9391	23.7735
5.9323	24.7074
5.92552	25.2946
5.91876	25.944
5.91201	26.5347
5.90528	27.1807
5.89856	27.9507
5.89186	28.4383
5.88517	28.9806
5.8785	29.5396
5.87184	29.6198
5.8652	30.0351
5.85857	30.508
5.85196	30.9966
5.84536	31.5057
5.83878	32.0329
5.83221	32.6557
5.82566	33.3582
5.81912	33.7641
5.81259	33.9891
5.80608	34.3847
5.79959	34.8765
5.79311	35.3077
5.78665	35.7165
5.78019	36.0946
5.77376	36.6276
5.76734	37.2663
5.76093	37.3994
5.75453	37.5137
5.74815	37.885
5.74179	38.0455
5.73543	38.2423
5.7291	38.5216
5.72277	38.8642
5.71646	39.2385
5.71017	39.5554
5.70389	39.6579
5.69762	39.8053
5.69136	40.028
5.68513	40.2292
5.6789	40.537
5.67268	40.7876
5.66648	40.874
5.6603	41.1024
5.65413	41.3915
5.64797	41.6644
5.64182	41.9046
5.63569	41.8247
5.62957	41.8618
5.62347	42.0425
5.61737	42.2276
5.61129	42.4265
5.60522	42.6076
5.59917	42.6788
5.59313	42.7466
5.5871	42.9429
5.58109	43.1754
5.57509	43.271
5.5691	43.2042
5.56312	43.2962
5.55716	43.4559
5.55121	43.5258
5.54528	43.5523
5.53935	43.6159
5.53344	43.6343
5.52754	43.7526
5.52166	43.7812
5.51578	43.7572
5.50992	43.7898
5.50407	43.8051
5.49823	43.804
5.49241	43.8511
5.4866	43.9649
5.4808	44.1551
5.47501	44.2644
5.46923	44.4573
5.46347	44.6306
5.45772	44.7147
5.45198	44.8602
5.44625	45.0134
5.44054	45.1642
5.43484	45.3133
5.42914	45.4628
5.42347	45.7633
5.4178	45.8509
5.41214	45.8195
5.4065	45.9089
5.40087	46.0448
5.39525	46.0669
5.38964	46.0941
5.38404	46.1755
5.37846	46.1993
5.37288	46.2483
5.36732	46.3788
5.36177	46.5382
5.35623	46.7321
5.35071	46.8817
5.34519	46.9499
5.33968	47.0096
5.33419	47.1041
5.32871	47.2151
5.32324	47.3618
5.31778	47.4814
5.31233	47.5243
5.30689	47.5502
5.30147	47.6736
5.29605	47.8176
5.29065	47.9416
5.28525	47.9764
5.27987	48.0616
5.2745	48.1279
5.26914	48.1884
5.26379	48.2244
5.25845	48.2906
5.25312	48.363
5.24781	48.4123
5.2425	48.4337
5.23721	48.4631
5.23192	48.4765
5.22665	48.5578
5.22138	48.6198
5.21613	48.7584
5.21089	48.8262
5.20566	48.7475
5.20044	48.7859
5.19522	48.846
5.19002	48.8304
5.18483	48.8345
5.17965	48.8707
5.17448	48.9004
5.16933	48.912
5.16418	48.9009
5.15904	48.9104
5.15391	48.9864
5.14879	49.0169
5.14368	48.9478
5.13859	48.9381
5.1335	48.9425
5.12842	48.9292
5.12335	48.9635
5.1183	49.0161
5.11325	49.0453
5.10821	49.0192
5.10318	48.9976
5.09817	48.9782
5.09316	49.0271
5.08816	49.085
5.08317	49.0908
5.07819	49.1058
5.07322	49.1566
5.06826	49.1292
5.06331	49.1529
5.05837	49.2131
5.05344	49.2001
5.04852	49.2237
5.04361	49.2258
5.03871	49.2051
5.03382	49.2027
5.02894	49.1986
5.02406	49.2489
5.0192	49.2972
5.01435	49.2594
5.0095	49.3018
5.00467	49.3673
4.99984	49.3972
4.99502	49.426
4.99021	49.4077
4.98542	49.4365
4.98063	49.5112
4.97585	49.5864
4.97108	49.6369
4.96632	49.6509
4.96156	49.7116
4.95682	49.7903
4.95209	49.778
4.94736	49.7617
4.94264	49.8103
4.93794	49.8911
4.93324	49.8859
4.92855	49.8352
4.92387	49.8129
4.9192	49.8918
4.91453	50.032
4.90988	50.1236
4.90524	50.1129
4.9006	50.096
4.89597	50.1128
4.89135	50.1741
4.88674	50.258
4.88214	50.3455
4.87755	50.4276
4.87296	50.4151
4.86839	50.3626
4.86382	50.4607
4.85926	50.5179
4.85471	50.5183
4.85017	50.5183
4.84564	50.4709
4.84111	50.4983
4.8366	50.6443
4.83209	50.6835
4.82759	50.6308
4.8231	50.6168
4.81862	50.6371
4.81415	50.654
4.80968	50.6356
4.80522	50.6248
4.80077	50.703
4.79633	50.7708
4.7919	50.7695
4.78747	50.8803
4.78306	50.9282
4.77865	50.9016
4.77425	50.9295
4.76986	51.0258
4.76547	51.0957
4.7611	51.1319
4.75673	51.2073
4.75237	51.3271
4.74802	51.3458
4.74367	51.2889
4.73934	51.3313
4.73501	51.4089
4.73069	51.4503
4.72638	51.438
4.72207	51.4822
4.71777	51.5865
4.71348	51.6855
4.7092	51.646
4.70493	51.6567
4.70066	51.6912
4.69641	51.7774
4.69216	51.8197
4.68791	51.8461
4.68368	51.8162
4.67945	51.8543
4.67523	51.8893
4.67102	51.8867
4.66682	51.8925
4.66262	51.9151
4.65843	51.9615
4.65425	52.0152
4.65007	51.9984
4.64591	52.0139
4.64175	52.0656
4.6376	52.1284
4.63345	52.1315
4.62932	52.129
4.62519	52.1684
4.62106	52.1559
4.61695	52.1938
4.61284	52.2464
4.60874	52.302
4.60465	52.3959
4.60056	52.3886
4.59648	52.4209
4.59241	52.4956
4.58835	52.4782
4.58429	52.419
4.58024	52.4429
4.5762	52.4888
4.57216	52.5357
4.56814	52.5919
4.56411	52.6092
4.5601	52.643
4.55609	52.6857
4.55209	52.7065
4.5481	52.7582
4.54411	52.8474
4.54013	52.8542
4.53616	52.8334
4.5322	52.8534
4.52824	52.8754
4.52429	52.9206
4.52034	52.972
4.51641	52.9948
4.51247	52.9652
4.50855	52.9755
4.50463	53.0388
4.50072	53.0567
4.49682	53.0896
4.49292	53.1413
4.48903	53.189
4.48515	53.1634
4.48127	53.1783
4.4774	53.1646
4.47354	53.1859
4.46968	53.28
4.46584	53.3238
4.46199	53.3058
4.45815	53.2889
4.45432	53.3397
4.4505	53.4062
4.44668	53.4776
4.44287	53.5568
4.43907	53.4817
4.43527	53.4463
4.43148	53.5046
4.4277	53.564
4.42392	53.6649
4.42015	53.7239
4.41638	53.7029
4.41262	53.6945
4.40887	53.7351
4.40513	53.759
4.40139	53.7371
4.39765	53.72
4.39393	53.8309
4.39021	53.9179
4.38649	53.8861
4.38278	53.8756
4.37908	53.8944
4.37539	53.9361
4.3717	53.9969
4.36801	53.9803
4.36434	53.9854
4.36067	54.0368
4.357	54.0978
4.35335	54.0898
4.34969	54.0841
4.34605	54.1527
4.34241	54.1602
4.33877	54.1261
4.33514	54.1603
4.33152	54.1808
4.32791	54.2711
4.3243	54.3093
4.32069	54.2796
4.3171	54.2373
4.31351	54.2697
4.30992	54.3047
4.30634	54.3234
4.30277	54.3443
4.2992	54.3854
4.29564	54.4251
4.29208	54.4427
4.28853	54.4777
4.28499	54.5103
4.28145	54.4703
4.27792	54.4571
4.27439	54.5157
4.27087	54.568
4.26735	54.5576
4.26384	54.5947
4.26034	54.6138
4.25684	54.5797
4.25335	54.577
4.24986	54.6361
4.24638	54.6573
4.24291	54.6327
4.23944	54.5797
4.23598	54.6381
4.23252	54.6643
4.22906	54.6866
4.22562	54.7759
4.22218	54.801
4.21874	54.8074
4.21531	54.8072
4.21189	54.8621
4.20847	54.8818
4.20506	54.9246
4.20165	54.9392
4.19825	54.9061
4.19485	54.9141
4.19146	54.8768
4.18807	54.8958
4.18469	54.9093
4.18132	54.858
4.17795	54.8804
4.17458	54.9198
4.17123	54.977
4.16787	55.0143
4.16453	54.9759
4.16118	54.9532
4.15785	54.9682
4.15451	54.9624
4.15119	54.9212
4.14787	54.9131
4.14455	54.9791
4.14124	54.9884
4.13794	54.9738
4.13464	55.0069
4.13134	55.028
4.12805	55.0296
4.12477	54.9748
4.12149	55.0043
4.11822	55.0547
4.11495	54.9983
4.11168	54.9294
4.10843	54.9637
4.10517	55.0304
4.10192	54.999
4.09868	54.9528
4.09545	54.953
4.09221	54.9614
4.08899	54.8702
4.08576	54.8478
4.08255	54.9371
4.07933	54.9512
4.07613	54.8798
4.07292	54.8671
4.06973	54.8162
4.06654	54.7625
4.06335	54.7889
4.06017	54.8122
4.05699	54.8155
4.05382	54.7845
4.05065	54.7084
4.04749	54.677
4.04433	54.6287
4.04118	54.5914
4.03803	54.574
4.03489	54.5461
4.03175	54.5173
4.02862	54.4772
4.02549	54.4289
4.02237	54.3839
4.01925	54.3501
4.01614	54.2971
4.01303	54.242
4.00993	54.2501
4.00683	54.1926
4.00373	54.0506
4.00064	53.98
3.99756	53.9481
3.99448	53.8713
3.9914	53.7927
3.98833	53.753
3.98527	53.6741
3.98221	53.5341
3.97915	53.434
3.9761	53.3171
3.97305	53.1382
3.97001	53.0571
3.96697	53.0001
3.96394	52.9329
3.96091	52.8258
3.95789	52.7067
3.95487	52.646
3.95186	52.5585
3.94885	52.3664
3.94584	52.3439
3.94284	52.3773
3.93984	52.2963
3.93685	52.2169
3.93386	52.2257
3.93088	52.1941
3.9279	52.1825
3.92493	52.1913
3.92196	52.0831
3.919	52.0352
3.91604	52.0009
3.91308	51.9498
3.91013	51.9713
3.90718	52.0224
3.90424	52.027
3.9013	51.9602
3.89837	51.888
3.89544	51.8891
3.89252	51.8907
3.8896	51.8327
3.88668	51.8106
3.88377	51.7577
3.88086	51.7119
3.87796	51.7313
3.87506	51.7122
3.87217	51.69
3.86928	51.6441
3.86639	51.6421
3.86351	51.7203
3.86064	51.7031
3.85776	51.6603
3.8549	51.607
3.85203	51.5671
3.84917	51.5399
3.84631	51.5967
3.84346	51.6573
3.84062	51.6515
3.83777	51.5578
3.83494	51.4601
3.8321	51.3778
3.82927	51.3692
3.82644	51.3499
3.82362	51.2909
3.82081	51.1408
3.81799	50.9968
3.81518	50.9437
3.81238	50.8584
3.80958	50.7747
3.80678	50.6958
3.80399	50.6069
3.8012	50.574
3.79841	50.5378
3.79563	50.4474
3.79286	50.3864
3.79008	50.364
3.78731	50.3359
3.78455	50.2584
3.78179	50.2044
3.77903	50.2443
3.77628	50.163
3.77353	50.0582
3.77079	50.0199
3.76805	49.9809
3.76531	49.9538
3.76258	50.0156
3.75985	49.9657
3.75713	49.8395
3.7544	49.6962
3.75169	49.6584
3.74898	49.6534
3.74627	49.5909
3.74356	49.5443
3.74086	49.5316
3.73816	49.4624
3.73547	49.394
3.73278	49.34
3.7301	49.2808
3.72741	49.1337
3.72474	49.0511
3.72206	49.03
3.71939	48.9842
3.71673	48.8544
3.71406	48.7757
3.71141	48.6299
3.70875	48.5214
3.7061	48.2464
3.70345	47.4363
3.70081	46.3339
3.69817	46.6479
3.69553	47.6813
3.6929	48.0604
3.69027	48.1002
3.68765	48.0964
3.68503	48.023
3.68241	47.9006
3.6798	47.8093
3.67719	47.6862
3.67458	47.588
3.67198	47.5137
3.66938	47.4088
3.66678	47.2472
3.66419	47.1828
3.66161	47.1567
3.65902	47.0651
3.65644	46.9456
3.65387	46.8085
3.65129	46.705
3.64872	46.5979
3.64616	46.5006
3.64359	46.4197
3.64103	46.3336
3.63848	46.233
3.63593	46.1078
3.63338	45.9819
3.63084	45.8726
3.6283	45.7404
3.62576	45.6479
3.62322	45.5956
3.62069	45.4347
3.61817	45.2248
3.61564	45.0984
3.61312	44.9966
3.61061	44.8794
3.6081	44.8097
3.60559	44.7758
3.60308	44.7047
3.60058	44.6254
3.59808	44.5347
3.59558	44.4704
3.59309	44.4663
3.59061	44.4053
3.58812	44.3475
3.58564	44.3266
3.58316	44.3095
3.58069	44.2756
3.57822	44.1743
3.57575	44.0461
3.57328	43.9831
3.57082	43.9756
3.56836	43.8596
3.56591	43.656
3.56346	43.4985
3.56101	43.3943
3.55857	43.316
3.55613	43.1782
3.55369	42.9818
3.55126	42.7685
3.54883	42.6514
3.5464	42.5703
3.54397	42.4645
3.54155	42.307
3.53914	42.0953
3.53672	41.9866
3.53431	41.8486
3.5319	41.6829
3.5295	41.4906
3.5271	41.3088
3.5247	41.1408
3.52231	40.906
3.51991	40.7139
3.51753	40.5421
3.51514	40.3241
3.51276	40.1252
3.51038	39.9934
3.50801	39.9005
3.50563	39.8797
3.50327	39.7685
3.5009	39.6353
3.49854	39.6067
3.49618	39.5945
3.49382	39.5148
3.49147	39.5164
3.48912	39.5971
3.48677	39.6161
3.48443	39.6184
3.48209	39.5265
3.47975	39.3939
3.47742	39.3176
3.47509	39.2773
3.47276	39.1766
3.47044	39.1825
3.46812	39.2147
3.4658	39.1211
3.46348	38.9834
3.46117	38.9093
3.45886	38.7986
3.45656	38.7202
3.45425	38.6419
3.45195	38.4786
3.44966	38.4079
3.44736	38.2897
3.44507	38.2152
3.44279	38.2242
3.4405	38.1411
3.43822	38.0314
3.43594	37.8726
3.43367	37.757
3.43139	37.6155
3.42912	37.4433
3.42686	37.33
3.42459	37.1798
3.42233	36.947
3.42007	36.8649
3.41782	36.7643
3.41557	36.6361
3.41332	36.6178
3.41108	36.6765
3.40883	36.7044
3.40659	36.6897
3.40435	36.6602
3.40212	36.6175
3.39989	36.5806
3.39766	36.5574
3.39544	36.5611
3.39322	36.5387
3.391	36.6104
3.38878	36.5935
3.38657	36.3906
3.38436	36.2574
3.38215	36.1947
3.37994	36.0863
3.37774	36.0316
3.37554	36.0005
3.37335	35.9265
3.37115	35.87
3.36896	35.8613
3.36678	35.8024
3.36459	35.7143
3.36241	35.6464
3.36023	35.6473
3.35805	35.6136
3.35588	35.5506
3.35371	35.4696
3.35154	35.2476
3.34938	35.1424
3.34721	35.1046
3.34505	35.0312
3.3429	35.0629
3.34074	35.0693
3.33859	35.022
3.33644	34.9095
3.3343	34.7983
3.33215	34.7386
3.33001	34.6018
3.32788	34.4834
3.32574	34.4375
3.32361	34.3179
3.32148	34.1956
3.31936	34.1721
3.31723	34.0885
3.31511	34.0231
3.31299	33.9761
3.31088	33.8798
3.30876	33.8307
3.30665	33.7712
3.30455	33.7335
3.30244	33.7493
3.30034	33.7549
3.29824	33.6953
3.29614	33.5929
3.29405	33.5816
3.29196	33.6268
3.28987	33.5496
3.28778	33.4911
3.2857	33.5137
3.28362	33.5373
3.28154	33.5295
3.27946	33.4855
3.27739	33.4768
3.27532	33.3978
3.27325	33.3324
3.27119	33.3801
3.26913	33.4533
3.26707	33.5406
3.26501	33.4913
3.26295	33.4251
3.2609	33.3587
3.25885	33.2845
3.2568	33.2696
3.25476	33.2746
3.25272	33.219
3.25068	33.2291
3.24864	33.1908
3.24661	33.0072
3.24458	32.9249
3.24255	32.9951
3.24052	32.9985
3.2385	32.8696
3.23648	32.7982
3.23446	32.7934
3.23244	32.7654
3.23043	32.6627
3.22841	32.6876
3.2264	32.7186
3.2244	32.6013
3.22239	32.5096
3.22039	32.3867
3.21839	32.3316
3.2164	32.2542
3.2144	32.2297
3.21241	32.1621
3.21042	32.1183
3.20844	32.1653
3.20645	32.1981
3.20447	32.0432
3.20249	31.9179
3.20051	31.9167
3.19854	31.8727
3.19657	31.8099
3.1946	31.7436
3.19263	31.6562
3.19067	31.5646
3.1887	31.5611
3.18674	31.5391
3.18479	31.4676
3.18283	31.3831
3.18088	31.2503
3.17893	31.1576
3.17698	31.2369
3.17504	31.1921
3.17309	31.0416
3.17115	31.0262
3.16921	31.0549
3.16728	30.976
3.16534	30.7927
3.16341	30.6221
3.16148	30.4916
3.15956	30.5199
3.15763	30.4685
3.15571	30.2194
3.15379	30.1502
3.15187	30.2101
3.14996	30.0946
3.14805	29.9303
3.14614	29.7852
3.14423	29.6386
3.14232	29.5858
3.14042	29.4855
3.13852	29.2625
3.13662	29.0818
3.13472	28.9436
3.13283	28.7372
3.13094	28.487
3.12905	28.2987
3.12716	28.1417
3.12528	27.962
3.12339	27.7674
3.12151	27.5433
3.11964	27.4098
3.11776	27.2101
3.11589	26.9686
3.11401	26.957
3.11214	26.8747
3.11028	26.656
3.10841	26.4502
3.10655	26.3143
3.10469	26.1609
3.10283	25.8874
3.10098	25.7587
3.09912	25.6798
3.09727	25.5001
3.09542	25.2676
3.09358	25.0055
3.09173	24.8127
3.08989	24.7309
3.08805	24.5275
3.08621	24.1693
3.08437	23.9828
3.08254	23.8574
3.08071	23.6144
3.07888	23.3674
3.07705	23.1329
3.07523	22.9452
3.0734	22.8202
3.07158	22.7082
3.06977	22.4903
3.06795	22.276
3.06613	22.1864
3.06432	22.0704
3.06251	21.8484
3.0607	21.6921
3.0589	21.6753
3.0571	21.7335
3.05529	21.8595
3.05349	21.9549
3.0517	22.0221
3.0499	22.2161
3.04811	22.3333
3.04632	22.3893
3.04453	22.496
3.04274	22.5702
3.04096	22.7579
3.03918	22.9161
3.0374	23.0798
3.03562	23.2241
3.03384	23.487
3.03207	23.7791
3.03029	23.8804
3.02852	24.0221
3.02676	24.2834
3.02499	24.4886
3.02323	24.6166
3.02146	24.8118
3.0197	24.9442
3.01795	24.9095
3.01619	24.9083
3.01444	24.9706
3.01269	24.9631
3.01094	24.8789
3.00919	24.8379
3.00744	24.833
3.0057	24.8535
3.00396	24.874
3.00222	25.0835
3.00048	25.2279
2.99875	25.3053
2.99701	25.4739
2.99528	25.5455
2.99355	25.5163
2.99183	25.5343
2.9901	25.4686
2.98838	25.4329
2.98666	25.4679
2.98494	25.3224
2.98322	25.192
2.9815	25.0091
2.97979	24.7438
2.97808	24.5362
2.97637	24.2854
2.97466	24.0455
2.97295	24.0433
2.97125	24.0053
2.96955	24.0866
2.96785	24.1412
2.96615	24.1348
2.96446	24.1816
2.96276	24.0434
2.96107	23.9189
2.95938	23.9809
2.95769	24.1762
2.95601	24.2777
2.95432	24.3318
2.95264	24.4171
2.95096	24.4695
2.94928	24.5052
2.9476	24.548
2.94593	24.6121
2.94425	24.5823
2.94258	24.567
2.94092	24.5917
2.93925	24.5317
2.93758	24.4779
2.93592	24.6054
2.93426	24.6925
2.9326	24.5888
2.93094	24.5189
2.92928	24.6082
2.92763	24.583
2.92598	24.3463
2.92433	24.344
2.92268	24.4625
2.92103	24.3278
2.91939	24.2242
2.91775	24.2462
2.9161	24.3781
2.91447	24.3007
2.91283	24.0459
2.91119	23.8327
2.90956	23.8013
2.90793	23.7752
2.9063	23.6167
2.90467	23.5048
2.90304	23.5239
2.90142	23.4294
2.89979	23.2826
2.89817	23.2357
2.89656	23.1754
2.89494	22.9779
2.89332	22.6508
2.89171	22.4021
2.8901	22.2441
2.88849	21.9667
2.88688	21.6193
2.88527	21.4216
2.88367	21.3167
2.88206	21.0684
2.88046	20.7103
2.87886	20.4928
2.87727	20.3919
2.87567	20.3604
2.87408	20.3113
2.87248	20.3963
2.87089	20.6016
2.8693	20.9298
2.86772	21.2944
2.86613	21.5323
2.86455	21.5959
2.86297	21.6371
2.86139	21.6939
2.85981	21.9287
2.85823	22.0146
2.85666	21.8868
2.85508	21.9365
2.85351	22.0415
2.85194	21.9284
2.85038	21.7912
2.84881	21.7106
2.84724	21.6588
2.84568	21.6142
2.84412	21.6366
2.84256	21.6215
2.841	21.541
2.83945	21.4747
2.83789	21.3705
2.83634	21.4275
2.83479	21.4289
2.83324	21.5883
2.83169	21.8216
2.83015	21.7334
2.82861	21.5466
2.82706	21.4772
2.82552	21.3554
2.82398	21.26
2.82245	21.3038
2.82091	21.2731
2.81938	21.2818
2.81784	21.1748
2.81631	20.8964
2.81479	20.4873
2.81326	20.1364
2.81173	19.9138
2.81021	19.9445
2.80869	20.3007
2.80716	20.637
2.80565	20.7729
2.80413	20.7801
2.80261	20.6213
2.8011	20.1725
2.79959	19.2908
2.79808	18.2615
2.79657	17.4387
2.79506	16.9755
2.79355	17.1745
2.79205	18.0461
2.79055	19.1668
2.78904	19.9979
2.78754	20.5951
2.78605	21.1555
2.78455	21.6194
2.78306	22.0376
2.78156	22.3276
2.78007	22.4477
2.77858	22.6143
2.77709	22.6879
2.77561	22.5895
2.77412	22.7641
2.77264	23.2737
2.77116	23.634
2.76968	23.6086
2.7682	23.3753
2.76672	22.929
2.76524	22.3398
2.76377	21.8039
2.7623	21.7958
2.76083	22.405
2.75936	22.8721
2.75789	22.7549
2.75642	22.5508
2.75496	21.9216
2.7535	20.5695
2.75203	19.116
2.75057	18.2003
2.74912	18.2334
2.74766	18.4759
2.7462	18.2008
2.74475	17.1553
2.7433	16.2993
2.74185	16.1787
2.7404	16.3458
2.73895	16.5765
2.7375	16.5674
2.73606	16.8383
2.73462	17.1872
2.73318	17.0482
2.73174	16.5848
2.7303	15.927
2.72886	15.2657
2.72742	14.7069
2.72599	14.0486
2.72456	13.3447
2.72313	12.4047
2.7217	11.4529
2.72027	10.5229
2.71884	9.58872
2.71742	8.60178
2.71599	7.54333
2.71457	6.43991
2.71315	5.43697
2.71173	4.54685
2.71032	3.91413
2.7089	3.56834
2.70748	3.23142
2.70607	3.14568
2.70466	3.05674
2.70325	2.96316
2.70184	3.17438
2.70043	4.12156
2.69903	6.05369
2.69762	8.43213
2.69622	10.6167
2.69482	12.0312
2.69342	13.1674
2.69202	15.3949
2.69062	18.2892
2.68923	20.9498
2.68783	23.6275
2.68644	26.1261
2.68505	28.184
2.68366	30.0755
2.68227	31.7106
2.68089	33.23
2.6795	34.8805
2.67812	36.2109
2.67673	37.2493
2.67535	38.1817
2.67397	39.1062
2.6726	39.7784
2.67122	40.4544
2.66984	40.7999
2.66847	40.7304
2.6671	40.9578
2.66572	40.9796
2.66435	40.7148
2.66299	40.3683
2.66162	40.2718
2.66025	40.0991
2.65889	39.8353
2.65753	39.5427
2.65616	39.3158
2.65481	38.9937
2.65345	38.747
2.65209	38.3779
2.65073	37.8254
2.64938	37.3583
2.64803	36.8606
2.64667	36.4977
2.64532	36.1376
2.64397	35.7116
2.64263	35.3555
2.64128	34.8716
2.63994	34.4664
2.63859	34.4003
2.63725	34.4598
2.63591	34.6662
2.63457	35.0253
2.63323	35.1826
2.6319	35.5444
2.63056	36.1674
2.62923	36.5124
2.62789	36.9324
2.62656	37.5931
2.62523	38.0379
2.6239	38.415
2.62258	38.7742
2.62125	39.3675
2.61993	39.9341
2.6186	40.3081
2.61728	41.0196
2.61596	41.4085
2.61464	41.5558
2.61332	41.948
2.61201	42.3619
2.61069	42.9354
2.60938	43.4345
2.60807	43.8081
2.60675	44.3538
2.60544	44.9462
2.60414	45.2594
2.60283	45.4709
2.60152	45.8373
2.60022	46.1006
2.59891	46.4725
2.59761	47.1875
2.59631	48.0897
2.59501	49.0403
2.59371	49.2234
2.59242	49.2157
2.59112	49.5844
2.58983	50.3864
2.58853	51.2253
2.58724	51.8783
2.58595	52.4141
2.58466	53.0827
2.58338	53.3713
2.58209	53.2846
2.5808	53.2531
2.57952	53.1217
2.57824	53.1653
2.57695	53.0912
2.57567	52.7406
2.5744	52.4793
2.57312	52.334
2.57184	51.9834
2.57057	51.69
2.56929	51.4514
2.56802	50.9515
2.56675	50.5549
2.56548	50.344
2.56421	50.0519
2.56294	49.56
2.56168	49.0355
2.56041	48.4
2.55915	47.6212
2.55789	46.9324
2.55662	46.3415
2.55536	45.8305
2.5541	45.3864
2.55285	44.8238
2.55159	44.1851
2.55034	43.5996
2.54908	42.9949
2.54783	42.4715
2.54658	41.8774
2.54533	41.2532
2.54408	40.7888
2.54283	40.1988
2.54159	39.4223
2.54034	38.6858
2.5391	38.0092
2.53785	37.2678
2.53661	36.4046
2.53537	35.3844
2.53413	34.3742
2.53289	33.6149
2.53166	32.9679
2.53042	32.3386
2.52919	32.2775
2.52795	32.6062
2.52672	32.9197
2.52549	33.2868
2.52426	33.7483
2.52303	34.3862
2.52181	35.0005
2.52058	35.4962
2.51936	35.9376
2.51813	36.4593
2.51691	37.1512
2.51569	37.6164
2.51447	37.726
2.51325	37.5647
2.51203	37.1114
2.51082	36.6906
2.5096	36.0391
2.50839	34.9299
2.50717	33.9063
2.50596	32.9699
2.50475	31.9221
2.50354	30.8929
2.50233	29.9546
2.50113	29.0529
2.49992	28.1739
2.49872	27.4183
2.49751	26.8148
2.49631	26.2328
2.49511	25.8596
2.49391	25.7008
2.49271	25.3772
2.49151	25.0493
2.49031	24.5944
2.48912	24.0325
2.48792	23.4353
2.48673	22.8801
2.48554	22.493
2.48435	21.7982
2.48316	21.109
2.48197	20.6825
2.48078	20.4881
2.4796	20.4241
2.47841	20.4541
2.47723	20.5216
2.47604	20.6585
2.47486	21.0488
2.47368	21.653
2.4725	22.3673
2.47132	23.2439
2.47014	24.0465
2.46897	24.8536
2.46779	25.7048
2.46662	26.4421
2.46545	27.0628
2.46427	27.5381
2.4631	27.9043
2.46193	28.1927
2.46077	28.4079
2.4596	28.4333
2.45843	28.5077
2.45727	28.7234
2.4561	28.9505
2.45494	29.4575
2.45378	30.0971
2.45262	30.8505
2.45146	31.5449
2.4503	32.1237
2.44914	32.6092
2.44799	32.8889
2.44683	33.1167
2.44568	33.4257
2.44452	33.8854
2.44337	34.3694
2.44222	34.9457
2.44107	35.5522
2.43992	36.0965
2.43877	36.655
2.43763	37.2791
2.43648	37.9176
2.43534	38.4153
2.43419	38.7753
2.43305	39.0422
2.43191	39.3565
2.43077	39.7812
2.42963	40.0665
2.42849	40.3438
2.42736	40.8936
2.42622	41.628
2.42509	42.5363
2.42395	43.6256
2.42282	44.8861
2.42169	46.1856
2.42056	47.7451
2.41943	49.2235
2.4183	50.5777
2.41717	51.8823
2.41605	53.2365
2.41492	54.5935
2.4138	55.7485
2.41267	56.7526
2.41155	57.8062
2.41043	58.8303
2.40931	59.771
2.40819	60.6213
2.40707	61.27
2.40595	61.7244
2.40484	62.1003
2.40372	62.488
2.40261	62.8988
2.4015	63.3142
2.40039	63.5213
2.39928	63.6698
2.39817	63.9821
2.39706	64.159
2.39595	64.3325
2.39484	64.6285
2.39374	64.7648
2.39263	64.8709
2.39153	64.9957
2.39043	64.9763
2.38932	65.0711
2.38822	65.1624
2.38712	65.2294
2.38603	65.3919
2.38493	65.4755
2.38383	65.3956
2.38274	65.4349
2.38164	65.603
2.38055	65.6942
2.37946	65.6899
2.37836	65.6156
2.37727	65.5764
2.37618	65.5016
2.3751	65.5143
2.37401	65.5623
2.37292	65.4885
2.37184	65.4679
2.37075	65.4257
2.36967	65.5054
2.36859	65.5128
2.3675	65.3648
2.36642	65.2495
2.36534	65.1484
2.36427	65.0572
2.36319	64.9335
2.36211	64.8629
2.36104	64.7096
2.35996	64.576
2.35889	64.494
2.35781	64.2867
2.35674	64.0413
2.35567	63.7464
2.3546	63.4577
2.35353	63.1554
2.35247	62.8927
2.3514	62.6777
2.35033	62.3572
2.34927	61.9218
2.3482	61.4996
2.34714	61.1746
2.34608	60.6578
2.34502	60.1557
2.34396	59.8011
2.3429	59.206
2.34184	58.4752
2.34078	57.7826
2.33973	57.0881
2.33867	56.4047
2.33762	55.7873
2.33656	55.269
2.33551	54.7978
2.33446	54.2305
2.33341	53.7746
2.33236	53.4195
2.33131	53.0075
2.33026	52.5692
2.32922	52.1845
2.32817	51.7663
2.32712	51.4738
2.32608	51.1627
2.32504	50.8616
2.324	50.7404
2.32295	50.6015
2.32191	50.474
2.32087	50.4501
2.31984	50.5091
2.3188	50.5353
2.31776	50.4749
2.31673	50.5466
2.31569	50.8415
2.31466	51.1417
2.31362	51.4557
2.31259	51.8114
2.31156	52.1171
2.31053	52.4233
2.3095	52.7627
2.30847	53.1235
2.30745	53.4432
2.30642	53.7236
2.3054	54.0089
2.30437	54.3968
2.30335	54.8706
2.30232	55.1843
2.3013	55.4994
2.30028	55.9011
2.29926	56.105
2.29824	56.4277
2.29722	56.8803
2.29621	57.1566
2.29519	57.515
2.29417	57.8196
2.29316	58.1728
2.29215	58.4419
2.29113	58.5461
2.29012	58.8753
2.28911	59.1907
2.2881	59.3811
2.28709	59.6278
2.28608	59.8519
2.28507	60.1469
2.28407	60.3263
2.28306	60.3254
2.28206	60.4024
2.28105	60.5217
2.28005	60.5404
2.27905	60.5671
2.27805	60.7589
2.27705	60.9169
2.27605	60.8938
2.27505	60.9646
2.27405	61.1131
2.27305	61.0867
2.27206	61.0121
2.27106	61.0437
2.27007	61.1212
2.26907	61.2256
2.26808	61.2811
2.26709	61.1615
2.2661	61.1591
2.26511	61.329
2.26412	61.4699
2.26313	61.4224
2.26214	61.2934
2.26116	61.2346
2.26017	61.3326
2.25919	61.4643
2.2582	61.6522
2.25722	61.7335
2.25624	61.7352
2.25526	61.7214
2.25428	61.6421
2.2533	61.6347
2.25232	61.7779
2.25134	61.8294
2.25036	61.9437
2.24939	62.0042
2.24841	62.0472
2.24744	62.1598
2.24646	62.3385
2.24549	62.4691
2.24452	62.4636
2.24355	62.5015
2.24257	62.5017
2.24161	62.5512
2.24064	62.5954
2.23967	62.714
2.2387	63.0708
2.23774	63.2901
2.23677	63.2594
2.23581	63.3567
2.23484	63.559
2.23388	63.7492
2.23292	63.8299
2.23196	64.0503
2.231	64.2591
2.23004	64.3142
2.22908	64.3222
2.22812	64.4074
2.22716	64.6128
2.22621	64.8425
2.22525	64.9343
2.2243	65.0944
2.22334	65.2334
2.22239	65.3956
2.22144	65.5434
2.22049	65.6815
2.21953	65.9338
2.21859	66.1727
2.21764	66.2314
2.21669	66.408
2.21574	66.5519
2.21479	66.5645
2.21385	66.5983
2.2129	66.8068
2.21196	66.9803
2.21102	67.147
2.21007	67.3541
2.20913	67.336
2.20819	67.3131
2.20725	67.4015
2.20631	67.4583
2.20537	67.6266
2.20444	67.8473
2.2035	67.9311
2.20256	67.8412
2.20163	67.7931
2.20069	68.0039
2.19976	68.1917
2.19883	68.2919
2.19789	68.3252
2.19696	68.4368
2.19603	68.7012
2.1951	68.8593
2.19417	68.8944
2.19325	69.0603
2.19232	69.3154
2.19139	69.5273
2.19047	69.7026
2.18954	69.9054
2.18862	70.0412
2.18769	70.2441
2.18677	70.5395
2.18585	70.6849
2.18493	70.9808
2.18401	71.3297
2.18309	71.5787
2.18217	71.7968
2.18125	71.849
2.18033	71.8448
2.17942	72.169
2.1785	72.5325
2.17759	72.7101
2.17667	72.9287
2.17576	73.2547
2.17485	73.5306
2.17393	73.7442
2.17302	73.9338
2.17211	73.9742
2.1712	74.1371
2.17029	74.3759
2.16939	74.561
2.16848	74.6217
2.16757	74.7865
2.16667	75.0227
2.16576	74.9655
2.16486	74.8927
2.16395	75.0344
2.16305	75.2923
2.16215	75.4696
2.16125	75.3799
2.16035	75.2979
2.15945	75.5101
2.15855	75.6422
2.15765	75.5826
2.15675	75.5697
2.15586	75.4306
2.15496	75.5014
2.15406	75.6102
2.15317	75.6739
2.15228	75.6102
2.15138	75.5806
2.15049	75.5511
2.1496	75.5097
2.14871	75.5037
2.14782	75.3948
2.14693	75.2927
2.14604	75.3225
2.14515	75.2294
2.14427	74.9714
2.14338	75.0213
2.14249	75.2617
2.14161	75.0607
2.14072	74.9209
2.13984	74.9564
2.13896	75.0321
2.13808	75.1469
2.13719	75.093
2.13631	74.9638
2.13543	75.0212
2.13455	74.9917
2.13368	74.893
2.1328	74.802
2.13192	74.8392
2.13105	74.7606
2.13017	74.7823
2.1293	74.6798
2.12842	74.5826
2.12755	74.6313
2.12668	74.6963
2.1258	74.8997
2.12493	75.1487
2.12406	75.1198
2.12319	74.8803
2.12232	74.7919
2.12145	74.8452
2.12059	74.7997
2.11972	74.7919
2.11885	74.9186
2.11799	75.0814
2.11712	75.1221
2.11626	75.0286
2.1154	75.1321
2.11453	75.1965
2.11367	74.9214
2.11281	74.7186
2.11195	75.0017
2.11109	75.2282
2.11023	75.2745
2.10937	75.2672
2.10851	75.2142
2.10766	75.2287
2.1068	75.4405
2.10594	75.4057
2.10509	75.2845
2.10423	75.1817
2.10338	75.2122
2.10253	75.2754
2.10168	75.174
2.10082	75.1398
2.09997	75.2181
2.09912	75.3334
2.09827	75.6102
2.09742	75.7543
2.09658	75.6781
2.09573	75.6805
2.09488	75.72
2.09404	75.6857
2.09319	75.7024
2.09235	75.7062
2.0915	75.6798
2.09066	75.6313
2.08982	75.6211
2.08897	75.6775
2.08813	75.8112
2.08729	75.8562
2.08645	75.9019
2.08561	75.7145
2.08477	75.6461
2.08394	75.7469
2.0831	75.7132
2.08226	75.7424
2.08143	76.0381
2.08059	76.0796
2.07976	75.6871
2.07892	75.4068
2.07809	75.5632
2.07726	75.7078
2.07643	75.7938
2.07559	76.148
2.07476	75.8114
2.07393	75.6943
2.0731	76.1365
2.07228	75.8917
2.07145	75.9587
2.07062	76.394
2.06979	76.523
2.06897	76.4361
2.06814	76.1356
2.06732	76.0341
2.06649	75.765
2.06567	75.8705
2.06485	76.004
2.06403	76.0743
2.0632	75.9438
2.06238	75.8437
2.06156	75.7543
2.06074	75.8386
2.05993	76.0793
2.05911	76.1141
2.05829	76.121
2.05747	76.1805
2.05666	76.2938
2.05584	76.3657
2.05503	76.3046
2.05421	76.1875
2.0534	76.1906
2.05259	76.3518
2.05177	76.386
2.05096	76.6463
2.05015	76.6148
2.04934	76.3971
2.04853	76.4598
2.04772	76.5668
2.04691	76.6466
2.04611	76.7267
2.0453	76.7288
2.04449	76.6322
2.04369	76.6385
2.04288	76.7597
2.04208	77.0239
2.04127	77.0375
2.04047	76.8315
2.03967	76.8457
2.03886	76.9438
2.03806	76.9952
2.03726	77.0228
2.03646	77.23
2.03566	77.2602
2.03486	77.2235
2.03407	77.2963
2.03327	77.3267
2.03247	77.2318
2.03167	77.3967
2.03088	77.5909
2.03008	77.4593
2.02929	77.2153
2.0285	77.1555
2.0277	77.2797
2.02691	77.2684
2.02612	77.3469
2.02533	77.4425
2.02453	77.5837
2.02374	77.627
2.02295	77.7261
2.02217	77.7228
2.02138	77.585
2.02059	77.5038
2.0198	77.7375
2.01902	77.7655
2.01823	77.6063
2.01744	77.7126
2.01666	77.8924
2.01588	77.8663
2.01509	77.9134
2.01431	77.9247
2.01353	77.9122
2.01275	78.1011
2.01196	78.3235
2.01118	78.3082
2.0104	78.1642
2.00963	78.2111
2.00885	78.4656
2.00807	78.5794
2.00729	78.5615
2.00651	78.7163
2.00574	78.8123
2.00496	79.053
2.00419	79.0727
2.00341	79.0846
2.00264	79.1236
2.00187	79.2481
2.00109	79.2418
2.00032	79.2687
