Name: Witherite BaCO_3
Type: Mineral
Class: Carbonates
Subclass: 
Particle Size: 125-500um
Sample No.: C-2A
Owner: JPL
Wavelength range: IR
Origin: United Kingdom, England
Collected by Grieger's Inc.
Description: 





Measurement: Hemispherical reflectance
First Column: X
Second Column: Y
X Units:  Wavelength (micrometers)
Y Units:  Reflectance (percent)
First X Value: 15.3853
Last X Value: 2.00032
Number of X Values: 2256
Additional information: c02aa.txt
 
15.3853	31.3163
15.3397	31.1497
15.2945	31.0701
15.2495	31.1249
15.2048	30.7288
15.1603	29.6944
15.1161	28.1125
15.0722	26.1471
15.0285	23.9883
14.9851	21.8799
14.9419	19.9949
14.8989	18.5142
14.8563	16.9618
14.8138	15.112
14.7716	12.3967
14.7296	9.25516
14.6879	8.64187
14.6464	7.81141
14.6052	5.51577
14.5641	4.70303
14.5233	4.76499
14.4828	5.17261
14.4424	5.78784
14.4023	4.58517
14.3624	2.38718
14.3227	1.87901
14.2833	2.57601
14.244	3.33857
14.205	4.63724
14.1662	8.28404
14.1276	12.6403
14.0892	15.7069
14.051	18.2161
14.0131	20.3579
13.9753	22.0245
13.9377	23.6232
13.9004	25.571
13.8632	27.442
13.8262	28.9282
13.7895	30.2396
13.7529	31.5379
13.7165	32.6856
13.6803	33.4243
13.6443	33.8673
13.6085	34.2339
13.5729	34.5986
13.5374	34.7409
13.5022	34.5644
13.4671	34.332
13.4322	33.8107
13.3975	32.9234
13.363	31.9905
13.3286	30.9685
13.2944	29.9191
13.2604	28.7606
13.2266	27.5163
13.193	26.1769
13.1595	24.9614
13.1262	24.0267
13.093	23.3252
13.06	22.6929
13.0272	22.2211
12.9946	22.2165
12.9621	22.4146
12.9298	22.6543
12.8976	22.9338
12.8656	23.3016
12.8337	23.8725
12.8021	24.2525
12.7705	24.4688
12.7391	24.6965
12.7079	24.86
12.6769	24.8885
12.6459	24.9928
12.6152	24.9785
12.5845	24.64
12.5541	24.0422
12.5238	23.2468
12.4936	22.2984
12.4635	21.2124
12.4337	20.214
12.4039	19.5974
12.3743	19.1628
12.3448	18.4227
12.3155	17.892
12.2863	17.7192
12.2573	17.6295
12.2284	17.32
12.1996	16.893
12.171	16.4646
12.1425	15.5972
12.1141	14.2999
12.0859	12.8484
12.0578	11.3615
12.0298	10.0259
12.0019	8.86623
11.9742	7.89206
11.9466	7.22666
11.9192	6.69295
11.8918	6.46608
11.8646	6.66351
11.8375	6.84949
11.8106	6.88081
11.7837	7.08927
11.757	7.60541
11.7304	8.63377
11.7039	10.4162
11.6776	12.7551
11.6513	15.119
11.6252	17.2744
11.5992	18.8086
11.5733	17.8378
11.5475	13.2941
11.5219	8.88139
11.4963	6.95887
11.4709	6.29594
11.4455	6.01493
11.4203	5.75547
11.3952	5.68414
11.3702	5.52926
11.3454	5.06246
11.3206	4.28618
11.2959	3.56875
11.2714	3.97034
11.2469	5.2982
11.2226	6.28762
11.1983	6.71459
11.1742	6.83255
11.1502	7.10556
11.1263	7.55282
11.1024	8.07701
11.0787	8.69694
11.0551	9.63226
11.0316	10.861
11.0081	12.1805
10.9848	13.4335
10.9616	14.5006
10.9385	14.9749
10.9154	14.7984
10.8925	14.2255
10.8697	13.5245
10.8469	12.8756
10.8243	12.2264
10.8017	11.8489
10.7793	11.9317
10.7569	12.423
10.7346	13.0844
10.7125	13.8186
10.6904	14.7033
10.6684	15.4427
10.6465	16.1022
10.6247	17.066
10.6029	18.127
10.5813	18.871
10.5597	19.3079
10.5383	19.5555
10.5169	19.6757
10.4956	19.6114
10.4744	19.0641
10.4533	18.2903
10.4323	17.7122
10.4113	17.3685
10.3904	16.9338
10.3697	16.3624
10.349	16.2595
10.3284	16.5539
10.3078	16.9893
10.2874	17.2528
10.267	17.2968
10.2467	17.1379
10.2265	16.9642
10.2064	16.9372
10.1863	16.9426
10.1663	16.9366
10.1464	16.6051
10.1266	15.9426
10.1069	15.3565
10.0872	14.9813
10.0676	15.0704
10.0481	15.2922
10.0287	15.3432
10.0093	15.131
9.99005	14.5981
9.97084	13.9963
9.95169	13.5889
9.93263	13.4847
9.91364	13.428
9.89472	13.4625
9.87587	13.4612
9.8571	13.337
9.83839	13.1761
9.81976	13.0165
9.80119	12.7719
9.78271	12.4651
9.76428	12.3456
9.74592	12.3399
9.72764	12.4289
9.70943	12.4051
9.69128	12.2868
9.6732	12.069
9.65518	11.3906
9.63724	10.1411
9.61935	10.0591
9.60155	10.8096
9.5838	10.7786
9.56611	10.7048
9.5485	10.7782
9.53094	10.9342
9.51345	10.7989
9.49604	9.71372
9.47867	7.4953
9.46137	5.1747
9.44414	4.34638
9.42697	4.77638
9.40986	6.37305
9.39281	8.71359
9.37583	10.5081
9.35891	11.4154
9.34204	11.6939
9.32524	11.7642
9.3085	11.7525
9.29182	11.6237
9.27519	11.3135
9.25863	10.9993
9.24213	10.7504
9.22568	10.57
9.2093	10.3824
9.19297	10.1295
9.17669	9.89527
9.16048	9.62949
9.14433	9.28877
9.12823	9.02008
9.11218	8.81918
9.0962	8.63616
9.08027	8.5434
9.06439	8.44964
9.04858	8.18544
9.03281	7.99751
9.0171	7.64638
9.00145	7.29652
8.98585	7.15983
8.9703	7.26873
8.9548	7.42338
8.93937	7.61946
8.92398	7.8736
8.90865	8.02528
8.89337	8.27206
8.87814	8.68832
8.86296	9.06964
8.84784	9.29657
8.83277	9.19127
8.81774	8.81268
8.80277	8.58573
8.78786	8.46302
8.77298	8.27471
8.75816	8.15044
8.7434	8.05587
8.72868	7.73674
8.714	7.27085
8.69938	6.85005
8.68481	6.51941
8.67029	6.54247
8.65581	6.48949
8.64139	6.36276
8.62701	6.38573
8.61268	6.6472
8.5984	6.87962
8.58416	6.95956
8.56997	6.97605
8.55583	6.86391
8.54174	6.72104
8.52769	6.45293
8.51368	6.15031
8.49973	5.98044
8.48582	6.00686
8.47195	6.32015
8.45813	6.69172
8.44436	6.85059
8.43062	6.97628
8.41693	7.16779
8.4033	7.16537
8.3897	7.20484
8.37614	7.25532
8.36264	7.23097
8.34917	7.13422
8.33574	7.19314
8.32236	7.13107
8.30903	6.77433
8.29573	6.43196
8.28248	6.1652
8.26927	5.78291
8.2561	5.55452
8.24298	5.41896
8.2299	5.19978
8.21685	5.21632
8.20385	5.3512
8.19089	5.43231
8.17797	5.52202
8.16509	5.50864
8.15225	5.60334
8.13946	5.83571
8.1267	5.99961
8.11398	6.03985
8.10131	5.94411
8.08867	5.60969
8.07606	5.38501
8.0635	5.34337
8.05099	5.20466
8.0385	5.07961
8.02606	5.03518
8.01366	4.96877
8.00129	4.97894
7.98896	5.01866
7.97667	4.9583
7.96442	4.88271
7.9522	4.86644
7.94002	4.90783
7.92788	4.93124
7.91578	4.8732
7.90371	4.86145
7.89168	4.88884
7.87969	4.97876
7.86773	5.06076
7.85581	5.04691
7.84392	4.95231
7.83207	4.89606
7.82026	4.90055
7.80849	4.85162
7.79674	4.74653
7.78503	4.70399
7.77337	4.65228
7.76173	4.70929
7.75012	4.79311
7.73856	4.88041
7.72703	4.86344
7.71553	4.83619
7.70406	4.86686
7.69263	4.99234
7.68123	4.99906
7.66987	4.96316
7.65855	4.98691
7.64725	5.08532
7.63598	5.12113
7.62475	5.15034
7.61356	5.15892
7.60239	5.15256
7.59126	5.27354
7.58017	5.42402
7.5691	5.40721
7.55806	5.34032
7.54707	5.40483
7.5361	5.46153
7.52516	5.44363
7.51425	5.51248
7.50338	5.66165
7.49253	5.75507
7.48172	5.73017
7.47094	5.70933
7.46019	5.76371
7.44947	5.85939
7.43879	5.91511
7.42813	6.0786
7.4175	6.1833
7.4069	6.24001
7.39634	6.33427
7.3858	6.51344
7.37529	6.55053
7.36482	6.58461
7.35437	6.83682
7.34396	6.94934
7.33357	6.9823
7.32321	7.1452
7.31288	7.29398
7.30258	7.43429
7.29231	7.54658
7.28207	7.61478
7.27185	7.72415
7.26167	7.816
7.25152	7.93259
7.24139	8.21209
7.23129	8.57868
7.22122	8.78366
7.21117	8.95114
7.20116	9.14088
7.19117	9.42642
7.18121	9.81212
7.17128	10.2369
7.16137	10.566
7.1515	10.8604
7.14164	11.245
7.13182	11.6864
7.12203	12.2618
7.11225	12.9594
7.10251	13.7894
7.0928	14.8251
7.08311	16.2205
7.07344	18.0832
7.06381	20.257
7.0542	22.4009
7.04461	24.0577
7.03506	24.9711
7.02552	25.6116
7.01601	26.0679
7.00653	26.29
6.99708	26.5752
6.98765	26.8897
6.97824	27.1173
6.96886	27.4835
6.95951	27.8752
6.95018	27.9621
6.94087	28.0628
6.9316	28.3368
6.92234	28.7485
6.91311	29.1373
6.90391	29.485
6.89473	29.7727
6.88557	30.192
6.87644	30.7369
6.86733	31.4635
6.85824	31.8023
6.84918	31.7844
6.84015	31.9221
6.83114	32.1659
6.82215	32.256
6.81319	32.1805
6.80424	32.1445
6.79532	32.3519
6.78643	32.2312
6.77756	31.7769
6.76871	31.3354
6.75989	30.884
6.75109	30.5145
6.74231	30.0539
6.73355	29.6617
6.72482	29.3719
6.71611	29.1008
6.70742	28.8176
6.69875	28.5017
6.69011	28.4479
6.68149	28.768
6.67289	29.1852
6.66431	29.575
6.65576	29.9008
6.64722	30.357
6.63871	30.7425
6.63022	30.4424
6.62175	29.8244
6.61331	29.2065
6.60488	28.0486
6.59648	26.025
6.5881	23.232
6.57974	20.2045
6.5714	17.0578
6.56308	14.149
6.55478	11.7923
6.54651	9.66254
6.53825	7.91164
6.53001	6.53981
6.5218	5.25564
6.51361	4.11276
6.50544	3.35561
6.49729	2.78715
6.48915	2.13623
6.48104	1.60738
6.47295	1.37492
6.46488	1.17151
6.45683	0.982083
6.4488	0.877462
6.44079	0.749336
6.4328	0.640322
6.42482	0.553986
6.41687	0.583755
6.40894	0.598844
6.40103	0.587582
6.39314	0.507082
6.38526	0.512729
6.37741	0.431827
6.36957	0.419651
6.36176	0.437271
6.35396	0.366536
6.34618	0.415778
6.33843	0.47109
6.33069	0.45754
6.32297	0.52621
6.31527	0.571604
6.30758	0.51698
6.29992	0.501804
6.29227	0.517506
6.28465	0.546076
6.27704	0.570959
6.26945	0.552051
6.26188	0.560226
6.25432	0.539316
6.24679	0.578882
6.23927	0.653383
6.23177	0.636522
6.22429	0.557987
6.21683	0.564571
6.20938	0.596071
6.20195	0.648601
6.19454	0.669543
6.18715	0.657605
6.17978	0.680999
6.17242	0.705511
6.16508	0.745836
6.15776	0.776652
6.15045	0.723576
6.14317	0.705907
6.1359	0.807561
6.12864	0.912051
6.12141	0.923611
6.11419	0.830133
6.10699	0.864093
6.0998	0.912146
6.09263	0.907807
6.08549	0.935181
6.07835	0.96305
6.07123	1.04028
6.06413	1.01654
6.05705	1.02218
6.04998	1.06508
6.04293	1.11992
6.0359	1.19718
6.02888	1.25561
6.02187	1.34767
6.01489	1.49674
6.00792	1.67701
6.00096	1.81856
5.99403	1.93723
5.98711	2.0866
5.9802	2.3029
5.97331	2.49662
5.96644	2.68995
5.95958	2.93496
5.95274	3.25783
5.94591	3.6437
5.9391	4.1122
5.9323	4.45863
5.92552	4.72858
5.91876	5.08681
5.91201	5.50774
5.90528	6.01182
5.89856	6.53588
5.89186	7.07376
5.88517	7.65643
5.8785	8.33067
5.87184	8.83717
5.8652	9.45176
5.85857	10.1739
5.85196	10.7146
5.84536	11.0364
5.83878	10.9493
5.83221	9.96565
5.82566	9.00719
5.81912	9.77297
5.81259	10.0911
5.80608	9.63868
5.79959	10.7864
5.79311	12.1323
5.78665	12.3849
5.78019	11.8954
5.77376	11.024
5.76734	9.9935
5.76093	8.66344
5.75453	7.15613
5.74815	5.47772
5.74179	3.77879
5.73543	2.50638
5.7291	1.84894
5.72277	1.68487
5.71646	1.5575
5.71017	1.42343
5.70389	1.32821
5.69762	1.25484
5.69136	1.26134
5.68513	1.39356
5.6789	1.89945
5.67268	3.45506
5.66648	6.07999
5.6603	9.13967
5.65413	12.0106
5.64797	14.4342
5.64182	16.5976
5.63569	18.3634
5.62957	19.8646
5.62347	21.2965
5.61737	22.5983
5.61129	23.7241
5.60522	24.9682
5.59917	26.143
5.59313	27.1051
5.5871	28.0562
5.58109	29.0927
5.57509	29.876
5.5691	30.4298
5.56312	31.1122
5.55716	31.7483
5.55121	32.2977
5.54528	32.8081
5.53935	33.2926
5.53344	33.7452
5.52754	34.2346
5.52166	34.6801
5.51578	34.996
5.50992	35.2337
5.50407	35.5825
5.49823	35.94
5.49241	36.4204
5.4866	36.9003
5.4808	37.4477
5.47501	37.9101
5.46923	38.3769
5.46347	38.8436
5.45772	39.2737
5.45198	39.7363
5.44625	40.182
5.44054	40.6221
5.43484	41.101
5.42914	41.6519
5.42347	42.3029
5.4178	42.6287
5.41214	42.8434
5.4065	43.141
5.40087	43.4758
5.39525	43.7339
5.38964	43.8978
5.38404	44.0112
5.37846	44.1628
5.37288	44.2625
5.36732	44.389
5.36177	44.5508
5.35623	44.8409
5.35071	45.1622
5.34519	45.4645
5.33968	45.9188
5.33419	46.3968
5.32871	46.9633
5.32324	47.4874
5.31778	47.866
5.31233	48.2421
5.30689	48.4568
5.30147	48.4625
5.29605	48.4989
5.29065	48.562
5.28525	48.423
5.27987	48.2546
5.2745	47.9593
5.26914	47.6036
5.26379	47.3416
5.25845	47.2301
5.25312	47.124
5.24781	47.1658
5.2425	47.3612
5.23721	47.7883
5.23192	48.4272
5.22665	49.1263
5.22138	49.6592
5.21613	50.0659
5.21089	50.4224
5.20566	50.8266
5.20044	51.3372
5.19522	51.6631
5.19002	51.8693
5.18483	52.1064
5.17965	52.1873
5.17448	52.0967
5.16933	51.9486
5.16418	51.6736
5.15904	51.3751
5.15391	51.1321
5.14879	50.8928
5.14368	50.6575
5.13859	50.4302
5.1335	50.3548
5.12842	50.5182
5.12335	50.9046
5.1183	51.506
5.11325	52.2137
5.10821	52.9919
5.10318	53.9442
5.09817	54.8126
5.09316	55.5654
5.08816	56.3056
5.08317	57.037
5.07819	57.6091
5.07322	57.9462
5.06826	58.0497
5.06331	58.0917
5.05837	57.9149
5.05344	57.5736
5.04852	57.2935
5.04361	57.217
5.03871	57.2957
5.03382	57.5975
5.02894	58.016
5.02406	58.5048
5.0192	58.9388
5.01435	59.2699
5.0095	59.5866
5.00467	59.9101
4.99984	60.1673
4.99502	60.2851
4.99021	60.2754
4.98542	60.1611
4.98063	59.9791
4.97585	59.7041
4.97108	59.4514
4.96632	59.3315
4.96156	59.2158
4.95682	59.0717
4.95209	58.9563
4.94736	58.9329
4.94264	58.9511
4.93794	58.9965
4.93324	59.037
4.92855	59.0258
4.92387	58.986
4.9192	58.9394
4.91453	58.8587
4.90988	58.8018
4.90524	58.8126
4.9006	58.8174
4.89597	58.6491
4.89135	58.3468
4.88674	57.9806
4.88214	57.571
4.87755	57.0498
4.87296	56.3901
4.86839	55.2706
4.86382	53.7099
4.85926	52.0443
4.85471	50.479
4.85017	48.9869
4.84564	47.8224
4.84111	46.6465
4.8366	44.8929
4.83209	42.5704
4.82759	39.6557
4.8231	36.0245
4.81862	32.0575
4.81415	28.0456
4.80968	24.1892
4.80522	20.8903
4.80077	18.2608
4.79633	15.8601
4.7919	13.6712
4.78747	11.9675
4.78306	10.8872
4.77865	10.4368
4.77425	10.4623
4.76986	10.9858
4.76547	11.909
4.7611	12.8826
4.75673	14.0581
4.75237	15.3599
4.74802	16.5222
4.74367	17.5894
4.73934	18.6365
4.73501	19.3824
4.73069	20.0652
4.72638	20.6881
4.72207	21.4639
4.71777	22.6252
4.71348	23.9238
4.7092	25.3397
4.70493	26.9033
4.70066	28.4183
4.69641	29.713
4.69216	30.7939
4.68791	31.8158
4.68368	32.8412
4.67945	33.6886
4.67523	34.2531
4.67102	34.6854
4.66682	35.1582
4.66262	35.7384
4.65843	36.3318
4.65425	36.9871
4.65007	37.7282
4.64591	38.4799
4.64175	39.0778
4.6376	39.5672
4.63345	39.9701
4.62932	40.2483
4.62519	40.4939
4.62106	40.6208
4.61695	40.5988
4.61284	40.5138
4.60874	40.5019
4.60465	40.494
4.60056	40.4064
4.59648	40.3357
4.59241	40.3037
4.58835	40.2902
4.58429	40.3058
4.58024	40.3547
4.5762	40.4751
4.57216	40.4808
4.56814	40.4714
4.56411	40.5968
4.5601	40.7464
4.55609	41.0966
4.55209	41.5958
4.5481	42.1195
4.54411	42.6833
4.54013	43.2628
4.53616	43.9192
4.5322	44.7202
4.52824	45.8087
4.52429	46.9545
4.52034	48.1712
4.51641	49.5626
4.51247	50.888
4.50855	52.0284
4.50463	52.9732
4.50072	53.662
4.49682	54.1006
4.49292	54.3048
4.48903	54.2927
4.48515	54.2384
4.48127	54.2696
4.4774	54.4502
4.47354	54.7224
4.46968	54.961
4.46584	55.0535
4.46199	54.9179
4.45815	54.5603
4.45432	54.0722
4.4505	53.4037
4.44668	52.6039
4.44287	51.721
4.43907	50.7886
4.43527	49.8138
4.43148	48.6437
4.4277	47.1495
4.42392	45.4882
4.42015	43.5261
4.41638	41.2406
4.41262	38.9636
4.40887	36.9718
4.40513	35.1612
4.40139	33.689
4.39765	32.9443
4.39393	32.9079
4.39021	33.3398
4.38649	34.1513
4.38278	35.1968
4.37908	36.285
4.37539	37.2187
4.3717	37.8351
4.36801	38.3173
4.36434	38.7776
4.36067	39.1174
4.357	39.4854
4.35335	39.8485
4.34969	39.9649
4.34605	39.8924
4.34241	39.8205
4.33877	39.8486
4.33514	39.9828
4.33152	40.184
4.32791	40.3241
4.3243	40.2973
4.32069	40.1313
4.3171	39.9995
4.31351	39.8494
4.30992	39.5896
4.30634	39.2907
4.30277	38.9751
4.2992	38.5601
4.29564	38.107
4.29208	37.4556
4.28853	36.6553
4.28499	35.8452
4.28145	34.8483
4.27792	33.727
4.27439	32.6835
4.27087	31.9056
4.26735	31.422
4.26384	31.1825
4.26034	31.1369
4.25684	31.2387
4.25335	31.3441
4.24986	31.4286
4.24638	31.363
4.24291	31.2273
4.23944	31.0172
4.23598	30.8084
4.23252	30.588
4.22906	30.4149
4.22562	30.2694
4.22218	29.9618
4.21874	29.6156
4.21531	29.2781
4.21189	28.9175
4.20847	28.5723
4.20506	28.3063
4.20165	28.0283
4.19825	27.6341
4.19485	27.2465
4.19146	26.9794
4.18807	26.6738
4.18469	26.3431
4.18132	26.1343
4.17795	25.8657
4.17458	25.3782
4.17123	24.841
4.16787	24.3306
4.16453	23.8054
4.16118	23.2409
4.15785	22.4255
4.15451	21.3577
4.15119	20.1272
4.14787	18.6663
4.14455	16.8827
4.14124	14.9306
4.13794	12.8703
4.13464	10.7671
4.13134	9.32285
4.12805	8.51475
4.12477	7.48447
4.12149	6.5215
4.11822	6.3463
4.11495	6.27116
4.11168	5.67439
4.10843	4.77182
4.10517	3.96613
4.10192	3.52063
4.09868	3.20727
4.09545	2.8344
4.09221	2.51211
4.08899	2.40598
4.08576	2.38772
4.08255	2.35092
4.07933	2.2945
4.07613	2.26027
4.07292	2.26599
4.06973	2.29932
4.06654	2.28615
4.06335	2.32331
4.06017	2.38376
4.05699	2.39484
4.05382	2.44333
4.05065	2.50806
4.04749	2.53422
4.04433	2.47352
4.04118	2.48977
4.03803	2.5388
4.03489	2.57088
4.03175	2.67391
4.02862	2.72084
4.02549	2.76729
4.02237	2.88085
4.01925	3.01887
4.01614	3.20162
4.01303	3.47054
4.00993	3.70406
4.00683	3.8246
4.00373	3.81721
4.00064	3.78135
3.99756	3.89059
3.99448	4.03675
3.9914	4.04759
3.98833	4.1615
3.98527	4.26751
3.98221	4.33528
3.97915	4.43077
3.9761	4.55096
3.97305	4.65007
3.97001	4.71963
3.96697	4.8114
3.96394	4.84816
3.96091	4.78027
3.95789	4.7945
3.95487	4.79859
3.95186	4.74385
3.94885	4.70781
3.94584	4.64599
3.94284	4.59534
3.93984	4.67171
3.93685	4.68031
3.93386	4.58999
3.93088	4.58366
3.9279	4.54655
3.92493	4.58973
3.92196	4.64378
3.919	4.63333
3.91604	4.65869
3.91308	4.83953
3.91013	5.00717
3.90718	5.1018
3.90424	5.20162
3.9013	5.36713
3.89837	5.69209
3.89544	6.22519
3.89252	6.9066
3.8896	7.82274
3.88668	9.05782
3.88377	10.7218
3.88086	12.8748
3.87796	15.3081
3.87506	17.8607
3.87217	20.1657
3.86928	22.0759
3.86639	23.6476
3.86351	24.8716
3.86064	25.9258
3.85776	26.8576
3.8549	27.5107
3.85203	27.9517
3.84917	28.3151
3.84631	28.4654
3.84346	28.5177
3.84062	28.6825
3.83777	28.8883
3.83494	28.9686
3.8321	29.1923
3.82927	29.5199
3.82644	29.9531
3.82362	30.4695
3.82081	30.9233
3.81799	31.4493
3.81518	32.0417
3.81238	32.59
3.80958	32.9942
3.80678	33.4368
3.80399	33.8607
3.8012	34.2397
3.79841	34.4476
3.79563	34.7273
3.79286	35.0749
3.79008	35.3889
3.78731	35.6879
3.78455	36.0342
3.78179	36.3032
3.77903	36.5627
3.77628	36.8484
3.77353	37.1134
3.77079	37.4291
3.76805	37.7707
3.76531	38.0662
3.76258	38.3148
3.75985	38.5874
3.75713	38.8273
3.7544	38.9605
3.75169	39.0789
3.74898	39.2061
3.74627	39.3615
3.74356	39.4038
3.74086	39.3759
3.73816	39.4006
3.73547	39.4011
3.73278	39.2908
3.7301	39.2245
3.72741	39.1603
3.72474	39.1
3.72206	39.112
3.71939	39.1742
3.71673	39.1925
3.71406	39.2054
3.71141	39.2262
3.70875	39.1945
3.7061	39.1673
3.70345	39.1502
3.70081	39.0352
3.69817	38.9116
3.69553	38.8172
3.6929	38.7506
3.69027	38.6721
3.68765	38.5192
3.68503	38.3005
3.68241	38.0634
3.6798	37.8802
3.67719	37.6311
3.67458	37.2628
3.67198	36.8302
3.66938	36.244
3.66678	35.7761
3.66419	35.4705
3.66161	35.1149
3.65902	34.5574
3.65644	33.7442
3.65387	32.6415
3.65129	30.9972
3.64872	28.6505
3.64616	26.1239
3.64359	24.6315
3.64103	25.2493
3.63848	27.1707
3.63593	28.8697
3.63338	29.8982
3.63084	30.3657
3.6283	30.3315
3.62576	30.0811
3.62322	29.7408
3.62069	29.0242
3.61817	28.2094
3.61564	27.4523
3.61312	26.5034
3.61061	25.4078
3.6081	24.1943
3.60559	22.8871
3.60308	21.5021
3.60058	19.9637
3.59808	18.3424
3.59558	16.6461
3.59309	14.8805
3.59061	13.1687
3.58812	11.5903
3.58564	10.222
3.58316	8.89713
3.58069	7.67813
3.57822	6.65077
3.57575	5.85701
3.57328	5.1855
3.57082	4.6507
3.56836	4.24483
3.56591	4.06971
3.56346	4.03972
3.56101	3.90913
3.55857	3.63866
3.55613	3.29394
3.55369	3.12139
3.55126	2.99679
3.54883	2.85489
3.5464	2.80237
3.54397	2.79369
3.54155	2.72518
3.53914	2.7045
3.53672	2.76242
3.53431	2.85222
3.5319	2.981
3.5295	3.1119
3.5271	3.18897
3.5247	3.2299
3.52231	3.30739
3.51991	3.4442
3.51753	3.45507
3.51514	3.43286
3.51276	3.57909
3.51038	3.6822
3.50801	3.71366
3.50563	3.81081
3.50327	4.03827
3.5009	4.11395
3.49854	3.97112
3.49618	3.96774
3.49382	3.96997
3.49147	3.90897
3.48912	3.82402
3.48677	3.75281
3.48443	3.71512
3.48209	3.63066
3.47975	3.53986
3.47742	3.52296
3.47509	3.54084
3.47276	3.47658
3.47044	3.36467
3.46812	3.30787
3.4658	3.43107
3.46348	3.57063
3.46117	3.55072
3.45886	3.5215
3.45656	3.66048
3.45425	3.788
3.45195	3.86229
3.44966	3.97213
3.44736	4.17605
3.44507	4.35276
3.44279	4.4709
3.4405	4.5947
3.43822	4.93273
3.43594	5.40719
3.43367	5.87234
3.43139	6.42191
3.42912	7.27615
3.42686	8.12407
3.42459	8.92757
3.42233	9.96607
3.42007	11.0449
3.41782	11.9842
3.41557	13.0453
3.41332	14.1347
3.41108	15.149
3.40883	16.137
3.40659	17.0762
3.40435	17.9724
3.40212	18.8837
3.39989	19.7639
3.39766	20.5792
3.39544	21.3755
3.39322	22.035
3.391	22.5826
3.38878	23.1104
3.38657	23.6581
3.38436	24.2588
3.38215	24.8466
3.37994	25.4252
3.37774	25.8728
3.37554	26.2619
3.37335	26.7941
3.37115	27.397
3.36896	27.8581
3.36678	28.2844
3.36459	28.7453
3.36241	29.2736
3.36023	29.667
3.35805	29.9827
3.35588	30.284
3.35371	30.6917
3.35154	31.077
3.34938	31.2794
3.34721	31.4068
3.34505	31.5446
3.3429	31.658
3.34074	31.7784
3.33859	31.8749
3.33644	31.9825
3.3343	32.1222
3.33215	32.2691
3.33001	32.3824
3.32788	32.4591
3.32574	32.6276
3.32361	32.8495
3.32148	32.9917
3.31936	33.1696
3.31723	33.3285
3.31511	33.5103
3.31299	33.6943
3.31088	33.842
3.30876	34.0511
3.30665	34.3802
3.30455	34.7109
3.30244	35.0115
3.30034	35.2773
3.29824	35.4663
3.29614	35.6064
3.29405	35.9261
3.29196	36.21
3.28987	36.5637
3.28778	36.822
3.2857	37.0684
3.28362	37.3852
3.28154	37.7305
3.27946	38.1263
3.27739	38.5152
3.27532	38.8216
3.27325	39.0665
3.27119	39.2556
3.26913	39.4457
3.26707	39.6117
3.26501	39.8369
3.26295	40.1138
3.2609	40.3186
3.25885	40.481
3.2568	40.6862
3.25476	40.8479
3.25272	40.9875
3.25068	41.1637
3.24864	41.2248
3.24661	41.3538
3.24458	41.5598
3.24255	41.6873
3.24052	41.8041
3.2385	41.9439
3.23648	42.1396
3.23446	42.2688
3.23244	42.2647
3.23043	42.2731
3.22841	42.2906
3.2264	42.3639
3.2244	42.3868
3.22239	42.1765
3.22039	42.004
3.21839	41.884
3.2164	41.6102
3.2144	41.2924
3.21241	40.8963
3.21042	40.3208
3.20844	39.4983
3.20645	38.4503
3.20447	37.2679
3.20249	36.0734
3.20051	34.9043
3.19854	33.5802
3.19657	32.2014
3.1946	30.9417
3.19263	29.6996
3.19067	28.5886
3.1887	27.7408
3.18674	26.7793
3.18479	25.7754
3.18283	25.1567
3.18088	25.2412
3.17893	26.0292
3.17698	27.3255
3.17504	28.5584
3.17309	29.7261
3.17115	31.0293
3.16921	32.159
3.16728	32.949
3.16534	33.6613
3.16341	34.2881
3.16148	34.7614
3.15956	35.1528
3.15763	35.5232
3.15571	35.922
3.15379	36.3907
3.15187	36.8379
3.14996	37.2165
3.14805	37.4802
3.14614	37.8671
3.14423	38.2585
3.14232	38.5348
3.14042	38.7341
3.13852	38.9198
3.13662	39.1193
3.13472	39.3353
3.13283	39.43
3.13094	39.471
3.12905	39.5254
3.12716	39.594
3.12528	39.7049
3.12339	39.7635
3.12151	39.6865
3.11964	39.6051
3.11776	39.6881
3.11589	39.7415
3.11401	39.741
3.11214	39.6816
3.11028	39.6585
3.10841	39.6411
3.10655	39.6708
3.10469	39.6532
3.10283	39.6064
3.10098	39.6103
3.09912	39.588
3.09727	39.5877
3.09542	39.5403
3.09358	39.4881
3.09173	39.4685
3.08989	39.4929
3.08805	39.4892
3.08621	39.3758
3.08437	39.3528
3.08254	39.3731
3.08071	39.3952
3.07888	39.418
3.07705	39.373
3.07523	39.3817
3.0734	39.5238
3.07158	39.5461
3.06977	39.5718
3.06795	39.6241
3.06613	39.634
3.06432	39.6567
3.06251	39.7833
3.0607	39.7724
3.0589	39.8668
3.0571	40.0371
3.05529	40.0726
3.05349	40.084
3.0517	40.1331
3.0499	40.1935
3.04811	40.2361
3.04632	40.1961
3.04453	40.1022
3.04274	40.0957
3.04096	40.2498
3.03918	40.2398
3.0374	40.1266
3.03562	40.0265
3.03384	40.0015
3.03207	39.9935
3.03029	39.9736
3.02852	39.94
3.02676	39.8931
3.02499	39.9352
3.02323	39.8022
3.02146	39.625
3.0197	39.6662
3.01795	39.6136
3.01619	39.4768
3.01444	39.5235
3.01269	39.5644
3.01094	39.5182
3.00919	39.4394
3.00744	39.361
3.0057	39.3141
3.00396	39.13
3.00222	39.0687
3.00048	39.1688
2.99875	39.0837
2.99701	39.0103
2.99528	39.1067
2.99355	39.0798
2.99183	38.9079
2.9901	38.733
2.98838	38.6804
2.98666	38.8184
2.98494	38.8584
2.98322	38.7577
2.9815	38.7528
2.97979	38.8662
2.97808	38.9442
2.97637	38.8051
2.97466	38.6158
2.97295	38.5283
2.97125	38.4652
2.96955	38.4457
2.96785	38.4825
2.96615	38.41
2.96446	38.4037
2.96276	38.3344
2.96107	38.2964
2.95938	38.329
2.95769	38.3241
2.95601	38.3313
2.95432	38.4064
2.95264	38.3315
2.95096	38.1879
2.94928	38.2335
2.9476	38.3802
2.94593	38.4117
2.94425	38.295
2.94258	38.2288
2.94092	38.2564
2.93925	38.2868
2.93758	38.3552
2.93592	38.4719
2.93426	38.4391
2.9326	38.3841
2.93094	38.3977
2.92928	38.448
2.92763	38.5353
2.92598	38.5143
2.92433	38.5289
2.92268	38.7434
2.92103	38.845
2.91939	38.6786
2.91775	38.5812
2.9161	38.6143
2.91447	38.7043
2.91283	38.788
2.91119	38.8779
2.90956	38.9751
2.90793	38.9835
2.9063	39.0036
2.90467	39.0594
2.90304	39.0755
2.90142	38.9426
2.89979	38.9121
2.89817	38.8849
2.89656	38.7145
2.89494	38.5974
2.89332	38.4333
2.89171	38.2981
2.8901	38.0937
2.88849	37.751
2.88688	37.4353
2.88527	37.0518
2.88367	36.7459
2.88206	36.4923
2.88046	35.9922
2.87886	35.3922
2.87727	34.9038
2.87567	34.3659
2.87408	33.6107
2.87248	32.7428
2.87089	31.7877
2.8693	30.6073
2.86772	29.1816
2.86613	27.5423
2.86455	25.9835
2.86297	24.7203
2.86139	23.9214
2.85981	23.5444
2.85823	23.1915
2.85666	22.8554
2.85508	23.0871
2.85351	24.3523
2.85194	26.7128
2.85038	29.3034
2.84881	31.2348
2.84724	32.4307
2.84568	33.355
2.84412	34.1383
2.84256	34.8853
2.841	35.4582
2.83945	35.9605
2.83789	36.4371
2.83634	36.9772
2.83479	37.4
2.83324	38.036
2.83169	38.8065
2.83015	39.5126
2.82861	40.2335
2.82706	40.8974
2.82552	41.4434
2.82398	41.872
2.82245	42.2056
2.82091	42.6815
2.81938	43.0728
2.81784	43.5313
2.81631	43.8745
2.81479	44.0584
2.81326	44.2342
2.81173	44.5387
2.81021	44.8572
2.80869	45.1598
2.80716	45.4531
2.80565	45.8188
2.80413	46.2203
2.80261	46.5031
2.8011	46.6706
2.79959	46.8603
2.79808	47.0767
2.79657	47.1615
2.79506	47.2259
2.79355	47.4771
2.79205	47.7997
2.79055	48.0365
2.78904	48.2691
2.78754	48.6839
2.78605	48.9131
2.78455	48.9892
2.78306	49.2649
2.78156	49.5474
2.78007	49.801
2.77858	50.2212
2.77709	50.6368
2.77561	51.0342
2.77412	51.4752
2.77264	51.7848
2.77116	52.3328
2.76968	52.9059
2.7682	53.3735
2.76672	53.8517
2.76524	54.2032
2.76377	54.7459
2.7623	55.3502
2.76083	55.9047
2.75936	56.472
2.75789	57.285
2.75642	58.3268
2.75496	59.1269
2.7535	59.2072
2.75203	59.4925
2.75057	60.1569
2.74912	60.8487
2.74766	61.3888
2.7462	61.7273
2.74475	62.0719
2.7433	62.6657
2.74185	63.4215
2.7404	64.0934
2.73895	64.4228
2.7375	64.5939
2.73606	65.1327
2.73462	65.6511
2.73318	66.0464
2.73174	66.4531
2.7303	66.9008
2.72886	67.446
2.72742	67.962
2.72599	68.727
2.72456	69.4938
2.72313	69.8532
2.7217	70.5523
2.72027	71.3125
2.71884	71.3036
2.71742	71.5938
2.71599	71.9278
2.71457	72.3055
2.71315	72.7937
2.71173	73.5749
2.71032	74.0451
2.7089	74.0215
2.70748	74.0748
2.70607	74.3317
2.70466	74.711
2.70325	75.1533
2.70184	75.5586
2.70043	75.8297
2.69903	76.0749
2.69762	76.3889
2.69622	76.7632
2.69482	77.2506
2.69342	77.4927
2.69202	77.309
2.69062	77.4083
2.68923	77.5726
2.68783	77.6076
2.68644	77.664
2.68505	77.7467
2.68366	77.8106
2.68227	77.5811
2.68089	77.638
2.6795	78.0602
2.67812	78.1013
2.67673	78.1581
2.67535	77.9906
2.67397	77.8242
2.6726	77.8293
2.67122	78.5074
2.66984	78.6876
2.66847	78.1923
2.6671	78.3341
2.66572	78.3578
2.66435	78.0504
2.66299	77.4807
2.66162	77.4127
2.66025	77.4665
2.65889	77.3747
2.65753	77.1681
2.65616	77.103
2.65481	76.8205
2.65345	76.7553
2.65209	76.7706
2.65073	76.5535
2.64938	76.1635
2.64803	75.8138
2.64667	75.4959
2.64532	74.7963
2.64397	73.6028
2.64263	72.3851
2.64128	71.397
2.63994	71.3472
2.63859	72.1848
2.63725	73.1483
2.63591	73.7635
2.63457	74.2328
2.63323	74.3077
2.6319	74.2358
2.63056	74.0894
2.62923	73.3175
2.62789	72.6127
2.62656	71.9838
2.62523	70.5424
2.6239	69.0686
2.62258	67.7424
2.62125	66.4637
2.61993	64.5145
2.6186	62.2958
2.61728	60.4357
2.61596	57.9731
2.61464	55.5636
2.61332	53.4226
2.61201	51.1456
2.61069	49.0163
2.60938	46.7158
2.60807	44.3328
2.60675	42.0723
2.60544	39.6647
2.60414	37.0304
2.60283	34.6197
2.60152	32.6122
2.60022	31.2011
2.59891	30.5698
2.59761	30.7456
2.59631	31.5459
2.59501	32.4124
2.59371	32.6797
2.59242	32.872
2.59112	33.4169
2.58983	33.9722
2.58853	34.5821
2.58724	35.0514
2.58595	35.4893
2.58466	36.3103
2.58338	36.9822
2.58209	37.6751
2.5808	38.6229
2.57952	39.462
2.57824	40.5433
2.57695	41.6537
2.57567	42.5039
2.5744	43.4361
2.57312	44.5533
2.57184	45.1555
2.57057	45.7616
2.56929	46.4276
2.56802	47.0124
2.56675	47.5664
2.56548	48.1934
2.56421	48.8629
2.56294	49.4847
2.56168	49.9359
2.56041	50.2574
2.55915	50.4256
2.55789	50.6293
2.55662	51.0542
2.55536	51.4919
2.5541	51.7928
2.55285	52.0325
2.55159	52.0666
2.55034	51.989
2.54908	52.0665
2.54783	52.2018
2.54658	52.1487
2.54533	52.3103
2.54408	52.2844
2.54283	52.2126
2.54159	52.3811
2.54034	52.5268
2.5391	52.518
2.53785	52.5742
2.53661	52.6603
2.53537	52.799
2.53413	53.0482
2.53289	53.3637
2.53166	53.6704
2.53042	54.0511
2.52919	54.4648
2.52795	54.9365
2.52672	55.5528
2.52549	56.2411
2.52426	56.8956
2.52303	57.6695
2.52181	58.5813
2.52058	59.4018
2.51936	60.1658
2.51813	61.0842
2.51691	61.9923
2.51569	62.8193
2.51447	63.5284
2.51325	64.3096
2.51203	65.1067
2.51082	65.7399
2.5096	66.435
2.50839	67.2384
2.50717	67.865
2.50596	68.438
2.50475	69.1205
2.50354	69.6656
2.50233	70.0516
2.50113	70.5005
2.49992	70.955
2.49872	71.457
2.49751	71.7978
2.49631	72.233
2.49511	72.6604
2.49391	72.9479
2.49271	73.3069
2.49151	73.6257
2.49031	73.8073
2.48912	73.9341
2.48792	74.0092
2.48673	74.3023
2.48554	74.6192
2.48435	74.6775
2.48316	74.784
2.48197	75.0016
2.48078	75.1791
2.4796	75.2488
2.47841	75.327
2.47723	75.4396
2.47604	75.585
2.47486	75.7215
2.47368	75.6622
2.4725	75.7121
2.47132	75.8717
2.47014	76.0372
2.46897	76.1637
2.46779	76.2644
2.46662	76.4027
2.46545	76.4687
2.46427	76.4989
2.4631	76.6783
2.46193	76.8201
2.46077	76.9255
2.4596	76.9275
2.45843	76.8037
2.45727	76.6889
2.4561	76.7094
2.45494	76.7781
2.45378	76.7572
2.45262	76.6508
2.45146	76.6039
2.4503	76.703
2.44914	76.7172
2.44799	76.6272
2.44683	76.5855
2.44568	76.7715
2.44452	76.9692
2.44337	77.1809
2.44222	77.3852
2.44107	77.3636
2.43992	77.3275
2.43877	77.3016
2.43763	77.0408
2.43648	76.7858
2.43534	76.6875
2.43419	76.5624
2.43305	76.2995
2.43191	76.0241
2.43077	75.8578
2.42963	75.677
2.42849	75.4436
2.42736	75.0935
2.42622	74.8476
2.42509	74.5601
2.42395	74.1542
2.42282	73.7724
2.42169	73.4233
2.42056	72.9413
2.41943	72.3756
2.4183	71.8553
2.41717	71.3105
2.41605	70.7813
2.41492	70.238
2.4138	69.5021
2.41267	68.7
2.41155	67.7385
2.41043	66.7032
2.40931	65.497
2.40819	64.2379
2.40707	62.9533
2.40595	61.4732
2.40484	59.9108
2.40372	58.272
2.40261	56.5986
2.4015	55.0585
2.40039	53.723
2.39928	52.4155
2.39817	51.1591
2.39706	50.1445
2.39595	49.3256
2.39484	48.3583
2.39374	47.1727
2.39263	46.0266
2.39153	44.9753
2.39043	44.0958
2.38932	43.6083
2.38822	43.4842
2.38712	43.6738
2.38603	44.3446
2.38493	45.3763
2.38383	46.6656
2.38274	48.1572
2.38164	49.5148
2.38055	50.629
2.37946	51.7031
2.37836	52.9213
2.37727	54.1316
2.37618	55.1388
2.3751	55.9387
2.37401	56.6468
2.37292	57.3089
2.37184	57.9829
2.37075	58.6569
2.36967	59.1861
2.36859	59.6231
2.3675	60.0436
2.36642	60.3905
2.36534	60.8515
2.36427	61.311
2.36319	61.5217
2.36211	61.7047
2.36104	61.9779
2.35996	62.2144
2.35889	62.4198
2.35781	62.736
2.35674	63.0538
2.35567	63.1629
2.3546	63.3015
2.35353	63.3826
2.35247	63.4823
2.3514	63.679
2.35033	63.7286
2.34927	63.7516
2.3482	63.8404
2.34714	63.9478
2.34608	64.0124
2.34502	64.024
2.34396	64.1547
2.3429	64.3002
2.34184	64.357
2.34078	64.4936
2.33973	64.7207
2.33867	64.811
2.33762	64.8542
2.33656	64.9862
2.33551	65.2895
2.33446	65.5384
2.33341	65.7817
2.33236	66.0458
2.33131	66.2397
2.33026	66.5106
2.32922	66.8297
2.32817	67.1865
2.32712	67.5893
2.32608	67.9659
2.32504	68.2566
2.324	68.5872
2.32295	69.0557
2.32191	69.4918
2.32087	69.8417
2.31984	70.1314
2.3188	70.3122
2.31776	70.6439
2.31673	71.0801
2.31569	71.3996
2.31466	71.781
2.31362	72.1974
2.31259	72.4987
2.31156	72.7303
2.31053	72.8696
2.3095	73.0633
2.30847	73.5577
2.30745	73.8605
2.30642	73.9269
2.3054	74.1758
2.30437	74.4586
2.30335	74.7849
2.30232	75.2232
2.3013	75.5755
2.30028	75.8109
2.29926	76.0756
2.29824	76.2794
2.29722	76.4344
2.29621	76.6205
2.29519	76.9324
2.29417	77.2545
2.29316	77.383
2.29215	77.5447
2.29113	77.7351
2.29012	77.8912
2.28911	78.2089
2.2881	78.5075
2.28709	78.7295
2.28608	78.9324
2.28507	79.0095
2.28407	79.2138
2.28306	79.6679
2.28206	79.8489
2.28105	79.8414
2.28005	80.0478
2.27905	80.3071
2.27805	80.4927
2.27705	80.5537
2.27605	80.7146
2.27505	80.9232
2.27405	81.0748
2.27305	81.3134
2.27206	81.5327
2.27106	81.6391
2.27007	81.841
2.26907	82.0254
2.26808	82.214
2.26709	82.3094
2.2661	82.3331
2.26511	82.4827
2.26412	82.7812
2.26313	83.097
2.26214	83.2327
2.26116	83.3643
2.26017	83.499
2.25919	83.6362
2.2582	83.7901
2.25722	83.9581
2.25624	84.2365
2.25526	84.4015
2.25428	84.3709
2.2533	84.527
2.25232	84.5748
2.25134	84.6462
2.25036	84.779
2.24939	84.8731
2.24841	84.9464
2.24744	84.9287
2.24646	85.0739
2.24549	85.3726
2.24452	85.4555
2.24355	85.5622
2.24257	85.7345
2.24161	85.8496
2.24064	85.9493
2.23967	85.9435
2.2387	85.9027
2.23774	85.9133
2.23677	85.9518
2.23581	85.9982
2.23484	86.1556
2.23388	86.2538
2.23292	86.2607
2.23196	86.3047
2.231	86.3422
2.23004	86.3138
2.22908	86.1983
2.22812	86.2013
2.22716	86.1462
2.22621	85.8568
2.22525	85.6973
2.2243	85.6344
2.22334	85.5525
2.22239	85.304
2.22144	84.7716
2.22049	84.2437
2.21953	83.685
2.21859	83.1468
2.21764	82.5876
2.21669	82.0265
2.21574	81.535
2.21479	81.1104
2.21385	80.8152
2.2129	80.7367
2.21196	80.5248
2.21102	80.3238
2.21007	80.0993
2.20913	79.703
2.20819	79.1871
2.20725	78.8775
2.20631	78.8237
2.20537	78.8557
2.20444	79.3805
2.2035	80.191
2.20256	80.9351
2.20163	81.4793
2.20069	82.1428
2.19976	82.8888
2.19883	83.4557
2.19789	83.9152
2.19696	84.5034
2.19603	85.0818
2.1951	85.3161
2.19417	85.3978
2.19325	85.5554
2.19232	85.6734
2.19139	85.6847
2.19047	85.7936
2.18954	86.0009
2.18862	86.2625
2.18769	86.4928
2.18677	86.6101
2.18585	86.6052
2.18493	86.6677
2.18401	86.8032
2.18309	86.8832
2.18217	86.9747
2.18125	87.1524
2.18033	87.1993
2.17942	87.2183
2.1785	87.2731
2.17759	87.3827
2.17667	87.4306
2.17576	87.431
2.17485	87.4799
2.17393	87.4416
2.17302	87.4342
2.17211	87.463
2.1712	87.4512
2.17029	87.4786
2.16939	87.7085
2.16848	87.7844
2.16757	87.6655
2.16667	87.6715
2.16576	87.8033
2.16486	87.7629
2.16395	87.7186
2.16305	87.7554
2.16215	87.7449
2.16125	87.7999
2.16035	87.8328
2.15945	87.743
2.15855	87.7442
2.15765	87.7276
2.15675	87.8219
2.15586	87.8168
2.15496	87.8062
2.15406	87.9027
2.15317	88.1719
2.15228	88.2508
2.15138	88.1813
2.15049	88.2334
2.1496	88.3935
2.14871	88.4492
2.14782	88.3432
2.14693	88.4423
2.14604	88.5038
2.14515	88.4231
2.14427	88.5802
2.14338	88.7524
2.14249	88.6783
2.14161	88.7989
2.14072	89.1437
2.13984	89.2541
2.13896	89.1237
2.13808	89.1169
2.13719	88.988
2.13631	89.0363
2.13543	89.3087
2.13455	89.4368
2.13368	89.3758
2.1328	89.2961
2.13192	89.3413
2.13105	89.2934
2.13017	89.2201
2.1293	89.386
2.12842	89.3663
2.12755	89.315
2.12668	89.4053
2.1258	89.2479
2.12493	89.172
2.12406	89.415
2.12319	89.5538
2.12232	89.5304
2.12145	89.4814
2.12059	89.3818
2.11972	89.4157
2.11885	89.4154
2.11799	89.4514
2.11712	89.569
2.11626	89.3396
2.1154	89.2141
2.11453	89.4162
2.11367	89.6264
2.11281	89.6185
2.11195	89.4674
2.11109	89.4157
2.11023	89.4011
2.10937	89.3089
2.10851	89.299
2.10766	89.4485
2.1068	89.4605
2.10594	89.475
2.10509	89.4719
2.10423	89.3355
2.10338	89.3865
2.10253	89.5267
2.10168	89.6556
2.10082	89.5592
2.09997	89.4024
2.09912	89.3694
2.09827	89.3268
2.09742	89.3504
2.09658	89.3087
2.09573	89.2703
2.09488	89.4032
2.09404	89.4368
2.09319	89.4724
2.09235	89.5463
2.0915	89.4152
2.09066	89.3589
2.08982	89.1971
2.08897	89.1003
2.08813	89.0006
2.08729	89.1086
2.08645	89.2937
2.08561	89.331
2.08477	89.178
2.08394	89.0167
2.0831	89.0417
2.08226	88.9199
2.08143	89.1745
2.08059	89.4589
2.07976	89.3918
2.07892	89.359
2.07809	89.3958
2.07726	89.0913
2.07643	88.9317
2.07559	88.9972
2.07476	88.8274
2.07393	88.3593
2.0731	88.5043
2.07228	88.7412
2.07145	88.6859
2.07062	88.5403
2.06979	88.3116
2.06897	88.0956
2.06814	88.5003
2.06732	88.6669
2.06649	88.6689
2.06567	88.5605
2.06485	88.0925
2.06403	87.8134
2.0632	87.8814
2.06238	87.7739
2.06156	87.342
2.06074	87.0672
2.05993	87.0043
2.05911	86.8908
2.05829	86.7091
2.05747	86.3582
2.05666	85.8674
2.05584	85.3629
2.05503	85.086
2.05421	84.6187
2.0534	84.0803
2.05259	83.5634
2.05177	82.982
2.05096	82.4253
2.05015	81.6735
2.04934	80.7789
2.04853	80.2192
2.04772	79.8197
2.04691	79.2869
2.04611	79.2369
2.0453	79.5624
2.04449	79.9744
2.04369	80.538
2.04288	81.2393
2.04208	81.771
2.04127	82.1283
2.04047	82.4953
2.03967	82.8126
2.03886	83.1785
2.03806	83.5406
2.03726	83.7127
2.03646	83.7319
2.03566	83.8799
2.03486	83.9972
2.03407	84.2334
2.03327	84.5203
2.03247	84.8294
2.03167	85.1323
2.03088	85.3836
2.03008	85.4641
2.02929	85.4959
2.0285	85.703
2.0277	85.9164
2.02691	86.0884
2.02612	86.0961
2.02533	86.0172
2.02453	85.7663
2.02374	85.8082
2.02295	86.1222
2.02217	86.2891
2.02138	86.3754
2.02059	86.4447
2.0198	86.3729
2.01902	86.3673
2.01823	86.4557
2.01744	86.5292
2.01666	86.5861
2.01588	86.5573
2.01509	86.3741
2.01431	86.2904
2.01353	86.2744
2.01275	86.4853
2.01196	86.4982
2.01118	86.5033
2.0104	86.6312
2.00963	86.5799
2.00885	86.4766
2.00807	86.4835
2.00729	86.4034
2.00651	86.3487
2.00574	86.554
2.00496	86.6613
2.00419	86.6875
2.00341	86.6718
2.00264	86.6611
2.00187	86.7698
2.00109	86.8181
2.00032	86.772
