Name: Gold plate
Type: Manmade materials
Class: Reflectance target
Subclass: 
Particle Size: Solid
Sample No.: 001682
Owner: JPL
Wavelength range: IR
Origin: Labsphere, P.O. Box 70, Shaker Street, North Sutton, NH 03260
(603) 927-4266
Description: Measurement made at bottom center. Field Gold.
Oct. 29 1997 to Oct. 30 1997.




Measurement: Hemispherical Reflectance
First Column: X
Second Column: Y
X Units: Wavelength (micrometers)
Y Units: Reflectence (percent)
First X Value: 15.3853
Last X Value: 2.00032
Number of X Values: 2256
Additional information: None.
 
15.3853	92.0831
15.3397	92.1824
15.2945	92.275
15.2495	92.3025
15.2048	92.2704
15.1603	92.1397
15.1161	92.1724
15.0722	92.2944
15.0285	91.8176
14.9851	90.3838
14.9419	90.8114
14.8989	91.9689
14.8563	92.1592
14.8138	92.201
14.7716	92.1045
14.7296	92.076
14.6879	91.9653
14.6464	91.9327
14.6052	91.9568
14.5641	92.0423
14.5233	92.1383
14.4828	92.1578
14.4424	92.1147
14.4023	92.1632
14.3624	92.1805
14.3227	92.1543
14.2833	92.2508
14.244	92.4134
14.205	92.3481
14.1662	92.2586
14.1276	92.248
14.0892	92.1517
14.051	92.2186
14.0131	92.4371
13.9753	92.3776
13.9377	92.3454
13.9004	92.3069
13.8632	92.4499
13.8262	92.6428
13.7895	92.509
13.7529	92.3851
13.7165	92.4342
13.6803	92.5068
13.6443	92.5171
13.6085	92.4454
13.5729	92.4737
13.5374	92.5714
13.5022	92.637
13.4671	92.6584
13.4322	92.6479
13.3975	92.5484
13.363	92.5028
13.3286	92.4776
13.2944	92.4937
13.2604	92.4916
13.2266	92.5273
13.193	92.4452
13.1595	92.4976
13.1262	92.6119
13.093	92.555
13.06	92.4394
13.0272	92.477
12.9946	92.4791
12.9621	92.4788
12.9298	92.4411
12.8976	92.3689
12.8656	92.4186
12.8337	92.4799
12.8021	92.4346
12.7705	92.3246
12.7391	92.4222
12.7079	92.4971
12.6769	92.4696
12.6459	92.4931
12.6152	92.4157
12.5845	92.3369
12.5541	92.5
12.5238	92.5228
12.4936	92.5146
12.4635	92.5839
12.4337	92.6793
12.4039	92.7275
12.3743	92.8366
12.3448	92.8819
12.3155	92.7671
12.2863	92.8483
12.2573	92.9264
12.2284	92.9979
12.1996	93.0087
12.171	93.0285
12.1425	93.066
12.1141	93.0689
12.0859	93.0127
12.0578	93.0727
12.0298	93.1287
12.0019	93.1259
11.9742	93.1353
11.9466	93.1818
11.9192	93.1225
11.8918	92.9179
11.8646	92.9377
11.8375	93.0148
11.8106	92.9786
11.7837	92.973
11.757	93.0315
11.7304	93.0334
11.7039	93.0903
11.6776	93.135
11.6513	93.0357
11.6252	92.9132
11.5992	92.8475
11.5733	92.8327
11.5475	92.7901
11.5219	92.7239
11.4963	92.6044
11.4709	92.4314
11.4455	92.3492
11.4203	92.3247
11.3952	92.4325
11.3702	92.484
11.3454	92.5883
11.3206	92.6904
11.2959	92.7198
11.2714	92.7509
11.2469	92.6714
11.2226	92.6755
11.1983	92.6883
11.1742	92.6117
11.1502	92.5395
11.1263	92.4319
11.1024	92.3512
11.0787	92.2909
11.0551	92.2846
11.0316	92.2728
11.0081	92.2164
10.9848	92.1635
10.9616	92.0863
10.9385	92.0328
10.9154	92.0639
10.8925	92.0556
10.8697	92.0054
10.8469	92.0271
10.8243	92.0702
10.8017	92.0588
10.7793	92.0391
10.7569	91.9342
10.7346	91.9041
10.7125	91.9668
10.6904	91.9831
10.6684	91.9472
10.6465	91.8893
10.6247	91.833
10.6029	91.7684
10.5813	91.7671
10.5597	91.8208
10.5383	91.8181
10.5169	91.7654
10.4956	91.7708
10.4744	91.7106
10.4533	91.6023
10.4323	91.5804
10.4113	91.4709
10.3904	91.3615
10.3697	91.3017
10.349	91.228
10.3284	91.2039
10.3078	91.2048
10.2874	91.115
10.267	90.9561
10.2467	90.849
10.2265	90.8216
10.2064	90.8575
10.1863	90.7477
10.1663	90.642
10.1464	90.5628
10.1266	90.4737
10.1069	90.3891
10.0872	90.2544
10.0676	90.1482
10.0481	90.095
10.0287	90.0413
10.0093	89.9831
9.99005	89.9388
9.97084	89.8085
9.95169	89.6636
9.93263	89.5811
9.91364	89.5793
9.89472	89.6011
9.87587	89.6222
9.8571	89.6311
9.83839	89.5462
9.81976	89.5292
9.80119	89.5358
9.78271	89.4837
9.76428	89.5281
9.74592	89.5594
9.72764	89.4902
9.70943	89.5709
9.69128	89.6241
9.6732	89.5174
9.65518	89.4816
9.63724	89.4926
9.61935	89.4711
9.60155	89.5504
9.5838	89.6409
9.56611	89.6032
9.5485	89.6126
9.53094	89.6747
9.51345	89.6797
9.49604	89.7113
9.47867	89.8174
9.46137	89.9286
9.44414	89.9327
9.42697	89.9845
9.40986	90.053
9.39281	90.1048
9.37583	90.1197
9.35891	90.2046
9.34204	90.3471
9.32524	90.4608
9.3085	90.4883
9.29182	90.5051
9.27519	90.5324
9.25863	90.5307
9.24213	90.5622
9.22568	90.5975
9.2093	90.5435
9.19297	90.6295
9.17669	90.8066
9.16048	90.8052
9.14433	90.7325
9.12823	90.7297
9.11218	90.7227
9.0962	90.6783
9.08027	90.6784
9.06439	90.7966
9.04858	90.8234
9.03281	90.8263
9.0171	90.8746
9.00145	90.9862
8.98585	90.9959
8.9703	90.9393
8.9548	90.9384
8.93937	90.9328
8.92398	90.9958
8.90865	91.1483
8.89337	91.2853
8.87814	91.3556
8.86296	91.4499
8.84784	91.5068
8.83277	91.5044
8.81774	91.5196
8.80277	91.6032
8.78786	91.7044
8.77298	91.7618
8.75816	91.7836
8.7434	91.6562
8.72868	91.6041
8.714	91.7751
8.69938	91.9019
8.68481	91.9514
8.67029	91.93
8.65581	91.8803
8.64139	91.8647
8.62701	91.9432
8.61268	91.95
8.5984	91.9895
8.58416	92.0381
8.56997	92.0318
8.55583	92.1797
8.54174	92.3083
8.52769	92.2499
8.51368	92.2518
8.49973	92.3177
8.48582	92.4733
8.47195	92.4852
8.45813	92.4737
8.44436	92.5598
8.43062	92.6165
8.41693	92.6787
8.4033	92.6831
8.3897	92.6504
8.37614	92.7408
8.36264	92.7383
8.34917	92.744
8.33574	92.7843
8.32236	92.764
8.30903	92.814
8.29573	92.8957
8.28248	92.9677
8.26927	93.0167
8.2561	92.9255
8.24298	92.9046
8.2299	93.0046
8.21685	93.0632
8.20385	93.1357
8.19089	93.0969
8.17797	93.0728
8.16509	93.0985
8.15225	93.133
8.13946	93.1479
8.1267	93.214
8.11398	93.1793
8.10131	93.1335
8.08867	93.1571
8.07606	93.2053
8.0635	93.2357
8.05099	93.1632
8.0385	93.1331
8.02606	93.2151
8.01366	93.2734
8.00129	93.1719
7.98896	93.0887
7.97667	93.1658
7.96442	93.2899
7.9522	93.3271
7.94002	93.301
7.92788	93.1937
7.91578	93.1501
7.90371	93.1475
7.89168	93.1504
7.87969	93.1892
7.86773	93.2126
7.85581	93.1713
7.84392	93.1166
7.83207	93.1282
7.82026	93.1587
7.80849	93.1065
7.79674	93.0989
7.78503	93.139
7.77337	93.1537
7.76173	93.1274
7.75012	93.0998
7.73856	93.0517
7.72703	92.9722
7.71553	92.9959
7.70406	93.0508
7.69263	93.0723
7.68123	93.0415
7.66987	93.0454
7.65855	93.0248
7.64725	92.9334
7.63598	92.9263
7.62475	92.9159
7.61356	92.8762
7.60239	92.7999
7.59126	92.7909
7.58017	92.777
7.5691	92.7609
7.55806	92.7696
7.54707	92.7842
7.5361	92.8147
7.52516	92.8126
7.51425	92.7537
7.50338	92.7171
7.49253	92.7342
7.48172	92.7977
7.47094	92.8284
7.46019	92.8391
7.44947	92.7323
7.43879	92.644
7.42813	92.6288
7.4175	92.6466
7.4069	92.6312
7.39634	92.6064
7.3858	92.5484
7.37529	92.5243
7.36482	92.5362
7.35437	92.5031
7.34396	92.5537
7.33357	92.6177
7.32321	92.5462
7.31288	92.4649
7.30258	92.3952
7.29231	92.3673
7.28207	92.4579
7.27185	92.4264
7.26167	92.3785
7.25152	92.4323
7.24139	92.3948
7.23129	92.3495
7.22122	92.3707
7.21117	92.3834
7.20116	92.3117
7.19117	92.2389
7.18121	92.2362
7.17128	92.3127
7.16137	92.2446
7.1515	92.2331
7.14164	92.2484
7.13182	92.157
7.12203	92.1481
7.11225	92.1861
7.10251	92.1474
7.0928	92.1106
7.08311	92.1028
7.07344	92.1092
7.06381	92.11
7.0542	92.2701
7.04461	92.4465
7.03506	92.2632
7.02552	92.1854
7.01601	92.147
7.00653	92.0831
6.99708	92.155
6.98765	92.1416
6.97824	92.0538
6.96886	92.1698
6.95951	92.382
6.95018	92.2234
6.94087	92.1624
6.9316	92.2092
6.92234	92.2092
6.91311	92.2759
6.90391	92.3472
6.89473	92.2434
6.88557	92.178
6.87644	92.3009
6.86733	92.7063
6.85824	92.7537
6.84918	92.4373
6.84015	92.2875
6.83114	92.4068
6.82215	92.5139
6.81319	92.4222
6.80424	92.4838
6.79532	92.7508
6.78643	92.8203
6.77756	92.7103
6.76871	92.6625
6.75989	92.634
6.75109	92.706
6.74231	92.7614
6.73355	92.7934
6.72482	92.8908
6.71611	92.9679
6.70742	92.9613
6.69875	92.8601
6.69011	93.0013
6.68149	93.1858
6.67289	93.0554
6.66431	92.9354
6.65576	92.9272
6.64722	93.2289
6.63871	93.6119
6.63022	93.3907
6.62175	93.117
6.61331	93.085
6.60488	93.0647
6.59648	93.2098
6.5881	93.3054
6.57974	93.4142
6.5714	93.5164
6.56308	93.2951
6.55478	93.2494
6.54651	93.1641
6.53825	93.0642
6.53001	93.0614
6.5218	93.2364
6.51361	93.17
6.50544	93.2109
6.49729	93.616
6.48915	93.6017
6.48104	93.313
6.47295	93.1458
6.46488	92.9807
6.45683	92.9374
6.4488	92.9873
6.44079	92.9831
6.4328	93.072
6.42482	93.2682
6.41687	93.743
6.40894	93.5476
6.40103	92.9561
6.39314	92.8361
6.38526	92.7897
6.37741	92.8202
6.36957	92.8818
6.36176	92.7939
6.35396	92.8572
6.34618	93.0621
6.33843	92.8245
6.33069	92.5253
6.32297	92.5593
6.31527	92.6258
6.30758	92.6152
6.29992	92.5998
6.29227	92.5426
6.28465	92.4415
6.27704	92.4617
6.26945	92.4344
6.26188	92.4519
6.25432	92.4491
6.24679	92.4442
6.23927	92.461
6.23177	92.4189
6.22429	92.4159
6.21683	92.4688
6.20938	92.4161
6.20195	92.3575
6.19454	92.4939
6.18715	92.7699
6.17978	92.6323
6.17242	92.3841
6.16508	92.4728
6.15776	92.5319
6.15045	92.4327
6.14317	92.455
6.1359	92.4602
6.12864	92.4816
6.12141	92.7186
6.11419	92.9964
6.10699	92.7869
6.0998	92.5549
6.09263	92.5516
6.08549	92.6157
6.07835	92.8601
6.07123	93.0068
6.06413	92.872
6.05705	93.0725
6.04998	93.6541
6.04293	93.3647
6.0359	92.8734
6.02888	92.7495
6.02187	92.8401
6.01489	92.9464
6.00792	92.953
6.00096	92.9954
5.99403	93.2393
5.98711	93.3253
5.9802	93.2005
5.97331	93.2899
5.96644	93.2626
5.95958	93.0805
5.95274	93.1621
5.94591	93.3568
5.9391	93.7901
5.9323	93.7115
5.92552	93.3911
5.91876	93.3679
5.91201	93.3713
5.90528	93.5044
5.89856	93.9129
5.89186	93.9069
5.88517	94.002
5.8785	94.086
5.87184	93.7581
5.8652	93.7516
5.85857	93.6614
5.85196	93.6151
5.84536	93.6678
5.83878	93.7417
5.83221	93.8599
5.82566	94.0653
5.81912	94.0164
5.81259	93.7751
5.80608	93.7713
5.79959	93.8209
5.79311	93.7669
5.78665	93.7382
5.78019	93.7976
5.77376	94.0097
5.76734	94.2748
5.76093	94.0392
5.75453	93.8675
5.74815	93.9663
5.74179	93.919
5.73543	93.9971
5.7291	94.0413
5.72277	94.074
5.71646	94.159
5.71017	94.2228
5.70389	94.0946
5.69762	94.0843
5.69136	94.1971
5.68513	94.176
5.6789	94.2378
5.67268	94.2279
5.66648	94.1389
5.6603	94.2197
5.65413	94.3272
5.64797	94.428
5.64182	94.5327
5.63569	94.3802
5.62957	94.2312
5.62347	94.2278
5.61737	94.2612
5.61129	94.2462
5.60522	94.234
5.59917	94.1771
5.59313	94.1064
5.5871	94.1238
5.58109	94.2357
5.57509	94.1913
5.5691	94.0845
5.56312	94.1073
5.55716	94.1523
5.55121	94.1903
5.54528	94.2274
5.53935	94.2915
5.53344	94.352
5.52754	94.3002
5.52166	94.2787
5.51578	94.2725
5.50992	94.2427
5.50407	94.2635
5.49823	94.2489
5.49241	94.3052
5.4866	94.3828
5.4808	94.4145
5.47501	94.4207
5.46923	94.47
5.46347	94.5395
5.45772	94.5081
5.45198	94.4536
5.44625	94.4129
5.44054	94.406
5.43484	94.4155
5.42914	94.4516
5.42347	94.5933
5.4178	94.5442
5.41214	94.4416
5.4065	94.3994
5.40087	94.3499
5.39525	94.3708
5.38964	94.405
5.38404	94.4444
5.37846	94.4576
5.37288	94.4191
5.36732	94.37
5.36177	94.3821
5.35623	94.4333
5.35071	94.4972
5.34519	94.4776
5.33968	94.436
5.33419	94.4105
5.32871	94.3503
5.32324	94.3237
5.31778	94.3658
5.31233	94.4162
5.30689	94.4504
5.30147	94.4622
5.29605	94.4571
5.29065	94.432
5.28525	94.3869
5.27987	94.4082
5.2745	94.4574
5.26914	94.4618
5.26379	94.4174
5.25845	94.3758
5.25312	94.3841
5.24781	94.4557
5.2425	94.5008
5.23721	94.5338
5.23192	94.475
5.22665	94.4583
5.22138	94.4511
5.21613	94.4831
5.21089	94.5189
5.20566	94.533
5.20044	94.543
5.19522	94.48
5.19002	94.4367
5.18483	94.4354
5.17965	94.4351
5.17448	94.4437
5.16933	94.481
5.16418	94.4995
5.15904	94.4773
5.15391	94.4706
5.14879	94.4643
5.14368	94.431
5.13859	94.4338
5.1335	94.4658
5.12842	94.532
5.12335	94.5446
5.1183	94.4564
5.11325	94.3987
5.10821	94.4413
5.10318	94.4716
5.09817	94.4217
5.09316	94.4181
5.08816	94.4631
5.08317	94.4731
5.07819	94.4654
5.07322	94.4693
5.06826	94.4521
5.06331	94.4587
5.05837	94.4789
5.05344	94.4906
5.04852	94.4757
5.04361	94.4174
5.03871	94.4354
5.03382	94.475
5.02894	94.4787
5.02406	94.4653
5.0192	94.5096
5.01435	94.5283
5.0095	94.4623
5.00467	94.4132
4.99984	94.4368
4.99502	94.4656
4.99021	94.4513
4.98542	94.4082
4.98063	94.4467
4.97585	94.4331
4.97108	94.422
4.96632	94.3968
4.96156	94.4324
4.95682	94.5168
4.95209	94.5261
4.94736	94.5
4.94264	94.5288
4.93794	94.509
4.93324	94.4659
4.92855	94.4609
4.92387	94.3992
4.9192	94.3762
4.91453	94.3646
4.90988	94.4082
4.90524	94.5235
4.9006	94.5238
4.89597	94.4793
4.89135	94.4587
4.88674	94.4853
4.88214	94.4736
4.87755	94.4543
4.87296	94.4771
4.86839	94.4219
4.86382	94.4423
4.85926	94.4829
4.85471	94.4685
4.85017	94.4619
4.84564	94.4884
4.84111	94.525
4.8366	94.4973
4.83209	94.49
4.82759	94.5157
4.8231	94.5097
4.81862	94.5178
4.81415	94.5105
4.80968	94.5019
4.80522	94.484
4.80077	94.4759
4.79633	94.4674
4.7919	94.4593
4.78747	94.442
4.78306	94.4633
4.77865	94.436
4.77425	94.3648
4.76986	94.3422
4.76547	94.3919
4.7611	94.4625
4.75673	94.4774
4.75237	94.4529
4.74802	94.4754
4.74367	94.4857
4.73934	94.4768
4.73501	94.4574
4.73069	94.4465
4.72638	94.4364
4.72207	94.399
4.71777	94.4053
4.71348	94.3977
4.7092	94.4262
4.70493	94.4224
4.70066	94.4177
4.69641	94.4412
4.69216	94.4061
4.68791	94.3579
4.68368	94.3654
4.67945	94.4315
4.67523	94.4643
4.67102	94.4644
4.66682	94.4198
4.66262	94.418
4.65843	94.3784
4.65425	94.389
4.65007	94.3897
4.64591	94.4073
4.64175	94.4479
4.6376	94.4178
4.63345	94.3747
4.62932	94.3402
4.62519	94.3472
4.62106	94.3986
4.61695	94.3908
4.61284	94.4219
4.60874	94.4177
4.60465	94.3478
4.60056	94.3858
4.59648	94.4547
4.59241	94.4671
4.58835	94.43
4.58429	94.3635
4.58024	94.3666
4.5762	94.4359
4.57216	94.5286
4.56814	94.5385
4.56411	94.4495
4.5601	94.4057
4.55609	94.3781
4.55209	94.3796
4.5481	94.4048
4.54411	94.4365
4.54013	94.462
4.53616	94.4526
4.5322	94.3975
4.52824	94.3792
4.52429	94.4035
4.52034	94.3974
4.51641	94.3952
4.51247	94.4471
4.50855	94.3986
4.50463	94.3353
4.50072	94.3187
4.49682	94.3352
4.49292	94.3515
4.48903	94.3755
4.48515	94.4523
4.48127	94.4294
4.4774	94.3534
4.47354	94.3745
4.46968	94.3641
4.46584	94.3765
4.46199	94.3731
4.45815	94.3714
4.45432	94.3645
4.4505	94.3798
4.44668	94.3765
4.44287	94.3558
4.43907	94.3795
4.43527	94.4146
4.43148	94.4032
4.4277	94.3274
4.42392	94.2637
4.42015	94.2894
4.41638	94.3331
4.41262	94.3542
4.40887	94.3029
4.40513	94.2568
4.40139	94.2553
4.39765	94.2816
4.39393	94.347
4.39021	94.3697
4.38649	94.4036
4.38278	94.3953
4.37908	94.3252
4.37539	94.2805
4.3717	94.3352
4.36801	94.3344
4.36434	94.3062
4.36067	94.3103
4.357	94.2488
4.35335	94.1924
4.34969	94.171
4.34605	94.1147
4.34241	94.0713
4.33877	93.9794
4.33514	93.8567
4.33152	93.7678
4.32791	93.6717
4.3243	93.499
4.32069	93.3384
4.3171	93.1437
4.31351	92.9419
4.30992	92.7013
4.30634	92.4085
4.30277	92.0834
4.2992	91.8006
4.29564	91.5671
4.29208	91.4121
4.28853	91.2818
4.28499	91.1447
4.28145	91.0487
4.27792	90.9931
4.27439	91.007
4.27087	91.1681
4.26735	91.4821
4.26384	91.9874
4.26034	92.73
4.25684	93.2208
4.25335	92.7103
4.24986	91.7479
4.24638	91.0001
4.24291	90.3687
4.23944	89.9707
4.23598	89.8193
4.23252	89.8209
4.22906	89.9316
4.22562	90.2603
4.22218	90.7463
4.21874	91.2732
4.21531	91.871
4.21189	92.5148
4.20847	93.0694
4.20506	93.5336
4.20165	93.8354
4.19825	93.991
4.19485	94.1425
4.19146	94.2444
4.18807	94.2923
4.18469	94.2953
4.18132	94.2777
4.17795	94.28
4.17458	94.2986
4.17123	94.2577
4.16787	94.2672
4.16453	94.2788
4.16118	94.2644
4.15785	94.2513
4.15451	94.2259
4.15119	94.1691
4.14787	94.1671
4.14455	94.2374
4.14124	94.2414
4.13794	94.202
4.13464	94.2212
4.13134	94.2118
4.12805	94.1868
4.12477	94.2308
4.12149	94.2721
4.11822	94.2386
4.11495	94.1995
4.11168	94.2114
4.10843	94.241
4.10517	94.2354
4.10192	94.2345
4.09868	94.228
4.09545	94.1612
4.09221	94.1349
4.08899	94.1073
4.08576	94.1116
4.08255	94.1864
4.07933	94.2118
4.07613	94.1867
4.07292	94.1804
4.06973	94.1666
4.06654	94.18
4.06335	94.1369
4.06017	94.078
4.05699	94.1061
4.05382	94.1314
4.05065	94.1447
4.04749	94.0768
4.04433	94.0663
4.04118	94.1256
4.03803	94.2058
4.03489	94.1544
4.03175	94.0586
4.02862	94.0053
4.02549	94.009
4.02237	94.0795
4.01925	94.1019
4.01614	94.0485
4.01303	94.0159
4.00993	94.0048
4.00683	93.9936
4.00373	93.9731
4.00064	93.9385
3.99756	93.934
3.99448	93.8944
3.9914	93.8401
3.98833	93.8782
3.98527	93.9231
3.98221	93.9053
3.97915	93.8969
3.9761	93.8648
3.97305	93.8208
3.97001	93.7524
3.96697	93.73
3.96394	93.6906
3.96091	93.7932
3.95789	93.9178
3.95487	93.8967
3.95186	93.7942
3.94885	93.7274
3.94584	93.7309
3.94284	93.8171
3.93984	93.8845
3.93685	93.9432
3.93386	93.9487
3.93088	93.8887
3.9279	93.8237
3.92493	93.835
3.92196	93.8752
3.919	93.8893
3.91604	93.9526
3.91308	93.9829
3.91013	93.9666
3.90718	93.9802
3.90424	94.0137
3.9013	93.9371
3.89837	93.902
3.89544	93.9249
3.89252	93.9275
3.8896	93.99
3.88668	93.9279
3.88377	93.8341
3.88086	93.8385
3.87796	93.8761
3.87506	93.9839
3.87217	93.9949
3.86928	93.8459
3.86639	93.8074
3.86351	93.8451
3.86064	93.7603
3.85776	93.7572
3.8549	93.8641
3.85203	93.8819
3.84917	93.8503
3.84631	93.8467
3.84346	93.9264
3.84062	93.9559
3.83777	93.9573
3.83494	93.9356
3.8321	93.94
3.82927	93.863
3.82644	93.7927
3.82362	93.8075
3.82081	93.8004
3.81799	93.8791
3.81518	93.8656
3.81238	93.8183
3.80958	93.8512
3.80678	93.8172
3.80399	93.7993
3.8012	93.8697
3.79841	93.8762
3.79563	93.8225
3.79286	93.7851
3.79008	93.7979
3.78731	93.7915
3.78455	93.8102
3.78179	93.8294
3.77903	93.8344
3.77628	93.7919
3.77353	93.7547
3.77079	93.7693
3.76805	93.8331
3.76531	93.8325
3.76258	93.8256
3.75985	93.8713
3.75713	93.81
3.7544	93.7758
3.75169	93.8325
3.74898	93.8497
3.74627	93.8016
3.74356	93.687
3.74086	93.7263
3.73816	93.8117
3.73547	93.7689
3.73278	93.6827
3.7301	93.6508
3.72741	93.6789
3.72474	93.7238
3.72206	93.7243
3.71939	93.7475
3.71673	93.7613
3.71406	93.7205
3.71141	93.7247
3.70875	93.7541
3.7061	93.7445
3.70345	93.7143
3.70081	93.6451
3.69817	93.6548
3.69553	93.7085
3.6929	93.7197
3.69027	93.7104
3.68765	93.7552
3.68503	93.7791
3.68241	93.7116
3.6798	93.6815
3.67719	93.6509
3.67458	93.7045
3.67198	93.6981
3.66938	93.65
3.66678	93.6407
3.66419	93.539
3.66161	93.5135
3.65902	93.5996
3.65644	93.6437
3.65387	93.6543
3.65129	93.6567
3.64872	93.6443
3.64616	93.6518
3.64359	93.6163
3.64103	93.529
3.63848	93.4887
3.63593	93.5341
3.63338	93.5984
3.63084	93.619
3.6283	93.6585
3.62576	93.6037
3.62322	93.5055
3.62069	93.4825
3.61817	93.5038
3.61564	93.466
3.61312	93.4994
3.61061	93.5279
3.6081	93.4686
3.60559	93.4883
3.60308	93.5184
3.60058	93.4966
3.59808	93.5153
3.59558	93.4958
3.59309	93.4515
3.59061	93.4368
3.58812	93.4497
3.58564	93.4591
3.58316	93.4551
3.58069	93.4504
3.57822	93.4583
3.57575	93.4504
3.57328	93.3628
3.57082	93.3087
3.56836	93.3163
3.56591	93.3504
3.56346	93.3524
3.56101	93.3488
3.55857	93.3711
3.55613	93.3417
3.55369	93.3781
3.55126	93.3767
3.54883	93.3675
3.5464	93.3755
3.54397	93.3098
3.54155	93.1891
3.53914	93.1837
3.53672	93.2039
3.53431	93.2108
3.5319	93.2186
3.5295	93.1722
3.5271	93.1824
3.5247	93.1845
3.52231	93.0836
3.51991	93.0118
3.51753	92.9312
3.51514	92.8367
3.51276	92.7188
3.51038	92.6021
3.50801	92.546
3.50563	92.567
3.50327	92.5666
3.5009	92.6138
3.49854	92.649
3.49618	92.7098
3.49382	92.7806
3.49147	92.7255
3.48912	92.6998
3.48677	92.7089
3.48443	92.7048
3.48209	92.7782
3.47975	92.7661
3.47742	92.7645
3.47509	92.7968
3.47276	92.7483
3.47044	92.6827
3.46812	92.6546
3.4658	92.6693
3.46348	92.6476
3.46117	92.588
3.45886	92.533
3.45656	92.5244
3.45425	92.5465
3.45195	92.5415
3.44966	92.5535
3.44736	92.5509
3.44507	92.4443
3.44279	92.3429
3.4405	92.368
3.43822	92.3928
3.43594	92.3991
3.43367	92.3689
3.43139	92.2677
3.42912	92.1673
3.42686	92.1322
3.42459	92.1565
3.42233	92.1562
3.42007	92.1325
3.41782	92.1315
3.41557	92.2218
3.41332	92.2884
3.41108	92.1748
3.40883	92.1281
3.40659	92.2481
3.40435	92.3252
3.40212	92.356
3.39989	92.3184
3.39766	92.3876
3.39544	92.556
3.39322	92.587
3.391	92.4419
3.38878	92.3344
3.38657	92.3809
3.38436	92.4271
3.38215	92.3006
3.37994	92.2787
3.37774	92.3295
3.37554	92.4464
3.37335	92.6211
3.37115	92.6257
3.36896	92.5971
3.36678	92.5884
3.36459	92.5649
3.36241	92.6137
3.36023	92.6529
3.35805	92.6053
3.35588	92.6049
3.35371	92.6546
3.35154	92.6644
3.34938	92.7115
3.34721	92.6835
3.34505	92.7019
3.3429	92.7862
3.34074	92.7474
3.33859	92.6734
3.33644	92.7103
3.3343	92.7726
3.33215	92.7143
3.33001	92.7083
3.32788	92.7879
3.32574	92.8249
3.32361	92.784
3.32148	92.7449
3.31936	92.7599
3.31723	92.8029
3.31511	92.8257
3.31299	92.8099
3.31088	92.7798
3.30876	92.7467
3.30665	92.7156
3.30455	92.6826
3.30244	92.7503
3.30034	92.8283
3.29824	92.7112
3.29614	92.6477
3.29405	92.6742
3.29196	92.6414
3.28987	92.6758
3.28778	92.6359
3.2857	92.5794
3.28362	92.5854
3.28154	92.6257
3.27946	92.671
3.27739	92.6455
3.27532	92.6671
3.27325	92.7452
3.27119	92.707
3.26913	92.6266
3.26707	92.5606
3.26501	92.6079
3.26295	92.5883
3.2609	92.5997
3.25885	92.5898
3.2568	92.5173
3.25476	92.5121
3.25272	92.5724
3.25068	92.5984
3.24864	92.5633
3.24661	92.3966
3.24458	92.3792
3.24255	92.4824
3.24052	92.4877
3.2385	92.2966
3.23648	92.2753
3.23446	92.4639
3.23244	92.4772
3.23043	92.4887
3.22841	92.4852
3.2264	92.5068
3.2244	92.4855
3.22239	92.4347
3.22039	92.3737
3.21839	92.2888
3.2164	92.314
3.2144	92.4129
3.21241	92.4119
3.21042	92.4012
3.20844	92.3221
3.20645	92.3414
3.20447	92.3821
3.20249	92.4273
3.20051	92.369
3.19854	92.2427
3.19657	92.1881
3.1946	92.217
3.19263	92.1592
3.19067	92.163
3.1887	92.2206
3.18674	92.2545
3.18479	92.2566
3.18283	92.2103
3.18088	92.1849
3.17893	92.1221
3.17698	92.0637
3.17504	92.0667
3.17309	92.0913
3.17115	92.0529
3.16921	92.0806
3.16728	92.17
3.16534	92.1611
3.16341	92.0563
3.16148	92.0228
3.15956	91.988
3.15763	91.916
3.15571	91.9102
3.15379	91.9969
3.15187	91.9319
3.14996	91.9169
3.14805	92.0592
3.14614	92.1031
3.14423	92.026
3.14232	91.9236
3.14042	91.7996
3.13852	91.7883
3.13662	91.8477
3.13472	91.8645
3.13283	91.7985
3.13094	91.7092
3.12905	91.7557
3.12716	91.775
3.12528	91.7635
3.12339	91.7688
3.12151	91.7608
3.11964	91.7701
3.11776	91.8188
3.11589	91.8018
3.11401	91.7767
3.11214	91.8296
3.11028	91.8237
3.10841	91.664
3.10655	91.5657
3.10469	91.5346
3.10283	91.5255
3.10098	91.6765
3.09912	91.755
3.09727	91.6255
3.09542	91.6268
3.09358	91.6227
3.09173	91.5505
3.08989	91.5495
3.08805	91.6185
3.08621	91.6045
3.08437	91.5708
3.08254	91.6003
3.08071	91.4865
3.07888	91.4645
3.07705	91.479
3.07523	91.4224
3.0734	91.3764
3.07158	91.4461
3.06977	91.4461
3.06795	91.4297
3.06613	91.3243
3.06432	91.2847
3.06251	91.2737
3.0607	91.3098
3.0589	91.3213
3.0571	91.3287
3.05529	91.4482
3.05349	91.4888
3.0517	91.3936
3.0499	91.3841
3.04811	91.3842
3.04632	91.3611
3.04453	91.3309
3.04274	91.2524
3.04096	91.3028
3.03918	91.3337
3.0374	91.2091
3.03562	91.1539
3.03384	91.2711
3.03207	91.2453
3.03029	91.2576
3.02852	91.4615
3.02676	91.3967
3.02499	91.1681
3.02323	91.1224
3.02146	91.0947
3.0197	91.2006
3.01795	91.2957
3.01619	91.2554
3.01444	91.0867
3.01269	91.0985
3.01094	91.2576
3.00919	91.3493
3.00744	91.295
3.0057	91.179
3.00396	91.1346
3.00222	91.0991
3.00048	91.0716
2.99875	91.128
2.99701	91.219
2.99528	91.294
2.99355	91.2647
2.99183	91.169
2.9901	91.1729
2.98838	91.2609
2.98666	91.2383
2.98494	91.1658
2.98322	91.1392
2.9815	91.2034
2.97979	91.2013
2.97808	91.1033
2.97637	91.0577
2.97466	91.0571
2.97295	91.0149
2.97125	91.0101
2.96955	91.0943
2.96785	91.127
2.96615	91.0872
2.96446	91.0287
2.96276	91.0566
2.96107	91.1828
2.95938	91.2131
2.95769	91.0521
2.95601	91.0301
2.95432	91.0778
2.95264	91.1399
2.95096	91.1124
2.94928	91.0582
2.9476	91.0124
2.94593	91.0121
2.94425	90.9671
2.94258	91.0277
2.94092	91.1488
2.93925	91.2052
2.93758	91.1923
2.93592	91.2237
2.93426	91.1524
2.9326	91.1339
2.93094	91.1888
2.92928	91.1837
2.92763	91.1309
2.92598	91.151
2.92433	91.2594
2.92268	91.2798
2.92103	91.2029
2.91939	91.252
2.91775	91.1307
2.9161	91.0004
2.91447	91.0886
2.91283	91.1748
2.91119	91.2386
2.90956	91.3212
2.90793	91.2894
2.9063	91.2268
2.90467	91.18
2.90304	91.2182
2.90142	91.3821
2.89979	91.3992
2.89817	91.2518
2.89656	91.2458
2.89494	91.3098
2.89332	91.2782
2.89171	91.2813
2.8901	91.343
2.88849	91.3769
2.88688	91.3954
2.88527	91.2957
2.88367	91.2518
2.88206	91.3187
2.88046	91.2708
2.87886	91.309
2.87727	91.4317
2.87567	91.3821
2.87408	91.3919
2.87248	91.537
2.87089	91.6409
2.8693	91.5438
2.86772	91.4552
2.86613	91.3884
2.86455	91.3684
2.86297	91.377
2.86139	91.454
2.85981	91.4135
2.85823	91.4384
2.85666	91.56
2.85508	91.5064
2.85351	91.4523
2.85194	91.4828
2.85038	91.4514
2.84881	91.4568
2.84724	91.5756
2.84568	91.6034
2.84412	91.4788
2.84256	91.4831
2.841	91.4813
2.83945	91.5581
2.83789	91.6573
2.83634	91.4908
2.83479	91.4139
2.83324	91.5381
2.83169	91.6147
2.83015	91.7236
2.82861	91.6434
2.82706	91.6517
2.82552	91.6357
2.82398	91.5449
2.82245	91.5266
2.82091	91.6022
2.81938	91.63
2.81784	91.6487
2.81631	91.7444
2.81479	91.8122
2.81326	91.777
2.81173	91.7877
2.81021	91.7371
2.80869	91.7328
2.80716	91.7709
2.80565	91.7872
2.80413	91.8611
2.80261	91.8964
2.8011	91.6221
2.79959	91.5946
2.79808	91.6977
2.79657	91.6727
2.79506	91.6138
2.79355	91.3996
2.79205	91.6353
2.79055	92.2395
2.78904	92.4777
2.78754	92.357
2.78605	92.0118
2.78455	91.7316
2.78306	91.3444
2.78156	91.3014
2.78007	91.7973
2.77858	92.0305
2.77709	92.0707
2.77561	91.5761
2.77412	91.4436
2.77264	91.724
2.77116	91.8073
2.76968	91.8333
2.7682	91.9469
2.76672	91.9076
2.76524	91.7869
2.76377	91.5709
2.7623	91.4261
2.76083	91.5159
2.75936	91.678
2.75789	91.837
2.75642	92.1506
2.75496	92.2818
2.7535	92.1268
2.75203	91.9123
2.75057	91.9174
2.74912	91.9765
2.74766	92.0653
2.7462	91.9955
2.74475	91.9693
2.7433	92.1157
2.74185	92.3177
2.7404	92.4501
2.73895	92.3753
2.7375	92.3051
2.73606	92.4023
2.73462	92.4006
2.73318	92.3241
2.73174	92.4138
2.7303	92.4898
2.72886	92.3948
2.72742	92.4994
2.72599	92.7394
2.72456	92.9937
2.72313	92.9019
2.7217	92.888
2.72027	93.0476
2.71884	92.7701
2.71742	92.5888
2.71599	92.6968
2.71457	92.7187
2.71315	92.6841
2.71173	92.8733
2.71032	92.9948
2.7089	92.8109
2.70748	92.6171
2.70607	92.5964
2.70466	92.708
2.70325	92.7671
2.70184	92.8763
2.70043	92.965
2.69903	92.8999
2.69762	92.9432
2.69622	93.1384
2.69482	93.4304
2.69342	93.5852
2.69202	93.3834
2.69062	93.277
2.68923	93.2719
2.68783	93.3697
2.68644	93.3755
2.68505	93.359
2.68366	93.5531
2.68227	93.584
2.68089	93.5106
2.6795	93.6712
2.67812	93.8
2.67673	93.8884
2.67535	93.801
2.67397	93.5764
2.6726	93.5794
2.67122	93.9581
2.66984	94.0861
2.66847	93.8462
2.6671	93.967
2.66572	94.085
2.66435	93.867
2.66299	93.6453
2.66162	93.7051
2.66025	93.69
2.65889	93.5472
2.65753	93.5022
2.65616	93.6104
2.65481	93.592
2.65345	93.6457
2.65209	93.6592
2.65073	93.5384
2.64938	93.5314
2.64803	93.5538
2.64667	93.5012
2.64532	93.4165
2.64397	93.3842
2.64263	93.503
2.64128	93.5086
2.63994	93.4689
2.63859	93.4807
2.63725	93.5509
2.63591	93.5469
2.63457	93.522
2.63323	93.5416
2.6319	93.6909
2.63056	93.7766
2.62923	93.6545
2.62789	93.6705
2.62656	93.7388
2.62523	93.5072
2.6239	93.357
2.62258	93.376
2.62125	93.6253
2.61993	93.7506
2.6186	93.575
2.61728	93.7341
2.61596	93.7034
2.61464	93.5774
2.61332	93.6045
2.61201	93.5776
2.61069	93.605
2.60938	93.6584
2.60807	93.5969
2.60675	93.6831
2.60544	93.8244
2.60414	93.7706
2.60283	93.7681
2.60152	93.757
2.60022	93.7476
2.59891	93.6367
2.59761	93.5242
2.59631	93.8532
2.59501	94.3632
2.59371	94.1123
2.59242	93.6424
2.59112	93.5405
2.58983	93.6129
2.58853	93.6062
2.58724	93.5764
2.58595	93.5754
2.58466	93.6606
2.58338	93.6634
2.58209	93.5499
2.5808	93.5274
2.57952	93.463
2.57824	93.558
2.57695	93.6972
2.57567	93.6688
2.5744	93.6585
2.57312	93.6033
2.57184	93.4897
2.57057	93.5813
2.56929	93.5336
2.56802	93.3672
2.56675	93.3296
2.56548	93.4109
2.56421	93.5841
2.56294	93.6482
2.56168	93.5829
2.56041	93.4559
2.55915	93.4801
2.55789	93.5705
2.55662	93.5675
2.55536	93.3898
2.5541	93.4056
2.55285	93.5436
2.55159	93.502
2.55034	93.4834
2.54908	93.5161
2.54783	93.5574
2.54658	93.4504
2.54533	93.3651
2.54408	93.4075
2.54283	93.4159
2.54159	93.4292
2.54034	93.4118
2.5391	93.388
2.53785	93.5315
2.53661	93.5494
2.53537	93.4043
2.53413	93.3772
2.53289	93.3819
2.53166	93.3171
2.53042	93.3616
2.52919	93.4256
2.52795	93.3554
2.52672	93.3754
2.52549	93.3573
2.52426	93.2234
2.52303	93.2935
2.52181	93.3455
2.52058	93.4202
2.51936	93.3789
2.51813	93.2933
2.51691	93.3097
2.51569	93.3582
2.51447	93.4064
2.51325	93.4102
2.51203	93.3525
2.51082	93.3435
2.5096	93.295
2.50839	93.2756
2.50717	93.2467
2.50596	93.2832
2.50475	93.3217
2.50354	93.3962
2.50233	93.3973
2.50113	93.2749
2.49992	93.2986
2.49872	93.4196
2.49751	93.375
2.49631	93.4003
2.49511	93.3763
2.49391	93.2278
2.49271	93.1892
2.49151	93.2364
2.49031	93.2472
2.48912	93.1952
2.48792	93.2599
2.48673	93.4158
2.48554	93.4763
2.48435	93.3128
2.48316	93.2445
2.48197	93.3031
2.48078	93.3033
2.4796	93.239
2.47841	93.3406
2.47723	93.4412
2.47604	93.3912
2.47486	93.302
2.47368	93.2359
2.4725	93.3612
2.47132	93.4347
2.47014	93.3861
2.46897	93.3154
2.46779	93.3528
2.46662	93.3679
2.46545	93.2764
2.46427	93.2665
2.4631	93.338
2.46193	93.322
2.46077	93.2457
2.4596	93.1867
2.45843	93.1612
2.45727	93.1187
2.4561	93.144
2.45494	93.2187
2.45378	93.1665
2.45262	93.0979
2.45146	93.0285
2.4503	92.9865
2.44914	93.1308
2.44799	93.2658
2.44683	93.2695
2.44568	93.2554
2.44452	93.2743
2.44337	93.3338
2.44222	93.4605
2.44107	93.3742
2.43992	93.2608
2.43877	93.3074
2.43763	93.1824
2.43648	93.0978
2.43534	93.2365
2.43419	93.2418
2.43305	93.2353
2.43191	93.21
2.43077	93.1919
2.42963	93.2971
2.42849	93.2809
2.42736	93.2135
2.42622	93.2926
2.42509	93.3036
2.42395	93.1833
2.42282	93.1216
2.42169	93.1705
2.42056	93.3638
2.41943	93.4931
2.4183	93.2523
2.41717	93.093
2.41605	93.2702
2.41492	93.3502
2.4138	93.1838
2.41267	93.1096
2.41155	93.1413
2.41043	93.0839
2.40931	93.1426
2.40819	93.2156
2.40707	93.2666
2.40595	93.3459
2.40484	93.3277
2.40372	93.2478
2.40261	93.2343
2.4015	93.1812
2.40039	93.0599
2.39928	93.1203
2.39817	93.2277
2.39706	93.2291
2.39595	93.2529
2.39484	93.2611
2.39374	93.1511
2.39263	93.1311
2.39153	93.1316
2.39043	93.1289
2.38932	93.0959
2.38822	93.1431
2.38712	93.2372
2.38603	93.265
2.38493	93.2946
2.38383	93.3042
2.38274	93.1611
2.38164	93.1339
2.38055	93.2185
2.37946	93.3172
2.37836	93.2441
2.37727	93.1569
2.37618	93.1273
2.3751	93.0953
2.37401	93.123
2.37292	93.2619
2.37184	93.3677
2.37075	93.2551
2.36967	93.1505
2.36859	93.1988
2.3675	93.3154
2.36642	93.3211
2.36534	93.3146
2.36427	93.2007
2.36319	93.0797
2.36211	93.0448
2.36104	93.125
2.35996	93.2641
2.35889	93.2955
2.35781	93.294
2.35674	93.1549
2.35567	93.0641
2.3546	93.0817
2.35353	93.0949
2.35247	93.0701
2.3514	93.0057
2.35033	93.0283
2.34927	93.0245
2.3482	92.9809
2.34714	92.9819
2.34608	93.0362
2.34502	93.1431
2.34396	93.2149
2.3429	93.1741
2.34184	93.1815
2.34078	93.1158
2.33973	93.0094
2.33867	93.0782
2.33762	93.0283
2.33656	92.953
2.33551	93.0535
2.33446	93.0573
2.33341	93.0174
2.33236	93.1271
2.33131	93.2254
2.33026	93.135
2.32922	93.0018
2.32817	93.0858
2.32712	93.0983
2.32608	93.0884
2.32504	93.0923
2.324	93.1419
2.32295	93.2852
2.32191	93.234
2.32087	93.1334
2.31984	92.9819
2.3188	92.8903
2.31776	92.9635
2.31673	93.0455
2.31569	93.0855
2.31466	93.1378
2.31362	93.1542
2.31259	93.1343
2.31156	93.2324
2.31053	93.2275
2.3095	92.9913
2.30847	92.8884
2.30745	93.0691
2.30642	93.0978
2.3054	93.0004
2.30437	93.1118
2.30335	93.2678
2.30232	93.2119
2.3013	93.1587
2.30028	93.09
2.29926	92.9403
2.29824	92.8373
2.29722	93.0283
2.29621	93.079
2.29519	93.0781
2.29417	93.147
2.29316	93.1274
2.29215	93.077
2.29113	93.0374
2.29012	92.897
2.28911	92.849
2.2881	92.9363
2.28709	93.0393
2.28608	93.0252
2.28507	93.0327
2.28407	93.1068
2.28306	93.0698
2.28206	92.9898
2.28105	92.9238
2.28005	92.7096
2.27905	92.6867
2.27805	92.917
2.27705	93.1679
2.27605	93.2406
2.27505	93.1183
2.27405	93.0128
2.27305	92.9572
2.27206	93.084
2.27106	93.1054
2.27007	93.0357
2.26907	93.0294
2.26808	93.0508
2.26709	92.9416
2.2661	92.8043
2.26511	92.8735
2.26412	92.9271
2.26313	93.0146
2.26214	93.1303
2.26116	93.1288
2.26017	93.0906
2.25919	93.0782
2.2582	93.0787
2.25722	93.0489
2.25624	93.1244
2.25526	93.0784
2.25428	92.977
2.2533	93.0381
2.25232	93.147
2.25134	93.0875
2.25036	93.0524
2.24939	92.9126
2.24841	92.8453
2.24744	92.9995
2.24646	93.0103
2.24549	92.9146
2.24452	92.9237
2.24355	93.008
2.24257	92.995
2.24161	93.0004
2.24064	92.9452
2.23967	92.9528
2.2387	92.9748
2.23774	92.9823
2.23677	93.0453
2.23581	93.0083
2.23484	92.927
2.23388	92.9541
2.23292	92.8907
2.23196	92.7978
2.231	92.9354
2.23004	92.9971
2.22908	92.9224
2.22812	92.9033
2.22716	92.9354
2.22621	93.0468
2.22525	92.9808
2.2243	92.8514
2.22334	92.7774
2.22239	92.8153
2.22144	92.9046
2.22049	92.8458
2.21953	92.9069
2.21859	93.0505
2.21764	92.965
2.21669	92.9125
2.21574	92.8684
2.21479	92.8302
2.21385	92.9021
2.2129	93.0745
2.21196	93.0382
2.21102	92.9006
2.21007	92.8183
2.20913	92.8056
2.20819	92.9609
2.20725	93.044
2.20631	93.047
2.20537	92.9916
2.20444	92.9713
2.2035	92.9967
2.20256	93.021
2.20163	92.9255
2.20069	92.8293
2.19976	92.8304
2.19883	92.7114
2.19789	92.5866
2.19696	92.6878
2.19603	92.7817
2.1951	92.8391
2.19417	93.0253
2.19325	92.9904
2.19232	92.8863
2.19139	92.9405
2.19047	92.9472
2.18954	92.8758
2.18862	92.722
2.18769	92.7297
2.18677	92.7944
2.18585	92.8146
2.18493	92.8633
2.18401	92.8443
2.18309	92.9322
2.18217	93.0922
2.18125	93.0633
2.18033	93.035
2.17942	92.9795
2.1785	92.8367
2.17759	92.8003
2.17667	92.8143
2.17576	92.7853
2.17485	92.6887
2.17393	92.594
2.17302	92.7359
2.17211	92.9744
2.1712	92.8975
2.17029	92.7291
2.16939	92.7086
2.16848	92.7052
2.16757	92.737
2.16667	92.6955
2.16576	92.7661
2.16486	92.7539
2.16395	92.8351
2.16305	92.9068
2.16215	92.8576
2.16125	92.8859
2.16035	92.8307
2.15945	92.7283
2.15855	92.8178
2.15765	92.7978
2.15675	92.7231
2.15586	92.9089
2.15496	92.8374
2.15406	92.8361
2.15317	92.9349
2.15228	93.017
2.15138	92.8334
2.15049	92.5997
2.1496	92.6667
2.14871	92.871
2.14782	92.9158
2.14693	92.7735
2.14604	92.7285
2.14515	92.7226
2.14427	92.7143
2.14338	92.823
2.14249	92.8982
2.14161	92.7557
2.14072	93.1304
2.13984	93.2036
2.13896	92.671
2.13808	92.4487
2.13719	92.5893
2.13631	92.5652
2.13543	92.5713
2.13455	92.7495
2.13368	92.7384
2.1328	92.6381
2.13192	92.7083
2.13105	92.8216
2.13017	92.8042
2.1293	92.7946
2.12842	92.8953
2.12755	92.9793
2.12668	92.8131
2.1258	92.7484
2.12493	92.8926
2.12406	92.7683
2.12319	92.7073
2.12232	92.7887
2.12145	92.8756
2.12059	92.9529
2.11972	92.9067
2.11885	92.7844
2.11799	92.6671
2.11712	92.5659
2.11626	92.6326
2.1154	92.6808
2.11453	92.5937
2.11367	92.4713
2.11281	92.5238
2.11195	92.7759
2.11109	92.7537
2.11023	92.4398
2.10937	92.4428
2.10851	92.6097
2.10766	92.682
2.1068	92.8154
2.10594	92.7341
2.10509	92.4769
2.10423	92.5323
2.10338	92.617
2.10253	92.6883
2.10168	92.7434
2.10082	92.759
2.09997	92.6645
2.09912	92.5341
2.09827	92.6153
2.09742	92.644
2.09658	92.6139
2.09573	92.6514
2.09488	92.6264
2.09404	92.5454
2.09319	92.5055
2.09235	92.5765
2.0915	92.589
2.09066	92.5754
2.08982	92.563
2.08897	92.6198
2.08813	92.5701
2.08729	92.4518
2.08645	92.6104
2.08561	92.8567
2.08477	92.7201
2.08394	92.4848
2.0831	92.4191
2.08226	92.6099
2.08143	92.6872
2.08059	92.708
2.07976	92.6672
2.07892	92.3805
2.07809	92.2966
2.07726	92.6537
2.07643	92.6638
2.07559	92.4954
2.07476	92.5208
2.07393	92.614
2.0731	92.6942
2.07228	92.6183
2.07145	92.5878
2.07062	92.5837
2.06979	92.381
2.06897	92.4649
2.06814	92.8447
2.06732	92.8552
2.06649	92.8016
2.06567	92.8054
2.06485	92.4844
2.06403	92.315
2.0632	92.4458
2.06238	92.6311
2.06156	92.8974
2.06074	92.6523
2.05993	92.571
2.05911	92.5093
2.05829	92.4829
2.05747	92.6606
2.05666	92.7489
2.05584	92.7956
2.05503	92.7075
2.05421	92.6884
2.0534	92.7749
2.05259	92.7404
2.05177	92.5044
2.05096	92.4592
2.05015	92.5774
2.04934	92.6113
2.04853	92.6407
2.04772	92.4754
2.04691	92.3557
2.04611	92.4776
2.0453	92.5931
2.04449	92.481
2.04369	92.4537
2.04288	92.4993
2.04208	92.5599
2.04127	92.5144
2.04047	92.5021
2.03967	92.6034
2.03886	92.7642
2.03806	92.8113
2.03726	92.7373
2.03646	92.7252
2.03566	92.7467
2.03486	92.7328
2.03407	92.5545
2.03327	92.3635
2.03247	92.5886
2.03167	92.7876
2.03088	92.5454
2.03008	92.1788
2.02929	92.2732
2.0285	92.6925
2.0277	92.7436
2.02691	92.6924
2.02612	92.8369
2.02533	92.7715
2.02453	92.445
2.02374	92.2217
2.02295	92.3543
2.02217	92.6515
2.02138	92.75
2.02059	92.6821
2.0198	92.55
2.01902	92.3517
2.01823	92.4284
2.01744	92.5259
2.01666	92.5533
2.01588	92.6381
2.01509	92.7581
2.01431	92.5781
2.01353	92.3381
2.01275	92.4074
2.01196	92.325
2.01118	92.3723
2.0104	92.517
2.00963	92.6093
2.00885	92.548
2.00807	92.6416
2.00729	92.7906
2.00651	92.62
2.00574	92.455
2.00496	92.311
2.00419	92.3168
2.00341	92.4689
2.00264	92.5968
2.00187	92.4654
2.00109	92.2919
2.00032	92.0193
