Name: Andesine (Feldspar) (NaSi,CaAl)AlSi_2O_8
Type: Mineral
Class: Silicates
Subclass: Tectosilicates
Particle Size: 0-45um
Sample No.: TS-4A
Owner: JPL
Wavelength range: IR
Origin: 
Collected by JPL
Description:   





Measurement: Hemispherical reflectance
First Column: X
Second Column: Y
X Units:  Wavelength (micrometers)
Y Units:  Reflectance (percent)
First X Value: 15.3853
Last X Value: 2.00032
Number of X Values: 2256
Additional information: ts04aa.txt
 
15.3853	3.34103
15.3397	2.86311
15.2945	2.44377
15.2495	2.19831
15.2048	2.17206
15.1603	2.22609
15.1161	2.25234
15.0722	2.43836
15.0285	2.5882
14.9851	2.37326
14.9419	2.40299
14.8989	2.7368
14.8563	2.70889
14.8138	2.56918
14.7716	2.27687
14.7296	2.33035
14.6879	2.54998
14.6464	2.4957
14.6052	2.53432
14.5641	2.7908
14.5233	2.97524
14.4828	2.86962
14.4424	2.81257
14.4023	3.06222
14.3624	3.29473
14.3227	3.22473
14.2833	2.94368
14.244	2.82437
14.205	2.79012
14.1662	2.87344
14.1276	2.99211
14.0892	3.06248
14.051	2.9067
14.0131	2.74963
13.9753	2.77043
13.9377	2.78329
13.9004	2.75197
13.8632	2.71731
13.8262	2.84824
13.7895	2.89241
13.7529	2.70329
13.7165	2.71527
13.6803	2.82659
13.6443	2.78386
13.6085	2.66282
13.5729	2.75747
13.5374	2.68455
13.5022	2.59143
13.4671	2.66853
13.4322	2.78553
13.3975	2.84175
13.363	2.69586
13.3286	2.58145
13.2944	2.63744
13.2604	2.7928
13.2266	2.84311
13.193	2.79902
13.1595	2.70495
13.1262	2.50236
13.093	2.39591
13.06	2.49516
13.0272	2.56125
12.9946	2.63063
12.9621	2.5029
12.9298	2.51927
12.8976	2.62725
12.8656	2.62742
12.8337	2.63323
12.8021	2.64187
12.7705	2.78534
12.7391	2.84838
12.7079	2.87866
12.6769	2.86308
12.6459	2.78403
12.6152	2.9907
12.5845	3.14692
12.5541	3.20506
12.5238	3.54241
12.4936	3.84845
12.4635	4.09475
12.4337	4.39589
12.4039	4.89778
12.3743	5.40561
12.3448	5.98986
12.3155	6.66313
12.2863	7.32649
12.2573	8.02731
12.2284	8.86579
12.1996	9.76201
12.171	10.5538
12.1425	11.1347
12.1141	11.6069
12.0859	11.8851
12.0578	12.0792
12.0298	12.1752
12.0019	12.2093
11.9742	12.3006
11.9466	12.2916
11.9192	12.0701
11.8918	12.0154
11.8646	12.0076
11.8375	11.9018
11.8106	11.5796
11.7837	11.3403
11.757	11.2442
11.7304	11.1003
11.7039	10.9491
11.6776	10.813
11.6513	10.6971
11.6252	10.5364
11.5992	10.4011
11.5733	10.2981
11.5475	10.1922
11.5219	10.1639
11.4963	10.1793
11.4709	10.1957
11.4455	10.1507
11.4203	10.0153
11.3952	9.9384
11.3702	9.91988
11.3454	9.8057
11.3206	9.66526
11.2959	9.39937
11.2714	9.13223
11.2469	8.95908
11.2226	8.60667
11.1983	8.26138
11.1742	7.99329
11.1502	7.71286
11.1263	7.3912
11.1024	7.00008
11.0787	6.756
11.0551	6.45502
11.0316	6.14218
11.0081	5.98777
10.9848	5.92812
10.9616	5.81008
10.9385	5.71203
10.9154	5.56148
10.8925	5.42767
10.8697	5.30701
10.8469	5.29538
10.8243	5.31083
10.8017	5.31896
10.7793	5.23377
10.7569	5.10375
10.7346	5.11281
10.7125	5.07496
10.6904	4.93523
10.6684	5.02319
10.6465	5.17327
10.6247	5.15068
10.6029	5.07109
10.5813	5.10947
10.5597	5.14443
10.5383	5.07521
10.5169	5.09888
10.4956	5.09093
10.4744	5.11411
10.4533	5.06977
10.4323	5.10358
10.4113	5.15532
10.3904	5.08992
10.3697	5.05345
10.349	5.16062
10.3284	5.33166
10.3078	5.46615
10.2874	5.46968
10.267	5.48449
10.2467	5.66203
10.2265	5.78344
10.2064	5.75473
10.1863	5.78901
10.1663	5.92922
10.1464	6.00793
10.1266	6.04451
10.1069	6.27295
10.0872	6.50153
10.0676	6.45408
10.0481	6.47493
10.0287	6.44004
10.0093	6.49307
9.99005	6.53282
9.97084	6.52079
9.95169	6.69863
9.93263	6.93688
9.91364	7.01627
9.89472	7.02236
9.87587	7.0391
9.8571	7.01065
9.83839	6.87981
9.81976	6.74601
9.80119	6.79307
9.78271	6.88143
9.76428	6.90233
9.74592	6.81099
9.72764	6.75468
9.70943	6.67795
9.69128	6.55897
9.6732	6.44667
9.65518	6.36899
9.63724	6.41103
9.61935	6.41152
9.60155	6.35762
9.5838	6.34569
9.56611	6.21774
9.5485	5.96108
9.53094	5.83606
9.51345	5.70153
9.49604	5.51499
9.47867	5.34323
9.46137	5.03054
9.44414	4.76831
9.42697	4.69839
9.40986	4.60418
9.39281	4.51365
9.37583	4.36672
9.35891	4.32444
9.34204	4.28684
9.32524	4.26548
9.3085	4.2655
9.29182	4.16345
9.27519	4.0954
9.25863	4.18518
9.24213	4.30458
9.22568	4.20251
9.2093	4.19642
9.19297	4.2832
9.17669	4.23468
9.16048	4.19624
9.14433	4.30619
9.12823	4.39141
9.11218	4.41674
9.0962	4.53091
9.08027	4.55969
9.06439	4.60406
9.04858	4.66568
9.03281	4.69643
9.0171	4.69241
9.00145	4.78324
8.98585	4.88135
8.9703	4.91209
8.9548	4.98062
8.93937	4.96232
8.92398	5.00979
8.90865	5.09458
8.89337	5.16192
8.87814	5.21455
8.86296	5.14602
8.84784	5.21035
8.83277	5.36367
8.81774	5.37497
8.80277	5.50184
8.78786	5.6533
8.77298	5.62183
8.75816	5.5494
8.7434	5.54874
8.72868	5.62397
8.714	5.78199
8.69938	5.76601
8.68481	5.73249
8.67029	5.76765
8.65581	5.84473
8.64139	5.90145
8.62701	5.96424
8.61268	6.04094
8.5984	5.94034
8.58416	5.85783
8.56997	5.99624
8.55583	6.22094
8.54174	6.29429
8.52769	6.29438
8.51368	6.26527
8.49973	6.21137
8.48582	6.3374
8.47195	6.51176
8.45813	6.47333
8.44436	6.45465
8.43062	6.4718
8.41693	6.50749
8.4033	6.53185
8.3897	6.62162
8.37614	6.66212
8.36264	6.72213
8.34917	6.71568
8.33574	6.54119
8.32236	6.45689
8.30903	6.52132
8.29573	6.37474
8.28248	6.25151
8.26927	6.00481
8.2561	5.69661
8.24298	5.42053
8.2299	5.05559
8.21685	4.7339
8.20385	4.45204
8.19089	4.02835
8.17797	3.65102
8.16509	3.39941
8.15225	3.20478
8.13946	2.79783
8.1267	2.54474
8.11398	2.33758
8.10131	2.09711
8.08867	1.90963
8.07606	1.68981
8.0635	1.45154
8.05099	1.29683
8.0385	1.29333
8.02606	1.2881
8.01366	1.1647
8.00129	1.1341
7.98896	0.997555
7.97667	0.891138
7.96442	0.798651
7.9522	0.722801
7.94002	0.720716
7.92788	0.70001
7.91578	0.629817
7.90371	0.589772
7.89168	0.620174
7.87969	0.67553
7.86773	0.625741
7.85581	0.53546
7.84392	0.595963
7.83207	0.577024
7.82026	0.540575
7.80849	0.679692
7.79674	0.721001
7.78503	0.672252
7.77337	0.645551
7.76173	0.707424
7.75012	0.82473
7.73856	0.943873
7.72703	0.913112
7.71553	0.970605
7.70406	1.0641
7.69263	1.09698
7.68123	1.12169
7.66987	1.23094
7.65855	1.25029
7.64725	1.30477
7.63598	1.42209
7.62475	1.53205
7.61356	1.61646
7.60239	1.70755
7.59126	1.80292
7.58017	1.87734
7.5691	1.95992
7.55806	2.07532
7.54707	2.15281
7.5361	2.26081
7.52516	2.48295
7.51425	2.62777
7.50338	2.63588
7.49253	2.7975
7.48172	2.98934
7.47094	3.09993
7.46019	3.18455
7.44947	3.27055
7.43879	3.32008
7.42813	3.48341
7.4175	3.69171
7.4069	3.80837
7.39634	3.89657
7.3858	3.98224
7.37529	4.11456
7.36482	4.31119
7.35437	4.51139
7.34396	4.72992
7.33357	4.9162
7.32321	4.94913
7.31288	5.02871
7.30258	5.16082
7.29231	5.28636
7.28207	5.39805
7.27185	5.51448
7.26167	5.67675
7.25152	5.9007
7.24139	5.96642
7.23129	6.09264
7.22122	6.35551
7.21117	6.57731
7.20116	6.73131
7.19117	6.81192
7.18121	6.92815
7.17128	7.13219
7.16137	7.30179
7.1515	7.47905
7.14164	7.67089
7.13182	7.78844
7.12203	7.83307
7.11225	7.96374
7.10251	8.0845
7.0928	8.27247
7.08311	8.40047
7.07344	8.46477
7.06381	8.64969
7.0542	8.7928
7.04461	8.9119
7.03506	8.98379
7.02552	9.03461
7.01601	9.14639
7.00653	9.33081
6.99708	9.43789
6.98765	9.53209
6.97824	9.62074
6.96886	9.71128
6.95951	9.83689
6.95018	9.86515
6.94087	9.9529
6.9316	10.1287
6.92234	10.1788
6.91311	10.2445
6.90391	10.385
6.89473	10.4578
6.88557	10.58
6.87644	10.7697
6.86733	10.9608
6.85824	11.0248
6.84918	11.0584
6.84015	11.2316
6.83114	11.4443
6.82215	11.5311
6.81319	11.4791
6.80424	11.5536
6.79532	11.8582
6.78643	12.0422
6.77756	11.996
6.76871	12.1058
6.75989	12.2838
6.75109	12.3514
6.74231	12.4276
6.73355	12.589
6.72482	12.7357
6.71611	12.8462
6.70742	12.9207
6.69875	12.9908
6.69011	13.1478
6.68149	13.3175
6.67289	13.3661
6.66431	13.385
6.65576	13.553
6.64722	13.7416
6.63871	13.9826
6.63022	14.0825
6.62175	14.0469
6.61331	14.068
6.60488	14.1703
6.59648	14.3163
6.5881	14.3769
6.57974	14.5025
6.5714	14.7515
6.56308	14.7871
6.55478	14.8303
6.54651	14.8793
6.53825	14.9156
6.53001	15.029
6.5218	15.1654
6.51361	15.2344
6.50544	15.3802
6.49729	15.636
6.48915	15.7502
6.48104	15.72
6.47295	15.6894
6.46488	15.6541
6.45683	15.7141
6.4488	15.8059
6.44079	15.7876
6.4328	15.7545
6.42482	15.8208
6.41687	16.0677
6.40894	16.0107
6.40103	15.8155
6.39314	15.7116
6.38526	15.6718
6.37741	15.7457
6.36957	15.7657
6.36176	15.6014
6.35396	15.599
6.34618	15.7991
6.33843	15.7404
6.33069	15.5466
6.32297	15.5187
6.31527	15.5572
6.30758	15.5466
6.29992	15.4625
6.29227	15.4661
6.28465	15.5139
6.27704	15.5887
6.26945	15.7002
6.26188	15.6708
6.25432	15.6214
6.24679	15.6859
6.23927	15.6853
6.23177	15.7139
6.22429	15.8186
6.21683	15.8626
6.20938	15.8895
6.20195	16.0359
6.19454	16.0979
6.18715	16.1724
6.17978	16.1999
6.17242	16.1975
6.16508	16.3414
6.15776	16.5107
6.15045	16.5517
6.14317	16.6185
6.1359	16.7116
6.12864	16.8235
6.12141	17.0651
6.11419	17.2632
6.10699	17.1846
6.0998	17.2399
6.09263	17.4032
6.08549	17.4461
6.07835	17.5757
6.07123	17.7693
6.06413	17.7828
6.05705	17.8869
6.04998	18.1364
6.04293	18.0756
6.0359	17.9235
6.02888	17.9761
6.02187	18.0788
6.01489	18.1628
6.00792	18.2098
6.00096	18.1776
5.99403	18.3111
5.98711	18.4276
5.9802	18.4269
5.97331	18.548
5.96644	18.5959
5.95958	18.5297
5.95274	18.6097
5.94591	18.7315
5.9391	18.9649
5.9323	19.0185
5.92552	18.8811
5.91876	18.7863
5.91201	18.6633
5.90528	18.7618
5.89856	19.0626
5.89186	19.1087
5.88517	19.1569
5.8785	19.1811
5.87184	18.9937
5.8652	19.0933
5.85857	19.1668
5.85196	19.138
5.84536	19.1484
5.83878	19.2529
5.83221	19.4162
5.82566	19.5696
5.81912	19.5655
5.81259	19.4749
5.80608	19.5288
5.79959	19.5838
5.79311	19.5966
5.78665	19.661
5.78019	19.6731
5.77376	19.7394
5.76734	20.0136
5.76093	19.9293
5.75453	19.7871
5.74815	19.8888
5.74179	19.8551
5.73543	19.806
5.7291	19.7837
5.72277	19.8587
5.71646	20.024
5.71017	20.0902
5.70389	20.0292
5.69762	20.0322
5.69136	20.0773
5.68513	20.0929
5.6789	20.2295
5.67268	20.2839
5.66648	20.2419
5.6603	20.3259
5.65413	20.4542
5.64797	20.5944
5.64182	20.7092
5.63569	20.6455
5.62957	20.6936
5.62347	20.8253
5.61737	20.9247
5.61129	20.9436
5.60522	21.0581
5.59917	21.1881
5.59313	21.2368
5.5871	21.4019
5.58109	21.58
5.57509	21.6685
5.5691	21.7593
5.56312	21.9589
5.55716	22.2209
5.55121	22.4494
5.54528	22.6239
5.53935	22.808
5.53344	23.0319
5.52754	23.2512
5.52166	23.5202
5.51578	23.7779
5.50992	24.0088
5.50407	24.1919
5.49823	24.4615
5.49241	24.7436
5.4866	24.9417
5.4808	25.207
5.47501	25.4702
5.46923	25.7367
5.46347	25.953
5.45772	26.1897
5.45198	26.487
5.44625	26.7631
5.44054	26.9527
5.43484	27.1622
5.42914	27.4667
5.42347	27.7677
5.4178	27.9505
5.41214	28.0963
5.4065	28.2531
5.40087	28.4818
5.39525	28.7383
5.38964	28.9497
5.38404	29.151
5.37846	29.3521
5.37288	29.5449
5.36732	29.7801
5.36177	30.0273
5.35623	30.2497
5.35071	30.3567
5.34519	30.5101
5.33968	30.6491
5.33419	30.7842
5.32871	30.8516
5.32324	30.9575
5.31778	31.1672
5.31233	31.3177
5.30689	31.4482
5.30147	31.5431
5.29605	31.6595
5.29065	31.793
5.28525	31.8794
5.27987	32.021
5.2745	32.1503
5.26914	32.3024
5.26379	32.3979
5.25845	32.4868
5.25312	32.6565
5.24781	32.8302
5.2425	32.9518
5.23721	33.0962
5.23192	33.2611
5.22665	33.4435
5.22138	33.692
5.21613	34.0025
5.21089	34.1936
5.20566	34.3065
5.20044	34.5483
5.19522	34.8163
5.19002	34.9883
5.18483	35.2155
5.17965	35.4805
5.17448	35.7339
5.16933	36.0201
5.16418	36.2916
5.15904	36.5053
5.15391	36.744
5.14879	37.0149
5.14368	37.3046
5.13859	37.5868
5.1335	37.8822
5.12842	38.1754
5.12335	38.4456
5.1183	38.6726
5.11325	38.9021
5.10821	39.2322
5.10318	39.5896
5.09817	39.8734
5.09316	40.1903
5.08816	40.5022
5.08317	40.7834
5.07819	41.0822
5.07322	41.4013
5.06826	41.7184
5.06331	42.0238
5.05837	42.3069
5.05344	42.572
5.04852	42.8062
5.04361	43.0657
5.03871	43.3522
5.03382	43.6773
5.02894	43.9514
5.02406	44.1653
5.0192	44.3923
5.01435	44.6092
5.0095	44.8522
5.00467	45.1187
4.99984	45.3406
4.99502	45.5341
4.99021	45.7118
4.98542	45.8918
4.98063	46.0686
4.97585	46.2553
4.97108	46.4543
4.96632	46.6337
4.96156	46.8109
4.95682	47.0682
4.95209	47.2437
4.94736	47.3698
4.94264	47.536
4.93794	47.6353
4.93324	47.7085
4.92855	47.793
4.92387	47.8811
4.9192	48.0375
4.91453	48.1291
4.90988	48.2081
4.90524	48.3016
4.9006	48.3572
4.89597	48.4971
4.89135	48.6395
4.88674	48.7335
4.88214	48.8642
4.87755	48.9872
4.87296	49.1216
4.86839	49.2149
4.86382	49.3269
4.85926	49.4296
4.85471	49.5145
4.85017	49.6065
4.84564	49.712
4.84111	49.8127
4.8366	49.9371
4.83209	50.0537
4.82759	50.1729
4.8231	50.2352
4.81862	50.3449
4.81415	50.3841
4.80968	50.3715
4.80522	50.4454
4.80077	50.5646
4.79633	50.6674
4.7919	50.6822
4.78747	50.6731
4.78306	50.7944
4.77865	50.894
4.77425	50.9897
4.76986	51.0834
4.76547	51.2051
4.7611	51.2693
4.75673	51.3215
4.75237	51.4703
4.74802	51.6602
4.74367	51.7249
4.73934	51.7746
4.73501	51.897
4.73069	52.1033
4.72638	52.3019
4.72207	52.3979
4.71777	52.504
4.71348	52.6965
4.7092	52.8904
4.70493	53.0215
4.70066	53.1594
4.69641	53.2808
4.69216	53.4302
4.68791	53.5996
4.68368	53.7608
4.67945	53.9542
4.67523	54.1697
4.67102	54.3781
4.66682	54.5934
4.66262	54.7766
4.65843	54.9483
4.65425	55.1722
4.65007	55.374
4.64591	55.5851
4.64175	55.8256
4.6376	56.1483
4.63345	56.4543
4.62932	56.6841
4.62519	56.882
4.62106	57.0957
4.61695	57.3292
4.61284	57.6015
4.60874	57.8364
4.60465	58.0436
4.60056	58.3196
4.59648	58.559
4.59241	58.7842
4.58835	59.0421
4.58429	59.3059
4.58024	59.5458
4.5762	59.7647
4.57216	59.9739
4.56814	60.2101
4.56411	60.4799
4.5601	60.7221
4.55609	60.9798
4.55209	61.2418
4.5481	61.4783
4.54411	61.7502
4.54013	61.9978
4.53616	62.2143
4.5322	62.4282
4.52824	62.6567
4.52429	62.9302
4.52034	63.1524
4.51641	63.3504
4.51247	63.6039
4.50855	63.8275
4.50463	64.0532
4.50072	64.2587
4.49682	64.4983
4.49292	64.7866
4.48903	64.9968
4.48515	65.2035
4.48127	65.4218
4.4774	65.6694
4.47354	65.881
4.46968	66.0841
4.46584	66.2354
4.46199	66.4021
4.45815	66.612
4.45432	66.7808
4.4505	66.9474
4.44668	67.1954
4.44287	67.3967
4.43907	67.6031
4.43527	67.8288
4.43148	67.9883
4.4277	68.1799
4.42392	68.4156
4.42015	68.6155
4.41638	68.7899
4.41262	68.8863
4.40887	68.9936
4.40513	69.1638
4.40139	69.3892
4.39765	69.5723
4.39393	69.7218
4.39021	69.8804
4.38649	70.0905
4.38278	70.2821
4.37908	70.465
4.37539	70.6214
4.3717	70.8147
4.36801	70.997
4.36434	71.1257
4.36067	71.2848
4.357	71.491
4.35335	71.6595
4.34969	71.7441
4.34605	71.9446
4.34241	72.1527
4.33877	72.285
4.33514	72.3987
4.33152	72.5483
4.32791	72.7615
4.3243	72.862
4.32069	72.9375
4.3171	73.0018
4.31351	73.0941
4.30992	73.2247
4.30634	73.3616
4.30277	73.3778
4.2992	73.4483
4.29564	73.558
4.29208	73.6665
4.28853	73.7887
4.28499	73.8966
4.28145	73.9972
4.27792	74.088
4.27439	74.2384
4.27087	74.3862
4.26735	74.5749
4.26384	74.8914
4.26034	75.2294
4.25684	75.43
4.25335	75.4199
4.24986	75.2838
4.24638	75.2222
4.24291	75.2325
4.23944	75.2438
4.23598	75.2711
4.23252	75.3504
4.22906	75.5216
4.22562	75.7693
4.22218	75.9768
4.21874	76.2296
4.21531	76.5475
4.21189	76.7601
4.20847	76.9001
4.20506	77.1101
4.20165	77.3044
4.19825	77.4491
4.19485	77.5894
4.19146	77.6674
4.18807	77.7804
4.18469	77.8972
4.18132	77.9506
4.17795	77.9929
4.17458	78.0265
4.17123	77.9829
4.16787	78.0199
4.16453	78.1489
4.16118	78.2502
4.15785	78.3175
4.15451	78.3877
4.15119	78.412
4.14787	78.4012
4.14455	78.4175
4.14124	78.4535
4.13794	78.5007
4.13464	78.5743
4.13134	78.6474
4.12805	78.5753
4.12477	78.5411
4.12149	78.5989
4.11822	78.6986
4.11495	78.7139
4.11168	78.7719
4.10843	78.832
4.10517	78.7942
4.10192	78.7751
4.09868	78.8213
4.09545	78.8688
4.09221	78.8747
4.08899	78.8857
4.08576	78.8779
4.08255	78.8727
4.07933	78.9041
4.07613	78.9391
4.07292	78.9387
4.06973	78.9451
4.06654	78.993
4.06335	78.9825
4.06017	78.9355
4.05699	78.9609
4.05382	79.0006
4.05065	78.9877
4.04749	78.9624
4.04433	78.9182
4.04118	78.8813
4.03803	78.7994
4.03489	78.7457
4.03175	78.7394
4.02862	78.6914
4.02549	78.6299
4.02237	78.6039
4.01925	78.5343
4.01614	78.463
4.01303	78.4212
4.00993	78.3205
4.00683	78.1807
4.00373	78.0249
4.00064	77.8488
3.99756	77.6851
3.99448	77.4959
3.9914	77.3468
3.98833	77.276
3.98527	77.1192
3.98221	76.9896
3.97915	77.0562
3.9761	77.1141
3.97305	77.1474
3.97001	77.2349
3.96697	77.3091
3.96394	77.3447
3.96091	77.4358
3.95789	77.6233
3.95487	77.7861
3.95186	77.9768
3.94885	78.1784
3.94584	78.2487
3.94284	78.3355
3.93984	78.5142
3.93685	78.6625
3.93386	78.6655
3.93088	78.7147
3.9279	78.8352
3.92493	78.8686
3.92196	78.8944
3.919	78.9022
3.91604	78.9585
3.91308	79.0116
3.91013	79.0169
3.90718	79.0422
3.90424	79.0864
3.9013	79.0369
3.89837	79.0034
3.89544	79.0632
3.89252	79.1509
3.8896	79.2194
3.88668	79.1993
3.88377	79.162
3.88086	79.1845
3.87796	79.2443
3.87506	79.2296
3.87217	79.2033
3.86928	79.2405
3.86639	79.2719
3.86351	79.2893
3.86064	79.3607
3.85776	79.3972
3.8549	79.3707
3.85203	79.2944
3.84917	79.2658
3.84631	79.3562
3.84346	79.4277
3.84062	79.42
3.83777	79.4416
3.83494	79.513
3.8321	79.5902
3.82927	79.7014
3.82644	79.7474
3.82362	79.6535
3.82081	79.6238
3.81799	79.7057
3.81518	79.7474
3.81238	79.8127
3.80958	79.8487
3.80678	79.865
3.80399	79.8809
3.8012	79.8869
3.79841	79.9046
3.79563	79.985
3.79286	79.9898
3.79008	79.9857
3.78731	80.0079
3.78455	80.0498
3.78179	80.0706
3.77903	80.1052
3.77628	80.1466
3.77353	80.1017
3.77079	80.0337
3.76805	79.9944
3.76531	79.9631
3.76258	79.9645
3.75985	79.976
3.75713	80.0104
3.7544	80.0176
3.75169	79.9767
3.74898	79.9463
3.74627	79.9086
3.74356	79.9248
3.74086	79.9329
3.73816	79.9243
3.73547	79.9014
3.73278	79.8346
3.7301	79.8145
3.72741	79.8234
3.72474	79.7969
3.72206	79.7706
3.71939	79.7375
3.71673	79.7261
3.71406	79.7352
3.71141	79.6976
3.70875	79.6739
3.7061	79.6298
3.70345	79.5424
3.70081	79.5747
3.69817	79.6083
3.69553	79.5865
3.6929	79.5426
3.69027	79.4851
3.68765	79.4669
3.68503	79.5183
3.68241	79.4341
3.6798	79.3073
3.67719	79.2742
3.67458	79.2853
3.67198	79.2625
3.66938	79.2361
3.66678	79.2454
3.66419	79.23
3.66161	79.2206
3.65902	79.1919
3.65644	79.0968
3.65387	79.0785
3.65129	79.0381
3.64872	78.9903
3.64616	79.0466
3.64359	79.0537
3.64103	78.968
3.63848	78.9039
3.63593	78.8901
3.63338	78.9156
3.63084	78.8656
3.6283	78.7359
3.62576	78.7069
3.62322	78.715
3.62069	78.6456
3.61817	78.6499
3.61564	78.613
3.61312	78.4883
3.61061	78.528
3.6081	78.5478
3.60559	78.428
3.60308	78.2919
3.60058	78.2399
3.59808	78.2234
3.59558	78.1788
3.59309	78.098
3.59061	78.0751
3.58812	78.044
3.58564	77.9545
3.58316	77.9443
3.58069	77.9649
3.57822	77.879
3.57575	77.8108
3.57328	77.6969
3.57082	77.6407
3.56836	77.6325
3.56591	77.5595
3.56346	77.4499
3.56101	77.4383
3.55857	77.4187
3.55613	77.2895
3.55369	77.1525
3.55126	77.0192
3.54883	76.9307
3.5464	76.8924
3.54397	76.8301
3.54155	76.6904
3.53914	76.6178
3.53672	76.582
3.53431	76.4896
3.5319	76.3957
3.5295	76.2316
3.5271	76.0769
3.5247	75.9119
3.52231	75.6791
3.51991	75.4587
3.51753	75.1526
3.51514	74.8159
3.51276	74.4357
3.51038	74.0531
3.50801	73.7747
3.50563	73.5538
3.50327	73.3049
3.5009	73.1394
3.49854	73.1483
3.49618	73.1556
3.49382	73.2192
3.49147	73.2429
3.48912	73.2566
3.48677	73.2344
3.48443	73.1631
3.48209	73.2006
3.47975	73.1652
3.47742	72.991
3.47509	72.9727
3.47276	73.0503
3.47044	73.1543
3.46812	73.2633
3.4658	73.3658
3.46348	73.4299
3.46117	73.4618
3.45886	73.3532
3.45656	73.2846
3.45425	73.2299
3.45195	73.1065
3.44966	72.9618
3.44736	72.8132
3.44507	72.62
3.44279	72.4877
3.4405	72.373
3.43822	72.2008
3.43594	72.0351
3.43367	71.8623
3.43139	71.5853
3.42912	71.2687
3.42686	70.9164
3.42459	70.5476
3.42233	70.2879
3.42007	70.0969
3.41782	69.955
3.41557	69.9163
3.41332	69.9053
3.41108	69.9579
3.40883	70.0108
3.40659	70.0888
3.40435	70.1621
3.40212	70.2665
3.39989	70.3892
3.39766	70.5223
3.39544	70.7022
3.39322	70.8536
3.391	70.8732
3.38878	70.7639
3.38657	70.6429
3.38436	70.5689
3.38215	70.5465
3.37994	70.393
3.37774	70.1827
3.37554	70.0841
3.37335	70.0235
3.37115	70.1321
3.36896	70.2595
3.36678	70.3234
3.36459	70.4323
3.36241	70.6363
3.36023	70.7417
3.35805	70.7724
3.35588	70.8433
3.35371	70.8001
3.35154	70.7976
3.34938	70.9232
3.34721	71.0114
3.34505	71.0139
3.3429	71.0318
3.34074	71.0753
3.33859	71.1577
3.33644	71.1848
3.3343	71.1282
3.33215	71.1832
3.33001	71.2075
3.32788	71.1498
3.32574	71.1543
3.32361	71.1031
3.32148	71.0056
3.31936	70.9623
3.31723	70.9493
3.31511	70.8646
3.31299	70.7839
3.31088	70.7384
3.30876	70.7068
3.30665	70.6421
3.30455	70.5684
3.30244	70.5569
3.30034	70.4872
3.29824	70.3733
3.29614	70.2396
3.29405	70.1851
3.29196	70.1645
3.28987	70.1173
3.28778	70.0442
3.2857	70.0121
3.28362	70.0091
3.28154	69.9253
3.27946	69.7888
3.27739	69.6059
3.27532	69.5059
3.27325	69.4653
3.27119	69.3958
3.26913	69.2908
3.26707	69.226
3.26501	69.1056
3.26295	69.0147
3.2609	68.9452
3.25885	68.8541
3.2568	68.7572
3.25476	68.6341
3.25272	68.5587
3.25068	68.4981
3.24864	68.4482
3.24661	68.3425
3.24458	68.3054
3.24255	68.28
3.24052	68.133
3.2385	67.9592
3.23648	67.8874
3.23446	67.7915
3.23244	67.6668
3.23043	67.5785
3.22841	67.5143
3.2264	67.4844
3.2244	67.497
3.22239	67.5337
3.22039	67.331
3.21839	67.1467
3.2164	67.1308
3.2144	67.1376
3.21241	67.1292
3.21042	67.0086
3.20844	66.8577
3.20645	66.6824
3.20447	66.6169
3.20249	66.5568
3.20051	66.4243
3.19854	66.3758
3.19657	66.2466
3.1946	66.1874
3.19263	66.1502
3.19067	66.0532
3.1887	65.9402
3.18674	65.8681
3.18479	65.751
3.18283	65.6203
3.18088	65.5792
3.17893	65.5047
3.17698	65.4016
3.17504	65.2934
3.17309	65.179
3.17115	65.0284
3.16921	64.9078
3.16728	64.8208
3.16534	64.8201
3.16341	64.7781
3.16148	64.6726
3.15956	64.5793
3.15763	64.4829
3.15571	64.4081
3.15379	64.3444
3.15187	64.2702
3.14996	64.132
3.14805	64.0278
3.14614	63.9333
3.14423	63.848
3.14232	63.7765
3.14042	63.7446
3.13852	63.626
3.13662	63.5035
3.13472	63.4931
3.13283	63.3954
3.13094	63.2864
3.12905	63.1609
3.12716	63.031
3.12528	63.0019
3.12339	62.9516
3.12151	62.8794
3.11964	62.7788
3.11776	62.6722
3.11589	62.5957
3.11401	62.5582
3.11214	62.4026
3.11028	62.2754
3.10841	62.1943
3.10655	62.1413
3.10469	62.1359
3.10283	62.1548
3.10098	62.1033
3.09912	61.9718
3.09727	61.8412
3.09542	61.7189
3.09358	61.6363
3.09173	61.6624
3.08989	61.5936
3.08805	61.4427
3.08621	61.4258
3.08437	61.4906
3.08254	61.3547
3.08071	61.2621
3.07888	61.1913
3.07705	61.1318
3.07523	61.0945
3.0734	61.0082
3.07158	60.9846
3.06977	61.0497
3.06795	60.925
3.06613	60.795
3.06432	60.7689
3.06251	60.7484
3.0607	60.6714
3.0589	60.5173
3.0571	60.4545
3.05529	60.4458
3.05349	60.4541
3.0517	60.3726
3.0499	60.2367
3.04811	60.2785
3.04632	60.3038
3.04453	60.2419
3.04274	60.2231
3.04096	60.1341
3.03918	59.9977
3.0374	59.9646
3.03562	59.9871
3.03384	59.8426
3.03207	59.7607
3.03029	59.831
3.02852	59.7736
3.02676	59.6452
3.02499	59.6115
3.02323	59.5686
3.02146	59.5312
3.0197	59.4956
3.01795	59.3972
3.01619	59.3475
3.01444	59.2883
3.01269	59.2983
3.01094	59.2735
3.00919	59.1833
3.00744	59.1262
3.0057	59.0667
3.00396	58.9849
3.00222	58.9557
3.00048	59.0347
2.99875	59.026
2.99701	58.916
2.99528	58.9593
2.99355	59.0108
2.99183	58.9846
2.9901	58.8493
2.98838	58.6536
2.98666	58.4848
2.98494	58.5478
2.98322	58.5909
2.9815	58.6303
2.97979	58.6152
2.97808	58.4934
2.97637	58.4362
2.97466	58.4192
2.97295	58.3852
2.97125	58.3455
2.96955	58.2361
2.96785	58.2029
2.96615	58.3291
2.96446	58.3351
2.96276	58.298
2.96107	58.2568
2.95938	58.198
2.95769	58.232
2.95601	58.2454
2.95432	58.1709
2.95264	58.1193
2.95096	58.0741
2.94928	58.1247
2.9476	58.0833
2.94593	57.9871
2.94425	57.9721
2.94258	58.0479
2.94092	58.0653
2.93925	57.9941
2.93758	57.9502
2.93592	57.8875
2.93426	57.8422
2.9326	57.8559
2.93094	57.8499
2.92928	57.8799
2.92763	57.8623
2.92598	57.8886
2.92433	57.9506
2.92268	57.8777
2.92103	57.7759
2.91939	57.8222
2.91775	57.9026
2.9161	57.8418
2.91447	57.8489
2.91283	57.8722
2.91119	57.9432
2.90956	57.9564
2.90793	58.0309
2.9063	57.9744
2.90467	57.9353
2.90304	57.996
2.90142	58.0007
2.89979	57.9444
2.89817	57.9903
2.89656	58.0712
2.89494	58.0972
2.89332	58.0436
2.89171	58.1245
2.8901	58.3071
2.88849	58.2214
2.88688	58.1335
2.88527	58.1988
2.88367	58.2604
2.88206	58.3692
2.88046	58.3363
2.87886	58.238
2.87727	58.2819
2.87567	58.3533
2.87408	58.3106
2.87248	58.3513
2.87089	58.3546
2.8693	58.3154
2.86772	58.3394
2.86613	58.4411
2.86455	58.5184
2.86297	58.5368
2.86139	58.3891
2.85981	58.2291
2.85823	58.312
2.85666	58.466
2.85508	58.4408
2.85351	58.4745
2.85194	58.5683
2.85038	58.5442
2.84881	58.5277
2.84724	58.5243
2.84568	58.4097
2.84412	58.3837
2.84256	58.6066
2.841	58.7412
2.83945	58.6801
2.83789	58.763
2.83634	58.8422
2.83479	58.8189
2.83324	58.7468
2.83169	58.7036
2.83015	58.6977
2.82861	58.7386
2.82706	58.8154
2.82552	59.0058
2.82398	59.062
2.82245	59.0338
2.82091	59.1268
2.81938	59.0474
2.81784	59.0046
2.81631	58.9455
2.81479	58.9901
2.81326	59.0429
2.81173	58.9948
2.81021	58.9502
2.80869	58.9672
2.80716	58.9721
2.80565	59.0257
2.80413	59.1325
2.80261	59.0657
2.8011	58.8573
2.79959	58.5917
2.79808	58.3597
2.79657	58.2218
2.79506	58.1384
2.79355	58.1183
2.79205	57.9238
2.79055	57.5195
2.78904	57.2815
2.78754	57.0917
2.78605	56.69
2.78455	56.2227
2.78306	55.8738
2.78156	55.4496
2.78007	54.947
2.77858	54.3346
2.77709	53.6668
2.77561	52.9432
2.77412	52.1682
2.77264	51.7575
2.77116	51.4541
2.76968	50.7269
2.7682	49.9995
2.76672	49.4154
2.76524	48.8261
2.76377	48.3904
2.7623	47.8928
2.76083	47.3794
2.75936	47.1487
2.75789	47.0608
2.75642	47.2162
2.75496	47.4471
2.7535	47.379
2.75203	47.5337
2.75057	47.8908
2.74912	48.3958
2.74766	48.8424
2.7462	49.0896
2.74475	49.2246
2.7433	49.5877
2.74185	50.2545
2.7404	50.9428
2.73895	51.392
2.7375	51.4319
2.73606	51.9135
2.73462	52.6694
2.73318	53.1481
2.73174	53.6396
2.7303	54.1032
2.72886	54.762
2.72742	55.5668
2.72599	56.655
2.72456	58.0017
2.72313	58.9144
2.7217	60.0788
2.72027	61.3934
2.71884	62.3085
2.71742	63.4917
2.71599	64.5842
2.71457	65.7924
2.71315	67.1035
2.71173	68.517
2.71032	69.5946
2.7089	70.381
2.70748	71.0211
2.70607	71.8243
2.70466	72.7041
2.70325	73.5398
2.70184	74.5071
2.70043	75.4703
2.69903	76.3867
2.69762	77.2805
2.69622	78.2102
2.69482	79.0343
2.69342	79.701
2.69202	80.1351
2.69062	80.5817
2.68923	81.1518
2.68783	81.805
2.68644	82.3551
2.68505	82.7204
2.68366	83.135
2.68227	83.3787
2.68089	83.5697
2.6795	83.9486
2.67812	84.2759
2.67673	84.5976
2.67535	84.5185
2.67397	84.4873
2.6726	84.6844
2.67122	85.2581
2.66984	85.4482
2.66847	85.268
2.6671	85.6809
2.66572	85.9197
2.66435	85.8255
2.66299	85.6101
2.66162	85.5829
2.66025	85.5589
2.65889	85.5357
2.65753	85.5504
2.65616	85.7294
2.65481	85.7328
2.65345	85.8273
2.65209	85.9775
2.65073	85.9151
2.64938	85.8157
2.64803	85.8746
2.64667	85.9722
2.64532	85.9436
2.64397	85.8991
2.64263	86.0269
2.64128	86.0405
2.63994	85.9633
2.63859	85.9716
2.63725	86.0127
2.63591	85.9618
2.63457	86.0897
2.63323	86.2495
2.6319	86.4961
2.63056	86.79
2.62923	86.5306
2.62789	86.4486
2.62656	86.585
2.62523	86.2715
2.6239	86.1531
2.62258	86.2006
2.62125	86.3789
2.61993	86.4733
2.6186	86.3276
2.61728	86.6119
2.61596	86.6757
2.61464	86.4018
2.61332	86.3212
2.61201	86.2329
2.61069	86.3712
2.60938	86.5149
2.60807	86.4892
2.60675	86.7254
2.60544	86.948
2.60414	86.6438
2.60283	86.4539
2.60152	86.5055
2.60022	86.4235
2.59891	86.416
2.59761	86.6715
2.59631	87.0322
2.59501	87.548
2.59371	87.1255
2.59242	86.5584
2.59112	86.5039
2.58983	86.6111
2.58853	86.7445
2.58724	86.8295
2.58595	86.8605
2.58466	87.0817
2.58338	87.0414
2.58209	86.7976
2.5808	86.6799
2.57952	86.5611
2.57824	86.6729
2.57695	86.804
2.57567	86.8261
2.5744	86.9687
2.57312	86.9641
2.57184	86.7379
2.57057	86.8336
2.56929	86.9146
2.56802	86.6887
2.56675	86.5433
2.56548	86.714
2.56421	87.0104
2.56294	87.13
2.56168	87.0975
2.56041	86.8788
2.55915	86.7649
2.55789	86.7118
2.55662	86.6241
2.55536	86.6789
2.5541	86.785
2.55285	86.8965
2.55159	86.9517
2.55034	86.9438
2.54908	86.8845
2.54783	86.8707
2.54658	86.8797
2.54533	86.8298
2.54408	86.8499
2.54283	86.8353
2.54159	86.7284
2.54034	86.7414
2.5391	86.704
2.53785	86.6693
2.53661	86.8137
2.53537	86.8933
2.53413	86.8003
2.53289	86.6992
2.53166	86.7096
2.53042	86.8535
2.52919	86.9481
2.52795	86.9327
2.52672	86.773
2.52549	86.6753
2.52426	86.7636
2.52303	86.8505
2.52181	86.8659
2.52058	86.8412
2.51936	86.8048
2.51813	86.7554
2.51691	86.7998
2.51569	86.793
2.51447	86.7416
2.51325	86.7337
2.51203	86.7012
2.51082	86.6497
2.5096	86.7053
2.50839	86.8353
2.50717	86.8654
2.50596	86.797
2.50475	86.724
2.50354	86.7516
2.50233	86.6325
2.50113	86.6044
2.49992	86.7045
2.49872	86.7606
2.49751	86.7338
2.49631	86.6866
2.49511	86.7029
2.49391	86.6591
2.49271	86.646
2.49151	86.7123
2.49031	86.7382
2.48912	86.6412
2.48792	86.6272
2.48673	86.6487
2.48554	86.5841
2.48435	86.6926
2.48316	86.7
2.48197	86.6321
2.48078	86.7009
2.4796	86.8002
2.47841	86.7583
2.47723	86.7195
2.47604	86.7651
2.47486	86.8399
2.47368	86.7996
2.4725	86.765
2.47132	86.7662
2.47014	86.8068
2.46897	86.7727
2.46779	86.6286
2.46662	86.5816
2.46545	86.7004
2.46427	86.7753
2.4631	86.7787
2.46193	86.8259
2.46077	86.6776
2.4596	86.6226
2.45843	86.6714
2.45727	86.7715
2.4561	86.7985
2.45494	86.7811
2.45378	86.7333
2.45262	86.6995
2.45146	86.74
2.4503	86.7504
2.44914	86.7174
2.44799	86.6391
2.44683	86.6063
2.44568	86.7494
2.44452	86.8131
2.44337	86.8521
2.44222	86.7765
2.44107	86.715
2.43992	86.7407
2.43877	86.6513
2.43763	86.49
2.43648	86.5405
2.43534	86.6701
2.43419	86.7501
2.43305	86.7854
2.43191	86.8479
2.43077	86.8839
2.42963	86.7853
2.42849	86.7821
2.42736	86.8655
2.42622	86.8512
2.42509	86.9206
2.42395	86.8898
2.42282	86.7649
2.42169	86.751
2.42056	86.908
2.41943	86.9203
2.4183	86.951
2.41717	87.1808
2.41605	87.2446
2.41492	87.1336
2.4138	87.1466
2.41267	87.2003
2.41155	87.1122
2.41043	87.1356
2.40931	87.2042
2.40819	87.2017
2.40707	87.2494
2.40595	87.434
2.40484	87.423
2.40372	87.3294
2.40261	87.28
2.4015	87.2747
2.40039	87.3783
2.39928	87.3794
2.39817	87.3427
2.39706	87.3989
2.39595	87.5034
2.39484	87.4902
2.39374	87.3609
2.39263	87.3895
2.39153	87.5191
2.39043	87.5747
2.38932	87.5019
2.38822	87.336
2.38712	87.3488
2.38603	87.4899
2.38493	87.5173
2.38383	87.4772
2.38274	87.396
2.38164	87.358
2.38055	87.356
2.37946	87.3824
2.37836	87.4088
2.37727	87.5949
2.37618	87.5287
2.3751	87.4531
2.37401	87.6036
2.37292	87.6424
2.37184	87.574
2.37075	87.4661
2.36967	87.488
2.36859	87.5546
2.3675	87.5894
2.36642	87.6575
2.36534	87.5917
2.36427	87.456
2.36319	87.4367
2.36211	87.5851
2.36104	87.622
2.35996	87.4924
2.35889	87.3708
2.35781	87.4862
2.35674	87.4899
2.35567	87.4346
2.3546	87.4382
2.35353	87.5039
2.35247	87.5223
2.3514	87.4237
2.35033	87.304
2.34927	87.3301
2.3482	87.4341
2.34714	87.4722
2.34608	87.4273
2.34502	87.3514
2.34396	87.3485
2.3429	87.334
2.34184	87.3377
2.34078	87.4423
2.33973	87.3428
2.33867	87.3135
2.33762	87.4969
2.33656	87.4889
2.33551	87.4341
2.33446	87.469
2.33341	87.5585
2.33236	87.5551
2.33131	87.5378
2.33026	87.6468
2.32922	87.6423
2.32817	87.6017
2.32712	87.7789
2.32608	87.7908
2.32504	87.7258
2.324	87.7958
2.32295	87.8742
2.32191	87.8415
2.32087	87.7697
2.31984	87.7584
2.3188	87.8264
2.31776	87.7765
2.31673	87.8292
2.31569	87.9559
2.31466	87.915
2.31362	87.7897
2.31259	87.7493
2.31156	87.8334
2.31053	87.9271
2.3095	87.9055
2.30847	87.9202
2.30745	87.983
2.30642	87.9747
2.3054	87.9625
2.30437	87.9869
2.30335	88.0124
2.30232	87.9748
2.3013	87.929
2.30028	88.0347
2.29926	88.1521
2.29824	88.2249
2.29722	88.1575
2.29621	88.0038
2.29519	87.9744
2.29417	88.0155
2.29316	88.0528
2.29215	88.0612
2.29113	88.07
2.29012	88.1416
2.28911	88.2216
2.2881	88.3211
2.28709	88.2305
2.28608	88.1254
2.28507	88.1536
2.28407	88.2937
2.28306	88.2778
2.28206	88.1962
2.28105	88.1491
2.28005	88.1584
2.27905	88.1048
2.27805	88.0544
2.27705	88.0782
2.27605	88.159
2.27505	88.2544
2.27405	88.2823
2.27305	88.3596
2.27206	88.3589
2.27106	88.2425
2.27007	88.3204
2.26907	88.4327
2.26808	88.3437
2.26709	88.3032
2.2661	88.2604
2.26511	88.1832
2.26412	88.1824
2.26313	88.2686
2.26214	88.3147
2.26116	88.3527
2.26017	88.3593
2.25919	88.2383
2.2582	88.1304
2.25722	88.2401
2.25624	88.2957
2.25526	88.1308
2.25428	88.0194
2.2533	88.1011
2.25232	88.1313
2.25134	88.0892
2.25036	88.0201
2.24939	88.0733
2.24841	88.2155
2.24744	88.3718
2.24646	88.3354
2.24549	88.1682
2.24452	88.0632
2.24355	88.1049
2.24257	88.2422
2.24161	88.3314
2.24064	88.271
2.23967	88.1808
2.2387	88.2591
2.23774	88.258
2.23677	88.1892
2.23581	88.2221
2.23484	88.249
2.23388	88.2864
2.23292	88.2391
2.23196	88.1071
2.231	88.1653
2.23004	88.3151
2.22908	88.2825
2.22812	88.1096
2.22716	88.0336
2.22621	88.1225
2.22525	88.1724
2.2243	88.0727
2.22334	88.0211
2.22239	88.0961
2.22144	88.1308
2.22049	88.0458
2.21953	88.069
2.21859	88.0057
2.21764	87.7802
2.21669	87.8256
2.21574	87.9327
2.21479	87.9873
2.21385	87.9982
2.2129	87.8631
2.21196	87.6763
2.21102	87.6724
2.21007	87.7823
2.20913	87.6547
2.20819	87.5556
2.20725	87.6099
2.20631	87.6108
2.20537	87.4806
2.20444	87.3724
2.2035	87.3574
2.20256	87.308
2.20163	87.3301
2.20069	87.3909
2.19976	87.4464
2.19883	87.2521
2.19789	87.2402
2.19696	87.3522
2.19603	87.374
2.1951	87.4315
2.19417	87.4636
2.19325	87.3438
2.19232	87.3816
2.19139	87.5352
2.19047	87.5986
2.18954	87.4616
2.18862	87.4829
2.18769	87.7568
2.18677	87.8601
2.18585	87.9484
2.18493	87.9353
2.18401	87.8898
2.18309	87.7853
2.18217	87.8993
2.18125	88.036
2.18033	88.0758
2.17942	88.0632
2.1785	88.0695
2.17759	88.1207
2.17667	88.1219
2.17576	88.2262
2.17485	88.426
2.17393	88.4178
2.17302	88.2824
2.17211	88.2663
2.1712	88.4231
2.17029	88.5651
2.16939	88.5671
2.16848	88.4508
2.16757	88.3885
2.16667	88.5058
2.16576	88.5751
2.16486	88.6303
2.16395	88.5855
2.16305	88.5385
2.16215	88.6154
2.16125	88.6974
2.16035	88.5909
2.15945	88.6044
2.15855	88.8202
2.15765	88.8896
2.15675	88.7747
2.15586	88.8557
2.15496	88.9021
2.15406	88.8259
2.15317	88.8509
2.15228	88.8785
2.15138	88.9219
2.15049	88.7866
2.1496	88.7311
2.14871	88.8722
2.14782	88.8555
2.14693	88.7611
2.14604	88.8321
2.14515	88.8608
2.14427	88.7315
2.14338	88.719
2.14249	88.7985
2.14161	88.8605
2.14072	88.8773
2.13984	88.8859
2.13896	88.9156
2.13808	88.8908
2.13719	88.8789
2.13631	88.9478
2.13543	88.9975
2.13455	88.9752
2.13368	88.9203
2.1328	88.8997
2.13192	88.8796
2.13105	88.9496
2.13017	89.0178
2.1293	88.9862
2.12842	88.8517
2.12755	88.9924
2.12668	89.078
2.1258	88.9465
2.12493	89.0076
2.12406	89.1137
2.12319	88.9943
2.12232	88.9418
2.12145	88.952
2.12059	89.0266
2.11972	88.9373
2.11885	88.9348
2.11799	89.1033
2.11712	88.932
2.11626	88.9693
2.1154	89.2044
2.11453	89.3152
2.11367	89.0534
2.11281	88.9318
2.11195	88.9167
2.11109	88.9968
2.11023	89.1713
2.10937	89.2292
2.10851	89.1692
2.10766	89.1529
2.1068	89.0343
2.10594	89.0346
2.10509	88.9867
2.10423	88.7969
2.10338	88.8179
2.10253	89.0732
2.10168	89.1607
2.10082	88.9213
2.09997	88.7879
2.09912	88.954
2.09827	89.0918
2.09742	89.1132
2.09658	89.2579
2.09573	89.3
2.09488	89.0619
2.09404	88.8912
2.09319	88.6819
2.09235	88.5432
2.0915	88.6727
2.09066	88.8638
2.08982	88.9077
2.08897	88.7761
2.08813	89.0105
2.08729	89.1559
2.08645	89.2164
2.08561	89.0749
2.08477	88.8947
2.08394	88.8372
2.0831	88.969
2.08226	89.0196
2.08143	88.9109
2.08059	89.0515
2.07976	89.1537
2.07892	88.882
2.07809	88.682
2.07726	88.8568
2.07643	89.2221
2.07559	89.4663
2.07476	89.2987
2.07393	88.9393
2.0731	88.7982
2.07228	89.0995
2.07145	89.1931
2.07062	89.1122
2.06979	89.1751
2.06897	89.0566
2.06814	88.8926
2.06732	89.0622
2.06649	89.1955
2.06567	88.9967
2.06485	88.9945
2.06403	89.2028
2.0632	89.1432
2.06238	89.1381
2.06156	89.234
2.06074	89.0796
2.05993	88.9519
2.05911	88.9422
2.05829	88.8312
2.05747	88.7807
2.05666	88.7264
2.05584	88.8052
2.05503	88.9843
2.05421	89.0523
2.0534	89.0185
2.05259	88.9489
2.05177	88.8873
2.05096	88.9512
2.05015	89.0602
2.04934	89.0396
2.04853	88.9217
2.04772	88.9914
2.04691	89.1238
2.04611	89.0088
2.0453	89.0522
2.04449	89.2351
2.04369	89.1086
2.04288	89.0069
2.04208	88.986
2.04127	88.8361
2.04047	88.7813
2.03967	88.8501
2.03886	88.9602
2.03806	88.9195
2.03726	88.6922
2.03646	88.7842
2.03566	89.0476
2.03486	89.2227
2.03407	89.0496
2.03327	88.8522
2.03247	88.9544
2.03167	88.874
2.03088	88.8127
2.03008	89.0093
2.02929	89.0684
2.0285	88.8615
2.0277	88.7999
2.02691	88.8434
2.02612	88.9067
2.02533	88.9467
2.02453	88.8814
2.02374	89.1108
2.02295	89.296
2.02217	89.2931
2.02138	89.202
2.02059	89.0566
2.0198	88.9755
2.01902	89.0142
2.01823	89.0172
2.01744	88.9765
2.01666	88.9677
2.01588	89.0558
2.01509	88.9089
2.01431	88.9138
2.01353	89.0218
2.01275	88.9442
2.01196	88.8987
2.01118	88.9002
2.0104	88.9224
2.00963	88.9832
2.00885	89.0442
2.00807	89.0537
2.00729	88.9
2.00651	88.718
2.00574	88.7879
2.00496	88.8981
2.00419	88.892
2.00341	88.9384
2.00264	88.8227
2.00187	88.8617
2.00109	89.0801
2.00032	88.9638
