Name: Wollastonite CaSiO_3
Type: Mineral
Class: Silicates
Subclass: Inosilicates
Particle Size: 45-125um
Sample No.: IN-2A
Owner: JPL
Wavelength range: IR
Origin: USA, California, Inyo County, Panamint Mountains
Collected by Burminco
Description: 





Measurement: Hemispherical reflectance
First Column: X
Second Column: Y
X Units:  Wavelength (micrometers)
Y Units:  Reflectance (percent)
First X Value: 15.3853
Last X Value: 2.00032
Number of X Values: 2256
Additional information: in02aa.txt
 
15.3853	4.37157
15.3397	3.24109
15.2945	2.59326
15.2495	2.30652
15.2048	2.115
15.1603	2.12205
15.1161	2.21299
15.0722	2.40961
15.0285	2.91254
14.9851	2.9707
14.9419	2.94003
14.8989	3.01665
14.8563	3.1553
14.8138	3.25399
14.7716	3.55956
14.7296	3.76763
14.6879	4.09325
14.6464	4.08024
14.6052	3.48375
14.5641	2.74508
14.5233	2.26169
14.4828	2.11404
14.4424	2.13156
14.4023	2.3053
14.3624	2.72226
14.3227	3.1444
14.2833	3.41516
14.244	3.8553
14.205	4.28837
14.1662	4.72768
14.1276	5.3075
14.0892	5.80952
14.051	6.20318
14.0131	6.45753
13.9753	6.49626
13.9377	6.62863
13.9004	6.94895
13.8632	7.26936
13.8262	7.54242
13.7895	7.87489
13.7529	8.16527
13.7165	8.36597
13.6803	8.59125
13.6443	8.78204
13.6085	8.78301
13.5729	8.90265
13.5374	9.153
13.5022	9.30043
13.4671	9.42938
13.4322	9.40628
13.3975	9.39453
13.363	9.47539
13.3286	9.41966
13.2944	9.5511
13.2604	9.99841
13.2266	10.0247
13.193	9.83234
13.1595	10.0193
13.1262	10.1886
13.093	10.096
13.06	10.1357
13.0272	10.293
12.9946	10.4114
12.9621	10.4574
12.9298	10.4948
12.8976	10.3591
12.8656	10.2148
12.8337	10.2673
12.8021	10.2127
12.7705	10.1311
12.7391	10.2057
12.7079	10.1294
12.6769	10.0195
12.6459	10.04
12.6152	10.038
12.5845	9.99282
12.5541	9.81481
12.5238	9.77296
12.4936	9.92181
12.4635	10.0615
12.4337	9.95031
12.4039	9.73183
12.3743	9.63498
12.3448	9.65922
12.3155	9.57155
12.2863	9.44466
12.2573	9.37932
12.2284	9.29936
12.1996	9.24898
12.171	9.23912
12.1425	9.04105
12.1141	8.89897
12.0859	9.04253
12.0578	9.03355
12.0298	8.8446
12.0019	8.8244
11.9742	8.83189
11.9466	8.74391
11.9192	8.7319
11.8918	8.6098
11.8646	8.4267
11.8375	8.44366
11.8106	8.50243
11.7837	8.50668
11.757	8.47163
11.7304	8.45551
11.7039	8.31017
11.6776	8.24709
11.6513	8.2751
11.6252	8.40288
11.5992	8.44334
11.5733	8.35901
11.5475	8.23789
11.5219	8.22069
11.4963	8.22521
11.4709	8.14499
11.4455	8.34463
11.4203	8.52602
11.3952	8.66499
11.3702	8.73805
11.3454	8.84518
11.3206	9.18843
11.2959	9.49522
11.2714	9.87774
11.2469	10.4628
11.2226	10.9707
11.1983	11.4585
11.1742	12.2618
11.1502	13.3511
11.1263	14.3451
11.1024	15.3373
11.0787	16.2897
11.0551	16.5426
11.0316	15.9489
11.0081	14.872
10.9848	14.1693
10.9616	14.1318
10.9385	14.6292
10.9154	15.3222
10.8925	16.0579
10.8697	16.7552
10.8469	17.2105
10.8243	17.5927
10.8017	17.8861
10.7793	17.8623
10.7569	17.6713
10.7346	17.4723
10.7125	17.6253
10.6904	18.1674
10.6684	18.6954
10.6465	19.165
10.6247	19.5908
10.6029	20.0639
10.5813	20.4084
10.5597	20.725
10.5383	20.9657
10.5169	21.1976
10.4956	21.5599
10.4744	22.0286
10.4533	22.3839
10.4323	22.6889
10.4113	23.0954
10.3904	23.4027
10.3697	23.7389
10.349	24.3465
10.3284	24.6662
10.3078	24.6779
10.2874	24.3776
10.267	23.4159
10.2467	21.8296
10.2265	19.6745
10.2064	17.4328
10.1863	16.2122
10.1663	15.952
10.1464	15.8723
10.1266	15.8636
10.1069	15.7816
10.0872	15.4868
10.0676	15.0066
10.0481	14.4828
10.0287	13.9524
10.0093	13.3577
9.99005	12.5828
9.97084	11.7827
9.95169	11.3259
9.93263	11.5229
9.91364	12.1025
9.89472	12.5928
9.87587	12.8258
9.8571	12.5284
9.83839	11.8745
9.81976	11.3855
9.80119	11.1533
9.78271	11.3197
9.76428	11.8005
9.74592	12.4192
9.72764	12.8143
9.70943	12.7021
9.69128	12.0985
9.6732	10.9402
9.65518	9.20938
9.63724	7.23831
9.61935	6.38338
9.60155	6.88877
9.5838	7.95876
9.56611	9.17652
9.5485	10.2276
9.53094	11.1692
9.51345	12.0329
9.49604	12.9684
9.47867	14.1868
9.46137	15.6891
9.44414	17.7209
9.42697	19.8708
9.40986	21.7972
9.39281	23.4399
9.37583	24.6502
9.35891	25.4025
9.34204	25.7473
9.32524	25.8039
9.3085	25.6652
9.29182	25.3143
9.27519	24.684
9.25863	23.818
9.24213	22.5871
9.22568	20.7787
9.2093	18.608
9.19297	16.3692
9.17669	14.5185
9.16048	13.3536
9.14433	12.3311
9.12823	11.3797
9.11218	10.9607
9.0962	10.743
9.08027	10.3297
9.06439	10.1053
9.04858	10.1177
9.03281	10.1065
9.0171	10.2153
9.00145	10.4024
8.98585	10.7011
8.9703	11.0055
8.9548	11.2356
8.93937	11.4865
8.92398	11.7355
8.90865	11.7947
8.89337	11.826
8.87814	11.7684
8.86296	11.6524
8.84784	11.4719
8.83277	11.0646
8.81774	10.4519
8.80277	9.53622
8.78786	8.46596
8.77298	7.36691
8.75816	6.43371
8.7434	5.65013
8.72868	4.81252
8.714	4.11995
8.69938	3.76816
8.68481	3.44186
8.67029	3.11594
8.65581	2.75654
8.64139	2.39879
8.62701	2.17702
8.61268	2.0435
8.5984	1.97413
8.58416	1.88385
8.56997	1.92206
8.55583	1.99355
8.54174	1.96224
8.52769	1.97024
8.51368	2.05184
8.49973	1.99915
8.48582	2.04699
8.47195	2.17953
8.45813	2.15974
8.44436	2.07011
8.43062	2.04071
8.41693	2.0833
8.4033	2.17856
8.3897	2.29031
8.37614	2.38279
8.36264	2.39423
8.34917	2.37701
8.33574	2.56719
8.32236	2.63186
8.30903	2.78859
8.29573	2.93496
8.28248	2.90405
8.26927	2.89821
8.2561	3.02162
8.24298	3.12728
8.2299	3.1645
8.21685	3.20645
8.20385	3.33961
8.19089	3.46599
8.17797	3.55593
8.16509	3.6733
8.15225	3.78509
8.13946	3.80429
8.1267	3.79767
8.11398	3.88873
8.10131	3.99621
8.08867	4.07364
8.07606	4.07836
8.0635	4.13377
8.05099	4.21644
8.0385	4.31055
8.02606	4.35622
8.01366	4.44265
8.00129	4.59689
7.98896	4.66256
7.97667	4.65037
7.96442	4.71154
7.9522	4.7962
7.94002	4.8206
7.92788	4.85129
7.91578	4.91872
7.90371	5.00846
7.89168	5.13539
7.87969	5.24061
7.86773	5.31158
7.85581	5.50483
7.84392	5.69161
7.83207	5.79259
7.82026	5.84533
7.80849	6.00499
7.79674	6.25628
7.78503	6.41452
7.77337	6.55122
7.76173	6.6853
7.75012	6.77228
7.73856	6.85804
7.72703	6.93396
7.71553	7.06048
7.70406	7.25983
7.69263	7.41296
7.68123	7.53668
7.66987	7.58622
7.65855	7.56806
7.64725	7.65322
7.63598	7.69754
7.62475	7.69021
7.61356	7.64113
7.60239	7.72299
7.59126	7.90399
7.58017	8.0675
7.5691	8.11501
7.55806	8.12308
7.54707	8.16824
7.5361	8.26908
7.52516	8.48714
7.51425	8.63905
7.50338	8.6888
7.49253	8.75131
7.48172	8.89303
7.47094	9.05635
7.46019	9.21281
7.44947	9.40096
7.43879	9.61114
7.42813	9.76439
7.4175	9.87231
7.4069	10.111
7.39634	10.4034
7.3858	10.652
7.37529	10.9179
7.36482	11.1844
7.35437	11.4353
7.34396	11.6017
7.33357	11.6732
7.32321	11.9285
7.31288	12.2317
7.30258	12.3372
7.29231	12.5178
7.28207	12.7063
7.27185	12.6926
7.26167	12.7894
7.25152	12.9778
7.24139	13.1219
7.23129	13.2209
7.22122	13.2453
7.21117	13.3027
7.20116	13.2636
7.19117	13.1665
7.18121	13.2606
7.17128	13.3784
7.16137	13.2984
7.1515	13.14
7.14164	13.0527
7.13182	13.0389
7.12203	13.0309
7.11225	12.9554
7.10251	12.8959
7.0928	12.8535
7.08311	12.8847
7.07344	12.9792
7.06381	13.0892
7.0542	13.3275
7.04461	13.4609
7.03506	13.4595
7.02552	13.4789
7.01601	13.4411
7.00653	13.4239
6.99708	13.4282
6.98765	13.4174
6.97824	13.3566
6.96886	13.4716
6.95951	13.5803
6.95018	13.4761
6.94087	13.4256
6.9316	13.4758
6.92234	13.5544
6.91311	13.5973
6.90391	13.5351
6.89473	13.5148
6.88557	13.5824
6.87644	13.6209
6.86733	13.7514
6.85824	13.6338
6.84918	13.4117
6.84015	13.3671
6.83114	13.3503
6.82215	13.2015
6.81319	13.0999
6.80424	13.1985
6.79532	13.3148
6.78643	13.249
6.77756	13.1599
6.76871	13.0773
6.75989	12.9463
6.75109	12.8121
6.74231	12.6603
6.73355	12.6006
6.72482	12.6205
6.71611	12.6218
6.70742	12.4991
6.69875	12.3943
6.69011	12.4527
6.68149	12.4646
6.67289	12.4581
6.66431	12.6003
6.65576	12.846
6.64722	13.2306
6.63871	13.7975
6.63022	14.1946
6.62175	14.4355
6.61331	14.6998
6.60488	14.9257
6.59648	15.1451
6.5881	15.3052
6.57974	15.4072
6.5714	15.4947
6.56308	15.4078
6.55478	15.3591
6.54651	15.3138
6.53825	15.2482
6.53001	15.1024
6.5218	15.0139
6.51361	14.8415
6.50544	14.7446
6.49729	14.7948
6.48915	14.6132
6.48104	14.2352
6.47295	13.8572
6.46488	13.5229
6.45683	13.3873
6.4488	13.3655
6.44079	13.2024
6.4328	13.0496
6.42482	12.8551
6.41687	12.6538
6.40894	12.2426
6.40103	11.8609
6.39314	11.6428
6.38526	11.5685
6.37741	11.706
6.36957	11.9313
6.36176	12.052
6.35396	12.2219
6.34618	12.5655
6.33843	12.7537
6.33069	12.807
6.32297	13.0151
6.31527	13.3146
6.30758	13.6402
6.29992	13.9457
6.29227	14.143
6.28465	14.2963
6.27704	14.4277
6.26945	14.3779
6.26188	14.3228
6.25432	14.2623
6.24679	14.0451
6.23927	13.7551
6.23177	13.508
6.22429	13.3351
6.21683	13.3222
6.20938	13.3933
6.20195	13.4783
6.19454	13.5485
6.18715	13.698
6.17978	13.6467
6.17242	13.4284
6.16508	13.3643
6.15776	13.3389
6.15045	13.2697
6.14317	13.3184
6.1359	13.3138
6.12864	13.1599
6.12141	13.1444
6.11419	13.2374
6.10699	13.1878
6.0998	13.2486
6.09263	13.3837
6.08549	13.5878
6.07835	14.0486
6.07123	14.5524
6.06413	14.9031
6.05705	15.3626
6.04998	16.0793
6.04293	16.368
6.0359	16.4411
6.02888	16.8221
6.02187	17.3291
6.01489	17.9302
6.00792	18.4
6.00096	18.8203
5.99403	19.3099
5.98711	19.7468
5.9802	19.91
5.97331	20.09
5.96644	20.2383
5.95958	20.1999
5.95274	20.2086
5.94591	20.2925
5.9391	20.6055
5.9323	20.4787
5.92552	20.1315
5.91876	19.9495
5.91201	19.7726
5.90528	19.6229
5.89856	19.5079
5.89186	19.1432
5.88517	19.1022
5.8785	18.9277
5.87184	18.3867
5.8652	18.123
5.85857	17.7723
5.85196	17.3738
5.84536	17.0029
5.83878	16.6959
5.83221	16.435
5.82566	16.2369
5.81912	16.112
5.81259	15.8813
5.80608	15.8679
5.79959	16.0681
5.79311	16.1567
5.78665	16.2983
5.78019	16.5851
5.77376	16.9594
5.76734	17.4089
5.76093	17.5466
5.75453	17.6757
5.74815	18.0789
5.74179	18.3438
5.73543	18.7042
5.7291	19.2162
5.72277	19.8103
5.71646	20.4899
5.71017	21.3147
5.70389	22.155
5.69762	23.1137
5.69136	24.0755
5.68513	24.7599
5.6789	25.2828
5.67268	25.5839
5.66648	25.671
5.6603	25.7876
5.65413	25.8244
5.64797	25.8316
5.64182	25.898
5.63569	25.6858
5.62957	25.4345
5.62347	25.3359
5.61737	25.1916
5.61129	25.0785
5.60522	25.0758
5.59917	25.0952
5.59313	25.0431
5.5871	25.037
5.58109	25.1585
5.57509	25.127
5.5691	24.7647
5.56312	24.3309
5.55716	24.0208
5.55121	23.9009
5.54528	24.0475
5.53935	24.5274
5.53344	25.2675
5.52754	26.1916
5.52166	27.0334
5.51578	27.6671
5.50992	28.1656
5.50407	28.6977
5.49823	29.2944
5.49241	29.8728
5.4866	30.2797
5.4808	30.7576
5.47501	31.1669
5.46923	31.5811
5.46347	31.8575
5.45772	31.8491
5.45198	31.8295
5.44625	31.8258
5.44054	31.7478
5.43484	31.725
5.42914	31.7858
5.42347	31.9706
5.4178	31.9302
5.41214	31.7757
5.4065	31.4974
5.40087	30.9534
5.39525	30.1905
5.38964	29.3997
5.38404	28.7641
5.37846	28.3624
5.37288	28.1939
5.36732	28.1454
5.36177	28.1934
5.35623	28.2656
5.35071	28.2502
5.34519	28.0668
5.33968	27.8556
5.33419	27.6328
5.32871	27.2189
5.32324	26.6008
5.31778	25.8183
5.31233	24.8794
5.30689	23.7993
5.30147	22.6975
5.29605	21.6642
5.29065	20.6355
5.28525	19.6609
5.27987	18.9466
5.2745	18.4475
5.26914	18.0813
5.26379	17.8016
5.25845	17.6598
5.25312	17.5841
5.24781	17.6192
5.2425	17.7507
5.23721	17.8245
5.23192	17.9368
5.22665	18.0762
5.22138	18.2304
5.21613	18.4051
5.21089	18.5082
5.20566	18.5513
5.20044	18.6853
5.19522	18.8731
5.19002	19.127
5.18483	19.4963
5.17965	20.0027
5.17448	20.5029
5.16933	20.9581
5.16418	21.4758
5.15904	21.9114
5.15391	22.3826
5.14879	22.8197
5.14368	23.1347
5.13859	23.3801
5.1335	23.5799
5.12842	23.7873
5.12335	23.9826
5.1183	24.1298
5.11325	24.2501
5.10821	24.3862
5.10318	24.4613
5.09817	24.5716
5.09316	24.6811
5.08816	24.81
5.08317	24.9195
5.07819	24.9552
5.07322	25.008
5.06826	25.1193
5.06331	25.2719
5.05837	25.5062
5.05344	25.7165
5.04852	25.8564
5.04361	25.9926
5.03871	26.1274
5.03382	26.2292
5.02894	26.3951
5.02406	26.6117
5.0192	26.7972
5.01435	26.9984
5.0095	27.2057
5.00467	27.2376
4.99984	27.215
4.99502	27.3156
4.99021	27.4916
4.98542	27.7552
4.98063	28.0347
4.97585	28.1386
4.97108	28.055
4.96632	27.9651
4.96156	27.9403
4.95682	27.8262
4.95209	27.6323
4.94736	27.4633
4.94264	27.3277
4.93794	27.241
4.93324	27.1572
4.92855	27.081
4.92387	27.0484
4.9192	27.093
4.91453	27.2673
4.90988	27.7462
4.90524	28.3599
4.9006	28.9536
4.89597	29.415
4.89135	29.7118
4.88674	29.9703
4.88214	30.1932
4.87755	30.4002
4.87296	30.6371
4.86839	30.9372
4.86382	31.3542
4.85926	31.709
4.85471	32.0029
4.85017	32.2096
4.84564	32.294
4.84111	32.3364
4.8366	32.4468
4.83209	32.6926
4.82759	33.1237
4.8231	33.7462
4.81862	34.4271
4.81415	35.0499
4.80968	35.6436
4.80522	36.1533
4.80077	36.5614
4.79633	36.9099
4.7919	37.1668
4.78747	37.4503
4.78306	37.7339
4.77865	37.8938
4.77425	38.0679
4.76986	38.2562
4.76547	38.4918
4.7611	38.7802
4.75673	39.2214
4.75237	39.7875
4.74802	40.2674
4.74367	40.725
4.73934	41.3645
4.73501	42.0221
4.73069	42.7145
4.72638	43.3665
4.72207	43.8564
4.71777	44.2705
4.71348	44.6938
4.7092	44.9976
4.70493	45.2298
4.70066	45.3879
4.69641	45.5205
4.69216	45.693
4.68791	45.9027
4.68368	46.0673
4.67945	46.266
4.67523	46.4945
4.67102	46.7356
4.66682	47.1087
4.66262	47.5605
4.65843	48.0332
4.65425	48.6144
4.65007	49.2505
4.64591	49.9067
4.64175	50.5241
4.6376	51.102
4.63345	51.689
4.62932	52.3473
4.62519	52.937
4.62106	53.5268
4.61695	54.0493
4.61284	54.429
4.60874	54.7807
4.60465	55.1926
4.60056	55.4757
4.59648	55.7
4.59241	56.0119
4.58835	56.297
4.58429	56.4738
4.58024	56.6181
4.5762	56.727
4.57216	56.8679
4.56814	57.0887
4.56411	57.4457
4.5601	57.8449
4.55609	58.327
4.55209	58.9658
4.5481	59.6238
4.54411	60.2771
4.54013	60.9061
4.53616	61.4162
4.5322	61.8653
4.52824	62.3341
4.52429	62.6388
4.52034	62.8361
4.51641	63.0854
4.51247	63.3011
4.50855	63.3764
4.50463	63.3847
4.50072	63.5143
4.49682	63.5859
4.49292	63.6492
4.48903	63.7522
4.48515	63.8339
4.48127	63.8375
4.4774	63.9625
4.47354	64.0119
4.46968	64.01
4.46584	64.0905
4.46199	64.2116
4.45815	64.2728
4.45432	64.3936
4.4505	64.5037
4.44668	64.548
4.44287	64.6281
4.43907	64.7643
4.43527	64.8143
4.43148	64.8756
4.4277	64.9723
4.42392	65.0261
4.42015	65.0274
4.41638	65.0218
4.41262	65.1088
4.40887	65.2361
4.40513	65.3434
4.40139	65.4533
4.39765	65.5814
4.39393	65.6431
4.39021	65.7011
4.38649	65.8063
4.38278	65.9484
4.37908	66.1301
4.37539	66.2033
4.3717	66.3045
4.36801	66.4977
4.36434	66.6738
4.36067	66.8016
4.357	66.9117
4.35335	66.9761
4.34969	67.0469
4.34605	67.1624
4.34241	67.2532
4.33877	67.3639
4.33514	67.4707
4.33152	67.5445
4.32791	67.5831
4.3243	67.641
4.32069	67.6665
4.3171	67.7308
4.31351	67.8557
4.30992	67.9162
4.30634	67.9457
4.30277	67.9299
4.2992	67.9947
4.29564	68.0556
4.29208	68.0327
4.28853	68.0935
4.28499	68.227
4.28145	68.2796
4.27792	68.3535
4.27439	68.4419
4.27087	68.5274
4.26735	68.5978
4.26384	68.6263
4.26034	68.5944
4.25684	68.6347
4.25335	68.7309
4.24986	68.7676
4.24638	68.7592
4.24291	68.8542
4.23944	68.9355
4.23598	68.9228
4.23252	68.9388
4.22906	68.9889
4.22562	68.9809
4.22218	69.0921
4.21874	69.1926
4.21531	69.2584
4.21189	69.3107
4.20847	69.3717
4.20506	69.4539
4.20165	69.4999
4.19825	69.5257
4.19485	69.5741
4.19146	69.5484
4.18807	69.6031
4.18469	69.7016
4.18132	69.7615
4.17795	69.7605
4.17458	69.7887
4.17123	69.8163
4.16787	69.8576
4.16453	69.9241
4.16118	69.9645
4.15785	69.9828
4.15451	69.9631
4.15119	69.9637
4.14787	70.0135
4.14455	69.9928
4.14124	69.9942
4.13794	70.0539
4.13464	70.1171
4.13134	70.1399
4.12805	70.1904
4.12477	70.3065
4.12149	70.4051
4.11822	70.3831
4.11495	70.3178
4.11168	70.381
4.10843	70.4918
4.10517	70.5985
4.10192	70.678
4.09868	70.6392
4.09545	70.6427
4.09221	70.783
4.08899	70.846
4.08576	70.7818
4.08255	70.7785
4.07933	70.7641
4.07613	70.8041
4.07292	70.8366
4.06973	70.8184
4.06654	70.7373
4.06335	70.7121
4.06017	70.663
4.05699	70.5116
4.05382	70.3979
4.05065	70.2772
4.04749	70.0717
4.04433	69.8682
4.04118	69.6531
4.03803	69.3646
4.03489	69.1824
4.03175	68.973
4.02862	68.6306
4.02549	68.2944
4.02237	68.074
4.01925	67.9555
4.01614	67.6973
4.01303	67.223
4.00993	66.7305
4.00683	66.3027
4.00373	65.9224
4.00064	65.6148
3.99756	65.3408
3.99448	65.1281
3.9914	64.9554
3.98833	64.7588
3.98527	64.5589
3.98221	64.51
3.97915	64.5453
3.9761	64.6104
3.97305	64.7002
3.97001	64.7537
3.96697	64.8692
3.96394	64.9924
3.96091	65.1483
3.95789	65.35
3.95487	65.587
3.95186	65.9295
3.94885	66.1909
3.94584	66.3898
3.94284	66.5886
3.93984	66.9514
3.93685	67.2306
3.93386	67.3288
3.93088	67.3295
3.9279	67.3094
3.92493	67.3312
3.92196	67.3942
3.919	67.481
3.91604	67.538
3.91308	67.5619
3.91013	67.6211
3.90718	67.6663
3.90424	67.6763
3.9013	67.734
3.89837	67.8008
3.89544	67.7485
3.89252	67.7308
3.8896	67.7719
3.88668	67.7747
3.88377	67.79
3.88086	67.8088
3.87796	67.8023
3.87506	67.7714
3.87217	67.7606
3.86928	67.7618
3.86639	67.7478
3.86351	67.7456
3.86064	67.739
3.85776	67.7267
3.8549	67.7333
3.85203	67.8551
3.84917	67.9549
3.84631	67.9524
3.84346	67.8514
3.84062	67.768
3.83777	67.8563
3.83494	68.0359
3.8321	68.163
3.82927	68.2434
3.82644	68.3232
3.82362	68.4274
3.82081	68.5076
3.81799	68.6071
3.81518	68.7024
3.81238	68.8621
3.80958	68.9871
3.80678	69.124
3.80399	69.2728
3.8012	69.4446
3.79841	69.5983
3.79563	69.6959
3.79286	69.8092
3.79008	69.8938
3.78731	69.9539
3.78455	70.0397
3.78179	70.0738
3.77903	70.0905
3.77628	70.1204
3.77353	70.101
3.77079	70.0316
3.76805	70.0317
3.76531	70.0902
3.76258	70.0562
3.75985	69.9976
3.75713	69.9838
3.7544	69.9306
3.75169	69.8809
3.74898	69.8215
3.74627	69.7785
3.74356	69.7323
3.74086	69.738
3.73816	69.7507
3.73547	69.6881
3.73278	69.6168
3.7301	69.5168
3.72741	69.4382
3.72474	69.406
3.72206	69.4039
3.71939	69.3936
3.71673	69.4043
3.71406	69.3844
3.71141	69.2916
3.70875	69.1919
3.7061	69.0527
3.70345	68.9283
3.70081	68.8634
3.69817	68.9112
3.69553	68.9362
3.6929	68.8422
3.69027	68.7008
3.68765	68.6191
3.68503	68.6273
3.68241	68.6266
3.6798	68.5161
3.67719	68.421
3.67458	68.304
3.67198	68.2102
3.66938	68.1546
3.66678	68.1356
3.66419	68.1539
3.66161	68.0496
3.65902	67.9338
3.65644	67.9328
3.65387	67.9093
3.65129	67.8678
3.64872	67.7977
3.64616	67.7526
3.64359	67.6978
3.64103	67.636
3.63848	67.577
3.63593	67.4698
3.63338	67.3765
3.63084	67.2831
3.6283	67.2512
3.62576	67.2073
3.62322	67.0635
3.62069	66.9608
3.61817	66.9211
3.61564	66.8116
3.61312	66.6703
3.61061	66.5957
3.6081	66.4863
3.60559	66.4136
3.60308	66.4642
3.60058	66.4192
3.59808	66.2252
3.59558	66.0749
3.59309	66.0538
3.59061	66.1062
3.58812	66.0481
3.58564	65.8963
3.58316	65.7772
3.58069	65.7074
3.57822	65.603
3.57575	65.527
3.57328	65.4804
3.57082	65.442
3.56836	65.4046
3.56591	65.4463
3.56346	65.3842
3.56101	65.2956
3.55857	65.2415
3.55613	65.176
3.55369	65.1277
3.55126	65.1005
3.54883	65.1159
3.5464	64.9922
3.54397	64.8192
3.54155	64.683
3.53914	64.5868
3.53672	64.4829
3.53431	64.3137
3.5319	64.0912
3.5295	63.853
3.5271	63.611
3.5247	63.2843
3.52231	62.9566
3.51991	62.7019
3.51753	62.4851
3.51514	62.2909
3.51276	62.1279
3.51038	61.9044
3.50801	61.7027
3.50563	61.6392
3.50327	61.48
3.5009	61.2683
3.49854	61.1579
3.49618	61.0919
3.49382	61.0504
3.49147	60.9769
3.48912	60.8078
3.48677	60.6932
3.48443	60.6449
3.48209	60.5909
3.47975	60.5172
3.47742	60.4302
3.47509	60.4876
3.47276	60.6501
3.47044	60.8205
3.46812	60.9724
3.4658	61.1781
3.46348	61.3551
3.46117	61.4486
3.45886	61.4741
3.45656	61.4636
3.45425	61.416
3.45195	61.3935
3.44966	61.4678
3.44736	61.4305
3.44507	61.2931
3.44279	61.2175
3.4405	61.1781
3.43822	61.1449
3.43594	61.1117
3.43367	61.0425
3.43139	60.9285
3.42912	60.9123
3.42686	60.8674
3.42459	60.69
3.42233	60.5283
3.42007	60.4661
3.41782	60.488
3.41557	60.46
3.41332	60.3557
3.41108	60.2841
3.40883	60.2296
3.40659	60.2148
3.40435	60.224
3.40212	60.238
3.39989	60.2738
3.39766	60.2621
3.39544	60.2068
3.39322	60.083
3.391	60.036
3.38878	60.1503
3.38657	60.166
3.38436	60.0549
3.38215	60.0106
3.37994	59.8888
3.37774	59.784
3.37554	59.7571
3.37335	59.6782
3.37115	59.6509
3.36896	59.7146
3.36678	59.6689
3.36459	59.497
3.36241	59.4104
3.36023	59.3876
3.35805	59.3115
3.35588	59.2412
3.35371	59.1511
3.35154	59.1712
3.34938	59.2179
3.34721	59.3507
3.34505	59.5203
3.3429	59.6908
3.34074	59.942
3.33859	60.1519
3.33644	60.3022
3.3343	60.4435
3.33215	60.4789
3.33001	60.4811
3.32788	60.5273
3.32574	60.4879
3.32361	60.4578
3.32148	60.4968
3.31936	60.5069
3.31723	60.4933
3.31511	60.4237
3.31299	60.3613
3.31088	60.2699
3.30876	60.2369
3.30665	60.2595
3.30455	60.3194
3.30244	60.2723
3.30034	60.1603
3.29824	60.0914
3.29614	60.002
3.29405	59.9356
3.29196	59.942
3.28987	59.9695
3.28778	59.9341
3.2857	59.8345
3.28362	59.8223
3.28154	59.8572
3.27946	59.8484
3.27739	59.7652
3.27532	59.639
3.27325	59.5712
3.27119	59.5087
3.26913	59.4529
3.26707	59.3279
3.26501	59.2565
3.26295	59.2512
3.2609	59.1852
3.25885	59.1597
3.2568	59.0926
3.25476	58.9442
3.25272	58.9146
3.25068	58.9086
3.24864	58.7698
3.24661	58.6724
3.24458	58.615
3.24255	58.533
3.24052	58.5035
3.2385	58.3816
3.23648	58.3003
3.23446	58.1733
3.23244	58.0937
3.23043	58.2302
3.22841	58.1874
3.2264	57.9115
3.2244	57.7989
3.22239	57.768
3.22039	57.6798
3.21839	57.6023
3.2164	57.5182
3.2144	57.4809
3.21241	57.3632
3.21042	57.1771
3.20844	57.0996
3.20645	57.0017
3.20447	56.851
3.20249	56.7857
3.20051	56.7102
3.19854	56.5268
3.19657	56.419
3.1946	56.3686
3.19263	56.2413
3.19067	56.1415
3.1887	56.0505
3.18674	55.9615
3.18479	55.8516
3.18283	55.7151
3.18088	55.5799
3.17893	55.4684
3.17698	55.3811
3.17504	55.3421
3.17309	55.3793
3.17115	55.328
3.16921	55.1785
3.16728	54.8949
3.16534	54.7079
3.16341	54.6772
3.16148	54.5807
3.15956	54.45
3.15763	54.4288
3.15571	54.331
3.15379	54.1314
3.15187	54.0574
3.14996	54.0558
3.14805	53.9363
3.14614	53.7916
3.14423	53.6761
3.14232	53.5399
3.14042	53.4193
3.13852	53.309
3.13662	53.1805
3.13472	53.0655
3.13283	52.9963
3.13094	52.7945
3.12905	52.6377
3.12716	52.6454
3.12528	52.5727
3.12339	52.4405
3.12151	52.3035
3.11964	52.1728
3.11776	52.0427
3.11589	51.9061
3.11401	51.8092
3.11214	51.6613
3.11028	51.6046
3.10841	51.4977
3.10655	51.2736
3.10469	51.1656
3.10283	51.1204
3.10098	51.0273
3.09912	50.9013
3.09727	50.8538
3.09542	50.7817
3.09358	50.5985
3.09173	50.5024
3.08989	50.5088
3.08805	50.3646
3.08621	50.179
3.08437	50.1243
3.08254	50.1574
3.08071	50.015
3.07888	49.8953
3.07705	49.7903
3.07523	49.7436
3.0734	49.6748
3.07158	49.5463
3.06977	49.4936
3.06795	49.5379
3.06613	49.3734
3.06432	49.1629
3.06251	49.1411
3.0607	49.1458
3.0589	49.1155
3.0571	49.1309
3.05529	49.1007
3.05349	49.0146
3.0517	48.896
3.0499	48.7986
3.04811	48.7397
3.04632	48.7687
3.04453	48.7507
3.04274	48.6927
3.04096	48.6076
3.03918	48.3613
3.0374	48.128
3.03562	48.1957
3.03384	48.196
3.03207	48.109
3.03029	48.0671
3.02852	47.9973
3.02676	47.8754
3.02499	47.763
3.02323	47.7101
3.02146	47.5567
3.0197	47.5059
3.01795	47.466
3.01619	47.3673
3.01444	47.2492
3.01269	47.1207
3.01094	47.0764
3.00919	46.9982
3.00744	46.8374
3.0057	46.7034
3.00396	46.6417
3.00222	46.6683
3.00048	46.594
2.99875	46.3008
2.99701	46.1717
2.99528	46.2102
2.99355	46.0789
2.99183	45.9859
2.9901	45.9764
2.98838	45.7533
2.98666	45.4903
2.98494	45.4879
2.98322	45.5584
2.9815	45.4514
2.97979	45.3296
2.97808	45.2924
2.97637	45.1934
2.97466	44.9952
2.97295	44.9757
2.97125	44.8687
2.96955	44.7457
2.96785	44.6663
2.96615	44.621
2.96446	44.574
2.96276	44.4672
2.96107	44.4
2.95938	44.3629
2.95769	44.1147
2.95601	44.0167
2.95432	44.059
2.95264	43.8446
2.95096	43.8227
2.94928	43.9875
2.9476	44.0078
2.94593	43.9068
2.94425	43.9384
2.94258	44.0068
2.94092	43.9393
2.93925	43.9184
2.93758	43.8867
2.93592	43.8404
2.93426	43.8039
2.9326	43.8212
2.93094	43.8212
2.92928	43.8347
2.92763	43.8955
2.92598	43.8775
2.92433	43.7585
2.92268	43.8175
2.92103	43.8519
2.91939	43.7598
2.91775	43.6374
2.9161	43.6175
2.91447	43.7899
2.91283	43.7641
2.91119	43.6092
2.90956	43.5511
2.90793	43.5488
2.9063	43.5571
2.90467	43.6206
2.90304	43.747
2.90142	43.7773
2.89979	43.651
2.89817	43.5566
2.89656	43.5659
2.89494	43.6561
2.89332	43.7227
2.89171	43.7296
2.8901	43.6452
2.88849	43.5155
2.88688	43.5265
2.88527	43.5653
2.88367	43.6787
2.88206	43.8406
2.88046	43.8406
2.87886	43.7639
2.87727	43.8516
2.87567	43.8919
2.87408	43.8018
2.87248	43.812
2.87089	43.8905
2.8693	44.0034
2.86772	44.0654
2.86613	44.0898
2.86455	44.1184
2.86297	44.2589
2.86139	44.5028
2.85981	44.7119
2.85823	44.9301
2.85666	45.0866
2.85508	45.2403
2.85351	45.3558
2.85194	45.5278
2.85038	45.7179
2.84881	45.942
2.84724	46.1453
2.84568	46.2509
2.84412	46.3148
2.84256	46.5016
2.841	46.7138
2.83945	46.8932
2.83789	47.0384
2.83634	47.2759
2.83479	47.602
2.83324	47.6656
2.83169	47.6667
2.83015	47.8072
2.82861	47.8852
2.82706	47.9952
2.82552	48.1587
2.82398	48.414
2.82245	48.6952
2.82091	48.9141
2.81938	49.177
2.81784	49.3567
2.81631	49.5018
2.81479	49.6977
2.81326	49.736
2.81173	49.8303
2.81021	49.9329
2.80869	50.0297
2.80716	50.2154
2.80565	50.3865
2.80413	50.5323
2.80261	50.7107
2.8011	50.7313
2.79959	50.7324
2.79808	50.915
2.79657	51.0915
2.79506	51.2148
2.79355	51.3489
2.79205	51.3943
2.79055	51.4961
2.78904	51.759
2.78754	52.0638
2.78605	52.176
2.78455	52.2475
2.78306	52.5834
2.78156	52.9784
2.78007	53.2435
2.77858	53.3919
2.77709	53.518
2.77561	53.627
2.77412	53.8565
2.77264	54.3014
2.77116	54.7487
2.76968	54.8584
2.7682	55.0928
2.76672	55.5662
2.76524	56.0816
2.76377	56.5833
2.7623	56.7186
2.76083	56.6919
2.75936	57.0063
2.75789	57.4915
2.75642	58.2927
2.75496	58.9068
2.7535	58.7635
2.75203	58.9556
2.75057	59.3717
2.74912	59.815
2.74766	60.1835
2.7462	60.6714
2.74475	61.2097
2.7433	61.9347
2.74185	62.8543
2.7404	63.4795
2.73895	63.8037
2.7375	63.9505
2.73606	64.427
2.73462	65.2451
2.73318	65.722
2.73174	65.9737
2.7303	66.4126
2.72886	67.1687
2.72742	67.9199
2.72599	68.7298
2.72456	69.4384
2.72313	69.659
2.7217	70.1949
2.72027	70.8861
2.71884	70.9945
2.71742	71.3011
2.71599	71.7302
2.71457	72.2254
2.71315	72.6689
2.71173	73.4504
2.71032	73.9646
2.7089	74.0181
2.70748	74.1593
2.70607	74.4451
2.70466	74.6903
2.70325	74.9327
2.70184	75.3679
2.70043	75.7653
2.69903	75.9216
2.69762	76.0935
2.69622	76.4225
2.69482	76.8644
2.69342	77.0749
2.69202	76.935
2.69062	77.0526
2.68923	77.2026
2.68783	77.3914
2.68644	77.615
2.68505	77.7531
2.68366	77.8946
2.68227	77.9714
2.68089	78.0582
2.6795	78.3894
2.67812	78.6907
2.67673	78.8942
2.67535	78.6996
2.67397	78.3749
2.6726	78.3453
2.67122	79.2566
2.66984	79.7946
2.66847	79.6538
2.6671	80.0473
2.66572	80.2614
2.66435	80.107
2.66299	79.8579
2.66162	80.0167
2.66025	80.1729
2.65889	80.205
2.65753	80.0613
2.65616	80.1656
2.65481	80.2774
2.65345	80.3919
2.65209	80.5325
2.65073	80.508
2.64938	80.4617
2.64803	80.4946
2.64667	80.636
2.64532	80.7883
2.64397	80.6461
2.64263	80.624
2.64128	80.6219
2.63994	80.6519
2.63859	80.7453
2.63725	80.8021
2.63591	80.7664
2.63457	80.8519
2.63323	80.8816
2.6319	81.049
2.63056	81.2876
2.62923	81.0056
2.62789	80.9122
2.62656	81.1397
2.62523	80.8176
2.6239	80.5396
2.62258	80.5354
2.62125	80.8812
2.61993	80.8916
2.6186	80.6854
2.61728	80.9804
2.61596	80.885
2.61464	80.5542
2.61332	80.5314
2.61201	80.5196
2.61069	80.5046
2.60938	80.5914
2.60807	80.7003
2.60675	80.8646
2.60544	80.9341
2.60414	80.7532
2.60283	80.6951
2.60152	80.6257
2.60022	80.5703
2.59891	80.5929
2.59761	80.7267
2.59631	81.2009
2.59501	81.7343
2.59371	81.2451
2.59242	80.7343
2.59112	80.647
2.58983	80.6623
2.58853	80.7556
2.58724	80.8508
2.58595	80.6877
2.58466	80.8728
2.58338	80.9673
2.58209	80.6686
2.5808	80.6233
2.57952	80.4674
2.57824	80.5198
2.57695	80.6824
2.57567	80.4948
2.5744	80.5304
2.57312	80.6781
2.57184	80.5398
2.57057	80.6223
2.56929	80.6782
2.56802	80.451
2.56675	80.358
2.56548	80.5643
2.56421	80.7754
2.56294	80.785
2.56168	80.8628
2.56041	80.8926
2.55915	80.7212
2.55789	80.5503
2.55662	80.4327
2.55536	80.333
2.5541	80.2862
2.55285	80.4338
2.55159	80.4422
2.55034	80.3503
2.54908	80.4053
2.54783	80.4379
2.54658	80.3512
2.54533	80.3842
2.54408	80.4416
2.54283	80.4117
2.54159	80.1648
2.54034	79.9868
2.5391	80.0571
2.53785	80.2323
2.53661	80.219
2.53537	80.068
2.53413	80.0719
2.53289	80.066
2.53166	79.993
2.53042	80.0044
2.52919	80.0941
2.52795	80.1093
2.52672	80.1402
2.52549	80.2459
2.52426	80.2933
2.52303	80.3068
2.52181	80.4005
2.52058	80.4725
2.51936	80.5472
2.51813	80.6726
2.51691	80.7623
2.51569	80.8792
2.51447	80.939
2.51325	80.8915
2.51203	80.9301
2.51082	81.0211
2.5096	81.074
2.50839	81.1926
2.50717	81.2621
2.50596	81.2348
2.50475	81.2443
2.50354	81.2409
2.50233	81.2294
2.50113	81.2133
2.49992	81.1284
2.49872	81.0618
2.49751	81.1783
2.49631	81.2672
2.49511	81.3222
2.49391	81.379
2.49271	81.4272
2.49151	81.4617
2.49031	81.4863
2.48912	81.4287
2.48792	81.3666
2.48673	81.3653
2.48554	81.4624
2.48435	81.4631
2.48316	81.4559
2.48197	81.4367
2.48078	81.4049
2.4796	81.4379
2.47841	81.4527
2.47723	81.4225
2.47604	81.4011
2.47486	81.3349
2.47368	81.3868
2.4725	81.5196
2.47132	81.5627
2.47014	81.5962
2.46897	81.5152
2.46779	81.597
2.46662	81.75
2.46545	81.7681
2.46427	81.7946
2.4631	81.8983
2.46193	81.9962
2.46077	82.0985
2.4596	82.07
2.45843	81.9868
2.45727	82.0607
2.4561	82.1662
2.45494	82.2505
2.45378	82.2423
2.45262	82.2171
2.45146	82.2768
2.4503	82.3064
2.44914	82.2449
2.44799	82.1525
2.44683	82.1745
2.44568	82.4233
2.44452	82.5931
2.44337	82.5036
2.44222	82.3618
2.44107	82.4484
2.43992	82.5668
2.43877	82.5865
2.43763	82.6129
2.43648	82.575
2.43534	82.4918
2.43419	82.458
2.43305	82.4625
2.43191	82.4156
2.43077	82.3515
2.42963	82.4088
2.42849	82.5038
2.42736	82.5317
2.42622	82.5144
2.42509	82.4613
2.42395	82.4578
2.42282	82.4406
2.42169	82.4018
2.42056	82.2518
2.41943	82.1318
2.4183	82.1564
2.41717	82.1426
2.41605	82.1009
2.41492	82.1636
2.4138	82.1345
2.41267	82.0856
2.41155	82.116
2.41043	81.9875
2.40931	81.8426
2.40819	81.9293
2.40707	82.1149
2.40595	82.1084
2.40484	81.9499
2.40372	81.7787
2.40261	81.7327
2.4015	81.8114
2.40039	81.916
2.39928	81.8439
2.39817	81.8276
2.39706	81.5859
2.39595	81.4416
2.39484	81.4109
2.39374	81.3105
2.39263	81.2324
2.39153	81.1411
2.39043	81.0934
2.38932	81.1456
2.38822	81.1651
2.38712	81.1978
2.38603	81.1141
2.38493	81.0515
2.38383	81.086
2.38274	81.0672
2.38164	81.2749
2.38055	81.3194
2.37946	81.2477
2.37836	81.2705
2.37727	81.1886
2.37618	81.2806
2.3751	81.3893
2.37401	81.2933
2.37292	81.2754
2.37184	81.2465
2.37075	81.215
2.36967	81.0392
2.36859	80.7876
2.3675	80.5901
2.36642	80.4611
2.36534	80.348
2.36427	80.2664
2.36319	80.3225
2.36211	80.2792
2.36104	80.1104
2.35996	79.8559
2.35889	79.867
2.35781	79.8582
2.35674	79.7562
2.35567	79.748
2.3546	79.9237
2.35353	80.0378
2.35247	80.1522
2.3514	80.2027
2.35033	80.2127
2.34927	80.3549
2.3482	80.456
2.34714	80.4876
2.34608	80.5926
2.34502	80.6225
2.34396	80.5993
2.3429	80.6128
2.34184	80.701
2.34078	80.7175
2.33973	80.7778
2.33867	80.8321
2.33762	80.7827
2.33656	80.7981
2.33551	80.8542
2.33446	80.9491
2.33341	80.9707
2.33236	81.0201
2.33131	81.1402
2.33026	81.3114
2.32922	81.3972
2.32817	81.5049
2.32712	81.6338
2.32608	81.8034
2.32504	82.0083
2.324	82.2893
2.32295	82.5449
2.32191	82.7241
2.32087	83.1034
2.31984	83.2651
2.3188	83.3626
2.31776	83.6031
2.31673	83.7673
2.31569	83.894
2.31466	83.9218
2.31362	83.924
2.31259	83.9133
2.31156	83.7823
2.31053	83.8448
2.3095	84.0145
2.30847	84.0357
2.30745	83.989
2.30642	83.924
2.3054	83.8775
2.30437	83.9024
2.30335	84.0188
2.30232	83.9681
2.3013	83.728
2.30028	83.5505
2.29926	83.6309
2.29824	83.8141
2.29722	83.7766
2.29621	83.5611
2.29519	83.5562
2.29417	83.6678
2.29316	83.6889
2.29215	83.6475
2.29113	83.66
2.29012	83.7055
2.28911	83.7301
2.2881	83.6782
2.28709	83.5835
2.28608	83.5723
2.28507	83.6679
2.28407	83.7176
2.28306	83.639
2.28206	83.5424
2.28105	83.5381
2.28005	83.6472
2.27905	83.6998
2.27805	83.726
2.27705	83.8664
2.27605	83.9123
2.27505	83.783
2.27405	83.7714
2.27305	83.8486
2.27206	83.9629
2.27106	84.1028
2.27007	84.1128
2.26907	84.0771
2.26808	84.0705
2.26709	84.1742
2.2661	84.2143
2.26511	84.1244
2.26412	84.2379
2.26313	84.3742
2.26214	84.2974
2.26116	84.2175
2.26017	84.2125
2.25919	84.0685
2.2582	84.0726
2.25722	84.0916
2.25624	84.2035
2.25526	84.2646
2.25428	84.2833
2.2533	84.1647
2.25232	84.1039
2.25134	84.2058
2.25036	84.18
2.24939	84.0188
2.24841	83.9647
2.24744	84.1017
2.24646	84.118
2.24549	84.0498
2.24452	84.0824
2.24355	84.1606
2.24257	84.1368
2.24161	83.913
2.24064	83.7306
2.23967	83.765
2.2387	83.7524
2.23774	83.8693
2.23677	83.8315
2.23581	83.672
2.23484	83.713
2.23388	83.7926
2.23292	83.6492
2.23196	83.706
2.231	83.8608
2.23004	83.8942
2.22908	83.83
2.22812	83.7555
2.22716	83.8662
2.22621	84.0707
2.22525	84.0621
2.2243	83.9925
2.22334	84.0843
2.22239	84.1057
2.22144	84.0373
2.22049	84.0001
2.21953	84.0229
2.21859	84.143
2.21764	84.2781
2.21669	84.2955
2.21574	84.2853
2.21479	84.365
2.21385	84.3552
2.2129	84.3963
2.21196	84.3872
2.21102	84.4275
2.21007	84.4781
2.20913	84.467
2.20819	84.5223
2.20725	84.5644
2.20631	84.6009
2.20537	84.6683
2.20444	84.7275
2.2035	84.6762
2.20256	84.611
2.20163	84.6562
2.20069	84.6968
2.19976	84.8104
2.19883	84.9211
2.19789	84.8101
2.19696	84.6847
2.19603	84.6876
2.1951	84.7923
2.19417	84.8152
2.19325	84.815
2.19232	84.8397
2.19139	84.888
2.19047	84.9646
2.18954	84.9671
2.18862	84.9387
2.18769	84.9882
2.18677	84.9854
2.18585	84.918
2.18493	84.8518
2.18401	84.7624
2.18309	84.6499
2.18217	84.7964
2.18125	84.9719
2.18033	85.0043
2.17942	85.0009
2.1785	84.8733
2.17759	84.675
2.17667	84.863
2.17576	85.0249
2.17485	84.8932
2.17393	84.8803
2.17302	84.8606
2.17211	84.898
2.1712	85.0324
2.17029	85.0743
2.16939	84.9704
2.16848	84.9385
2.16757	84.9251
2.16667	84.8788
2.16576	84.9374
2.16486	84.9845
2.16395	85.1091
2.16305	85.1113
2.16215	85.1007
2.16125	85.1968
2.16035	85.1201
2.15945	85.0166
2.15855	85.0118
2.15765	85.0746
2.15675	85.0464
2.15586	84.8346
2.15496	84.8547
2.15406	85.0845
2.15317	85.218
2.15228	85.1353
2.15138	85.0698
2.15049	85.1603
2.1496	85.134
2.14871	85.0763
2.14782	85.0423
2.14693	85.0604
2.14604	84.9388
2.14515	84.8715
2.14427	84.981
2.14338	84.997
2.14249	84.9215
2.14161	84.9558
2.14072	84.9748
2.13984	84.9861
2.13896	85.1638
2.13808	85.1466
2.13719	85.021
2.13631	85.0105
2.13543	85.0365
2.13455	85.0414
2.13368	85.028
2.1328	85.0658
2.13192	85.1805
2.13105	85.2015
2.13017	85.1305
2.1293	84.9438
2.12842	84.8346
2.12755	84.9411
2.12668	85.1636
2.1258	85.185
2.12493	85.0846
2.12406	85.0064
2.12319	85.0086
2.12232	85.1328
2.12145	85.0938
2.12059	85.0637
2.11972	85.1408
2.11885	85.1155
2.11799	85.0653
2.11712	85.0195
2.11626	84.9419
2.1154	85.068
2.11453	85.0553
2.11367	84.9802
2.11281	85.1225
2.11195	85.2006
2.11109	85.0356
2.11023	84.8676
2.10937	84.8548
2.10851	85.0032
2.10766	84.9287
2.1068	85.0197
2.10594	85.0311
2.10509	85.0216
2.10423	84.9868
2.10338	84.9559
2.10253	84.9855
2.10168	84.9799
2.10082	84.8943
2.09997	84.9779
2.09912	85.0718
2.09827	85.0249
2.09742	85.0155
2.09658	85.1118
2.09573	85.2886
2.09488	85.0832
2.09404	85.0119
2.09319	85.1625
2.09235	85.1273
2.0915	85.0424
2.09066	84.9395
2.08982	84.8801
2.08897	84.8513
2.08813	84.9574
2.08729	85.1454
2.08645	85.1776
2.08561	85.1256
2.08477	85.0762
2.08394	85.0596
2.0831	84.8619
2.08226	84.6774
2.08143	84.963
2.08059	85.2336
2.07976	85.2734
2.07892	85.1417
2.07809	85.1947
2.07726	85.35
2.07643	85.3142
2.07559	85.0273
2.07476	84.9366
2.07393	84.9496
2.0731	84.7513
2.07228	84.5318
2.07145	84.7692
2.07062	84.968
2.06979	85.0176
2.06897	85.1153
2.06814	84.9612
2.06732	84.9104
2.06649	85.0792
2.06567	85.1071
2.06485	85.1265
2.06403	85.071
2.0632	85.0585
2.06238	84.7986
2.06156	84.5792
2.06074	84.7697
2.05993	85.0805
2.05911	85.1138
2.05829	84.9928
2.05747	84.9104
2.05666	85.0091
2.05584	85.0131
2.05503	84.8654
2.05421	84.9058
2.0534	85.0185
2.05259	85.0164
2.05177	84.934
2.05096	84.9036
2.05015	84.9671
2.04934	85.0343
2.04853	84.9149
2.04772	84.8136
2.04691	84.9184
2.04611	84.9624
2.0453	84.8592
2.04449	84.742
2.04369	84.8183
2.04288	84.8047
2.04208	84.7966
2.04127	84.9148
2.04047	84.9265
2.03967	84.9302
2.03886	84.8527
2.03806	84.6379
2.03726	84.6954
2.03646	84.9706
2.03566	85.1573
2.03486	85.0162
2.03407	84.847
2.03327	84.7449
2.03247	84.694
2.03167	84.844
2.03088	84.8943
2.03008	84.9231
2.02929	84.853
2.0285	84.8485
2.0277	84.941
2.02691	84.8214
2.02612	84.6396
2.02533	84.7148
2.02453	84.6744
2.02374	84.5944
2.02295	84.7554
2.02217	85.0063
2.02138	85.0272
2.02059	84.7353
2.0198	84.6427
2.01902	84.795
2.01823	84.73
2.01744	84.6287
2.01666	84.6271
2.01588	84.8039
2.01509	84.8541
2.01431	84.7636
2.01353	84.8478
2.01275	84.7055
2.01196	84.4608
2.01118	84.5159
2.0104	84.7295
2.00963	84.6433
2.00885	84.4066
2.00807	84.5174
2.00729	84.7293
2.00651	84.8206
2.00574	84.7581
2.00496	84.7279
2.00419	84.5772
2.00341	84.548
2.00264	84.637
2.00187	84.6403
2.00109	84.7182
2.00032	84.7316
