Name: Bytownite (Feldspar) (NaSi,CaAl)AlSi_2O_8
Type: Mineral
Class: Silicates
Subclass: Tectosilicates
Particle Size: 0-45um
Sample No.: TS-13A
Owner: JPL
Wavelength range: IR
Origin: 
Collected by JPL
Description: 





Measurement: Hemispherical reflectance
First Column: X
Second Column: Y
X Units:  Wavelength (micrometers)
Y Units:  Reflectance (percent)
First X Value: 15.3853
Last X Value: 2.00032
Number of X Values: 2256
Additional information: ts13aa.txt
 
15.3853	2.68842
15.3397	2.24179
15.2945	1.99843
15.2495	1.94413
15.2048	1.88085
15.1603	1.84012
15.1161	1.79561
15.0722	1.72291
15.0285	1.60026
14.9851	1.64646
14.9419	1.95746
14.8989	1.85393
14.8563	1.76183
14.8138	1.76476
14.7716	1.71527
14.7296	1.65655
14.6879	1.83688
14.6464	1.99802
14.6052	1.80906
14.5641	1.59687
14.5233	1.57867
14.4828	1.63513
14.4424	1.69847
14.4023	1.71916
14.3624	1.87726
14.3227	1.99373
14.2833	2.10752
14.244	2.17974
14.205	2.02108
14.1662	2.11881
14.1276	2.23607
14.0892	2.45124
14.051	2.64852
14.0131	2.40591
13.9753	2.39868
13.9377	2.56128
13.9004	2.57618
13.8632	2.38467
13.8262	2.35788
13.7895	2.38277
13.7529	2.29184
13.7165	2.45195
13.6803	2.57404
13.6443	2.45358
13.6085	2.29884
13.5729	2.30887
13.5374	2.47179
13.5022	2.37511
13.4671	2.27807
13.4322	2.3344
13.3975	2.40175
13.363	2.50306
13.3286	2.5935
13.2944	2.42366
13.2604	2.2984
13.2266	2.32384
13.193	2.4216
13.1595	2.47203
13.1262	2.3952
13.093	2.41963
13.06	2.48913
13.0272	2.45991
12.9946	2.5174
12.9621	2.6581
12.9298	2.72122
12.8976	2.70164
12.8656	2.77219
12.8337	2.7434
12.8021	3.08037
12.7705	3.55579
12.7391	3.4521
12.7079	3.46166
12.6769	3.88231
12.6459	4.23723
12.6152	4.60446
12.5845	5.05693
12.5541	5.40564
12.5238	5.69966
12.4936	6.28673
12.4635	6.86639
12.4337	7.2569
12.4039	7.66256
12.3743	8.213
12.3448	8.90356
12.3155	9.38511
12.2863	9.50913
12.2573	9.69744
12.2284	10.0386
12.1996	10.2114
12.171	10.1779
12.1425	10.0917
12.1141	10.0628
12.0859	10.1094
12.0578	10.1113
12.0298	9.76848
12.0019	9.46996
11.9742	9.27326
11.9466	9.1732
11.9192	9.01062
11.8918	8.78723
11.8646	8.43207
11.8375	8.10177
11.8106	7.91231
11.7837	7.91092
11.757	7.73314
11.7304	7.41593
11.7039	7.43633
11.6776	7.48162
11.6513	7.36708
11.6252	7.18707
11.5992	7.13507
11.5733	7.07888
11.5475	6.91265
11.5219	6.91505
11.4963	6.83076
11.4709	6.66382
11.4455	6.63693
11.4203	6.64945
11.3952	6.51983
11.3702	6.30812
11.3454	6.04117
11.3206	5.82263
11.2959	5.77681
11.2714	5.75548
11.2469	5.5899
11.2226	5.46349
11.1983	5.40324
11.1742	5.31244
11.1502	5.26958
11.1263	5.18189
11.1024	5.16268
11.0787	5.14629
11.0551	5.23121
11.0316	5.28555
11.0081	5.30035
10.9848	5.30419
10.9616	5.43278
10.9385	5.50555
10.9154	5.42596
10.8925	5.38415
10.8697	5.38644
10.8469	5.3831
10.8243	5.42729
10.8017	5.35822
10.7793	5.33222
10.7569	5.46982
10.7346	5.48584
10.7125	5.40133
10.6904	5.37639
10.6684	5.36933
10.6465	5.32586
10.6247	5.35065
10.6029	5.12564
10.5813	5.09202
10.5597	5.18405
10.5383	5.12727
10.5169	5.10258
10.4956	5.03088
10.4744	4.96941
10.4533	4.91958
10.4323	4.86641
10.4113	4.83493
10.3904	4.78917
10.3697	4.74303
10.349	4.67182
10.3284	4.5083
10.3078	4.49389
10.2874	4.51968
10.267	4.35211
10.2467	4.28147
10.2265	4.35576
10.2064	4.28162
10.1863	4.22554
10.1663	4.44823
10.1464	4.54832
10.1266	4.42624
10.1069	4.31122
10.0872	4.27147
10.0676	4.25209
10.0481	4.2858
10.0287	4.20844
10.0093	4.24304
9.99005	4.22095
9.97084	4.21194
9.95169	4.29737
9.93263	4.28597
9.91364	4.34604
9.89472	4.44256
9.87587	4.41019
9.8571	4.28913
9.83839	4.2395
9.81976	4.2005
9.80119	4.09682
9.78271	4.07029
9.76428	3.97803
9.74592	3.9518
9.72764	3.90155
9.70943	3.78274
9.69128	3.63408
9.6732	3.60458
9.65518	3.6703
9.63724	3.69802
9.61935	3.57635
9.60155	3.48048
9.5838	3.43178
9.56611	3.34684
9.5485	3.24324
9.53094	3.20982
9.51345	3.06442
9.49604	2.92194
9.47867	2.91923
9.46137	2.92485
9.44414	2.84126
9.42697	2.88534
9.40986	2.84041
9.39281	2.70312
9.37583	2.67559
9.35891	2.69754
9.34204	2.67549
9.32524	2.5872
9.3085	2.52671
9.29182	2.47455
9.27519	2.68684
9.25863	2.86893
9.24213	2.84945
9.22568	2.79028
9.2093	2.72543
9.19297	2.82305
9.17669	2.90954
9.16048	2.89795
9.14433	2.94989
9.12823	2.89619
9.11218	2.76636
9.0962	2.87447
9.08027	3.14717
9.06439	3.26291
9.04858	3.35313
9.03281	3.39462
9.0171	3.4338
9.00145	3.35907
8.98585	3.33512
8.9703	3.45361
8.9548	3.40166
8.93937	3.38638
8.92398	3.49182
8.90865	3.48757
8.89337	3.45058
8.87814	3.38134
8.86296	3.43099
8.84784	3.45808
8.83277	3.33774
8.81774	3.19391
8.80277	3.18421
8.78786	3.24793
8.77298	3.25612
8.75816	3.37593
8.7434	3.33707
8.72868	3.30226
8.714	3.32366
8.69938	3.34039
8.68481	3.32334
8.67029	3.16086
8.65581	3.05717
8.64139	3.20881
8.62701	3.24257
8.61268	3.11309
8.5984	3.17039
8.58416	3.12139
8.56997	3.0437
8.55583	3.24342
8.54174	3.30003
8.52769	3.14198
8.51368	2.97674
8.49973	2.99385
8.48582	3.14912
8.47195	3.19221
8.45813	2.96753
8.44436	2.86445
8.43062	2.95084
8.41693	2.96636
8.4033	2.95474
8.3897	2.99171
8.37614	3.02253
8.36264	3.0078
8.34917	2.78846
8.33574	2.65712
8.32236	2.66209
8.30903	2.55655
8.29573	2.33983
8.28248	2.17426
8.26927	2.06754
8.2561	1.99955
8.24298	1.84896
8.2299	1.58684
8.21685	1.39356
8.20385	1.32316
8.19089	1.28609
8.17797	1.196
8.16509	1.00415
8.15225	0.912222
8.13946	0.932552
8.1267	0.821061
8.11398	0.766344
8.10131	0.769596
8.08867	0.770337
8.07606	0.813177
8.0635	0.806409
8.05099	0.804598
8.0385	0.798815
8.02606	0.805053
8.01366	0.811378
8.00129	0.901882
7.98896	0.971003
7.97667	0.967703
7.96442	0.972031
7.9522	1.02232
7.94002	1.08342
7.92788	1.13344
7.91578	1.18243
7.90371	1.28595
7.89168	1.36358
7.87969	1.45177
7.86773	1.49755
7.85581	1.62919
7.84392	1.70226
7.83207	1.70943
7.82026	1.80147
7.80849	1.95742
7.79674	2.12777
7.78503	2.21735
7.77337	2.31906
7.76173	2.43487
7.75012	2.60564
7.73856	2.68597
7.72703	2.79902
7.71553	2.9599
7.70406	3.09508
7.69263	3.22316
7.68123	3.37665
7.66987	3.49897
7.65855	3.59961
7.64725	3.70959
7.63598	3.86938
7.62475	4.05341
7.61356	4.26575
7.60239	4.40138
7.59126	4.56972
7.58017	4.74579
7.5691	4.84606
7.55806	5.0137
7.54707	5.18214
7.5361	5.34787
7.52516	5.46539
7.51425	5.58487
7.50338	5.81216
7.49253	6.02062
7.48172	6.17425
7.47094	6.36293
7.46019	6.51137
7.44947	6.57049
7.43879	6.65463
7.42813	6.83826
7.4175	7.10873
7.4069	7.1752
7.39634	7.24796
7.3858	7.44525
7.37529	7.62956
7.36482	7.71597
7.35437	7.85777
7.34396	8.04913
7.33357	8.29999
7.32321	8.53564
7.31288	8.6635
7.30258	8.70025
7.29231	8.8182
7.28207	9.03583
7.27185	9.22305
7.26167	9.29612
7.25152	9.34664
7.24139	9.46996
7.23129	9.65943
7.22122	9.79374
7.21117	10.0201
7.20116	10.1814
7.19117	10.1418
7.18121	10.3226
7.17128	10.6269
7.16137	10.8237
7.1515	10.9969
7.14164	11.0144
7.13182	10.9924
7.12203	11.2032
7.11225	11.3796
7.10251	11.396
7.0928	11.5304
7.08311	11.6657
7.07344	11.6767
7.06381	11.8095
7.0542	12.1143
7.04461	12.3101
7.03506	12.2766
7.02552	12.2952
7.01601	12.3278
7.00653	12.3637
6.99708	12.5093
6.98765	12.6494
6.97824	12.7822
6.96886	13.033
6.95951	13.2686
6.95018	13.086
6.94087	13.0333
6.9316	13.1088
6.92234	13.161
6.91311	13.2602
6.90391	13.3638
6.89473	13.4837
6.88557	13.625
6.87644	13.7913
6.86733	14.3098
6.85824	14.4452
6.84918	14.107
6.84015	14.0127
6.83114	14.1805
6.82215	14.3222
6.81319	14.2569
6.80424	14.3338
6.79532	14.7441
6.78643	14.9722
6.77756	14.9384
6.76871	14.9317
6.75989	14.9707
6.75109	15.1288
6.74231	15.1951
6.73355	15.2704
6.72482	15.4394
6.71611	15.6267
6.70742	15.6919
6.69875	15.5237
6.69011	15.7148
6.68149	16.1019
6.67289	16.1017
6.66431	15.9812
6.65576	15.9882
6.64722	16.4258
6.63871	17.1238
6.63022	16.936
6.62175	16.487
6.61331	16.4787
6.60488	16.5505
6.59648	16.7822
6.5881	16.9477
6.57974	17.1716
6.5714	17.3926
6.56308	17.1345
6.55478	17.0994
6.54651	17.0407
6.53825	16.8733
6.53001	16.8531
6.5218	17.0533
6.51361	16.8242
6.50544	16.8683
6.49729	17.5319
6.48915	17.5497
6.48104	17.0448
6.47295	16.7706
6.46488	16.4907
6.45683	16.4578
6.4488	16.5489
6.44079	16.5976
6.4328	16.7047
6.42482	16.8514
6.41687	17.4859
6.40894	17.3307
6.40103	16.6019
6.39314	16.365
6.38526	16.1726
6.37741	16.1553
6.36957	16.2168
6.36176	15.8913
6.35396	15.8035
6.34618	16.0719
6.33843	15.8619
6.33069	15.5199
6.32297	15.3276
6.31527	15.2291
6.30758	15.1317
6.29992	14.9081
6.29227	14.7941
6.28465	14.7242
6.27704	14.6833
6.26945	14.684
6.26188	14.7157
6.25432	14.7083
6.24679	14.6066
6.23927	14.5907
6.23177	14.6753
6.22429	14.7703
6.21683	14.9213
6.20938	15.0121
6.20195	15.0252
6.19454	15.1828
6.18715	15.6046
6.17978	15.5357
6.17242	15.2464
6.16508	15.3071
6.15776	15.4447
6.15045	15.3985
6.14317	15.442
6.1359	15.3759
6.12864	15.3004
6.12141	15.442
6.11419	15.8002
6.10699	15.5302
6.0998	15.0962
6.09263	14.9149
6.08549	14.8904
6.07835	15.1117
6.07123	15.3384
6.06413	15.3109
6.05705	15.6833
6.04998	16.4295
6.04293	15.8441
6.0359	15.1255
6.02888	14.994
6.02187	15.0469
6.01489	15.2008
6.00792	15.1404
6.00096	15.2656
5.99403	15.7494
5.98711	15.9744
5.9802	15.7677
5.97331	15.7933
5.96644	15.8021
5.95958	15.6165
5.95274	15.7857
5.94591	16.2663
5.9391	17.1402
5.9323	17.4429
5.92552	17.4304
5.91876	17.912
5.91201	18.4915
5.90528	19.2403
5.89856	20.4532
5.89186	21.0482
5.88517	21.687
5.8785	22.2572
5.87184	21.9654
5.8652	22.2859
5.85857	22.5221
5.85196	22.6795
5.84536	22.9162
5.83878	23.3454
5.83221	23.8828
5.82566	24.5635
5.81912	24.8104
5.81259	24.3985
5.80608	24.3357
5.79959	24.5667
5.79311	24.7678
5.78665	25.086
5.78019	25.4317
5.77376	26.0145
5.76734	26.8151
5.76093	26.5192
5.75453	26.2343
5.74815	26.5352
5.74179	26.6113
5.73543	26.7634
5.7291	26.9265
5.72277	27.2698
5.71646	27.6242
5.71017	27.9048
5.70389	27.6691
5.69762	27.7173
5.69136	28.0315
5.68513	28.1058
5.6789	28.4062
5.67268	28.4902
5.66648	28.3563
5.6603	28.6502
5.65413	28.9824
5.64797	29.3084
5.64182	29.6909
5.63569	29.4078
5.62957	29.185
5.62347	29.2412
5.61737	29.3985
5.61129	29.5178
5.60522	29.6949
5.59917	29.7882
5.59313	29.7182
5.5871	30.0027
5.58109	30.3667
5.57509	30.2334
5.5691	29.9916
5.56312	30.1513
5.55716	30.3929
5.55121	30.5855
5.54528	30.5411
5.53935	30.5614
5.53344	30.5976
5.52754	30.7766
5.52166	30.8729
5.51578	30.8429
5.50992	30.8278
5.50407	30.9027
5.49823	30.9605
5.49241	31.0647
5.4866	31.1828
5.4808	31.4624
5.47501	31.5306
5.46923	31.6595
5.46347	31.8332
5.45772	31.6552
5.45198	31.5934
5.44625	31.7226
5.44054	31.8781
5.43484	32.0058
5.42914	32.3178
5.42347	32.9204
5.4178	32.967
5.41214	32.7698
5.4065	32.8414
5.40087	33.0011
5.39525	33.144
5.38964	33.2669
5.38404	33.4702
5.37846	33.6802
5.37288	33.8444
5.36732	34.0487
5.36177	34.2833
5.35623	34.5982
5.35071	34.9194
5.34519	34.949
5.33968	34.9442
5.33419	35.0545
5.32871	35.1674
5.32324	35.3331
5.31778	35.4708
5.31233	35.6367
5.30689	35.8248
5.30147	36.0352
5.29605	36.2677
5.29065	36.4398
5.28525	36.5058
5.27987	36.7293
5.2745	36.8782
5.26914	36.9671
5.26379	37.1331
5.25845	37.365
5.25312	37.5107
5.24781	37.6562
5.2425	37.8025
5.23721	37.9757
5.23192	38.1489
5.22665	38.3103
5.22138	38.4735
5.21613	38.8372
5.21089	38.9883
5.20566	39.055
5.20044	39.332
5.19522	39.4552
5.19002	39.5851
5.18483	39.7387
5.17965	39.8865
5.17448	40.0534
5.16933	40.2254
5.16418	40.4193
5.15904	40.6171
5.15391	40.8081
5.14879	41.0761
5.14368	41.2964
5.13859	41.3826
5.1335	41.4817
5.12842	41.6627
5.12335	41.9067
5.1183	42.0531
5.11325	42.2164
5.10821	42.3732
5.10318	42.5762
5.09817	42.762
5.09316	42.9769
5.08816	43.1687
5.08317	43.3315
5.07819	43.449
5.07322	43.5903
5.06826	43.7637
5.06331	43.9057
5.05837	43.9919
5.05344	44.1399
5.04852	44.23
5.04361	44.4099
5.03871	44.605
5.03382	44.7296
5.02894	44.8509
5.02406	45.0546
5.0192	45.2675
5.01435	45.3456
5.0095	45.4137
5.00467	45.5714
4.99984	45.7325
4.99502	45.8834
4.99021	46.0014
4.98542	46.0891
4.98063	46.2513
4.97585	46.4444
4.97108	46.5214
4.96632	46.6601
4.96156	46.8635
4.95682	46.9869
4.95209	47.0386
4.94736	47.1408
4.94264	47.2961
4.93794	47.4197
4.93324	47.526
4.92855	47.6257
4.92387	47.7394
4.9192	47.8724
4.91453	47.9514
4.90988	48.0082
4.90524	48.1231
4.9006	48.2966
4.89597	48.3862
4.89135	48.3969
4.88674	48.4757
4.88214	48.5962
4.87755	48.7101
4.87296	48.8025
4.86839	48.8406
4.86382	48.9098
4.85926	49.0318
4.85471	49.1052
4.85017	49.1976
4.84564	49.2814
4.84111	49.3065
4.8366	49.4187
4.83209	49.5179
4.82759	49.5674
4.8231	49.6945
4.81862	49.7728
4.81415	49.8234
4.80968	49.9694
4.80522	50.1203
4.80077	50.1721
4.79633	50.2138
4.7919	50.3177
4.78747	50.4135
4.78306	50.5749
4.77865	50.6873
4.77425	50.752
4.76986	50.8176
4.76547	50.9197
4.7611	51.0365
4.75673	51.1754
4.75237	51.2747
4.74802	51.3364
4.74367	51.4134
4.73934	51.5028
4.73501	51.6244
4.73069	51.7491
4.72638	51.7714
4.72207	51.8416
4.71777	51.8963
4.71348	51.953
4.7092	52.1029
4.70493	52.2356
4.70066	52.3113
4.69641	52.4533
4.69216	52.5491
4.68791	52.5514
4.68368	52.5662
4.67945	52.6647
4.67523	52.8089
4.67102	52.8892
4.66682	52.9107
4.66262	52.9508
4.65843	53.0598
4.65425	53.095
4.65007	53.1484
4.64591	53.2792
4.64175	53.3921
4.6376	53.4849
4.63345	53.5271
4.62932	53.6019
4.62519	53.7127
4.62106	53.792
4.61695	53.8742
4.61284	53.9549
4.60874	54.0044
4.60465	54.0866
4.60056	54.1984
4.59648	54.297
4.59241	54.3927
4.58835	54.4925
4.58429	54.6147
4.58024	54.7762
4.5762	54.8685
4.57216	54.9424
4.56814	55.0222
4.56411	55.1105
4.5601	55.2417
4.55609	55.4042
4.55209	55.5375
4.5481	55.6451
4.54411	55.6703
4.54013	55.725
4.53616	55.7992
4.5322	55.9198
4.52824	56.0101
4.52429	56.0884
4.52034	56.1588
4.51641	56.226
4.51247	56.311
4.50855	56.367
4.50463	56.3726
4.50072	56.4122
4.49682	56.4668
4.49292	56.5026
4.48903	56.5081
4.48515	56.5286
4.48127	56.522
4.4774	56.5106
4.47354	56.5281
4.46968	56.564
4.46584	56.5834
4.46199	56.5855
4.45815	56.5809
4.45432	56.5555
4.4505	56.5244
4.44668	56.4968
4.44287	56.5192
4.43907	56.551
4.43527	56.5045
4.43148	56.5154
4.4277	56.5291
4.42392	56.5289
4.42015	56.5595
4.41638	56.5842
4.41262	56.5625
4.40887	56.6028
4.40513	56.6597
4.40139	56.7112
4.39765	56.7251
4.39393	56.7765
4.39021	56.7905
4.38649	56.8249
4.38278	56.8813
4.37908	56.898
4.37539	56.966
4.3717	57.0862
4.36801	57.1757
4.36434	57.2956
4.36067	57.4918
4.357	57.5983
4.35335	57.7222
4.34969	57.8546
4.34605	57.9549
4.34241	58.0905
4.33877	58.2284
4.33514	58.4926
4.33152	58.7313
4.32791	58.9366
4.3243	59.1754
4.32069	59.4388
4.3171	59.64
4.31351	59.8669
4.30992	60.1207
4.30634	60.3301
4.30277	60.5334
4.2992	60.8061
4.29564	61.085
4.29208	61.3357
4.28853	61.569
4.28499	61.7424
4.28145	61.9718
4.27792	62.1588
4.27439	62.3257
4.27087	62.5147
4.26735	62.6152
4.26384	62.6335
4.26034	62.6084
4.25684	62.695
4.25335	62.9522
4.24986	63.2739
4.24638	63.6001
4.24291	63.8414
4.23944	63.9855
4.23598	64.1821
4.23252	64.323
4.22906	64.3611
4.22562	64.4043
4.22218	64.4789
4.21874	64.4683
4.21531	64.4356
4.21189	64.3981
4.20847	64.429
4.20506	64.4809
4.20165	64.4907
4.19825	64.4806
4.19485	64.5892
4.19146	64.6681
4.18807	64.7573
4.18469	64.9194
4.18132	64.9966
4.17795	64.998
4.17458	65.0897
4.17123	65.2369
4.16787	65.3451
4.16453	65.436
4.16118	65.5052
4.15785	65.5586
4.15451	65.6537
4.15119	65.7416
4.14787	65.7998
4.14455	65.9012
4.14124	65.9697
4.13794	65.979
4.13464	66.0521
4.13134	66.1194
4.12805	66.2104
4.12477	66.3092
4.12149	66.3986
4.11822	66.5319
4.11495	66.6165
4.11168	66.6079
4.10843	66.6163
4.10517	66.6773
4.10192	66.7813
4.09868	66.8928
4.09545	66.9721
4.09221	67.0211
4.08899	67.001
4.08576	67.0259
4.08255	67.1155
4.07933	67.2293
4.07613	67.3553
4.07292	67.3336
4.06973	67.3336
4.06654	67.3977
4.06335	67.4825
4.06017	67.5192
4.05699	67.5119
4.05382	67.5568
4.05065	67.6077
4.04749	67.5943
4.04433	67.6155
4.04118	67.6331
4.03803	67.7269
4.03489	67.7706
4.03175	67.7645
4.02862	67.7592
4.02549	67.7793
4.02237	67.7702
4.01925	67.7079
4.01614	67.6803
4.01303	67.7029
4.00993	67.6333
4.00683	67.5429
4.00373	67.4188
4.00064	67.3024
3.99756	67.3232
3.99448	67.3412
3.9914	67.2024
3.98833	67.0976
3.98527	67.0854
3.98221	67.0975
3.97915	67.0912
3.9761	67.097
3.97305	67.1403
3.97001	67.2497
3.96697	67.3015
3.96394	67.3815
3.96091	67.4459
3.95789	67.5062
3.95487	67.5789
3.95186	67.734
3.94885	67.7946
3.94584	67.7908
3.94284	67.8691
3.93984	67.971
3.93685	68.074
3.93386	68.1846
3.93088	68.1731
3.9279	68.1328
3.92493	68.1227
3.92196	68.1567
3.919	68.1353
3.91604	68.1269
3.91308	68.1198
3.91013	68.1245
3.90718	68.1003
3.90424	68.0915
3.9013	68.1424
3.89837	68.171
3.89544	68.1009
3.89252	68.1046
3.8896	68.1164
3.88668	68.1049
3.88377	68.0486
3.88086	68.0328
3.87796	68.0496
3.87506	68.1085
3.87217	68.0727
3.86928	67.9721
3.86639	67.9794
3.86351	67.9746
3.86064	67.966
3.85776	67.9733
3.8549	67.9409
3.85203	67.9512
3.84917	67.8991
3.84631	67.8254
3.84346	67.8004
3.84062	67.8272
3.83777	67.8276
3.83494	67.823
3.8321	67.7957
3.82927	67.7702
3.82644	67.7997
3.82362	67.8094
3.82081	67.7447
3.81799	67.736
3.81518	67.7433
3.81238	67.775
3.80958	67.7658
3.80678	67.6996
3.80399	67.6414
3.8012	67.7102
3.79841	67.6793
3.79563	67.5457
3.79286	67.4664
3.79008	67.4302
3.78731	67.4524
3.78455	67.4586
3.78179	67.455
3.77903	67.3815
3.77628	67.2365
3.77353	67.2227
3.77079	67.2778
3.76805	67.165
3.76531	67.0645
3.76258	67.0464
3.75985	66.9641
3.75713	66.8808
3.7544	66.8624
3.75169	66.8457
3.74898	66.8112
3.74627	66.735
3.74356	66.6014
3.74086	66.59
3.73816	66.6074
3.73547	66.5293
3.73278	66.4605
3.7301	66.4376
3.72741	66.4044
3.72474	66.2889
3.72206	66.2137
3.71939	66.1655
3.71673	66.13
3.71406	66.1195
3.71141	66.0573
3.70875	65.9818
3.7061	65.8647
3.70345	65.8042
3.70081	65.8023
3.69817	65.7565
3.69553	65.6476
3.6929	65.5606
3.69027	65.5112
3.68765	65.5224
3.68503	65.4001
3.68241	65.2077
3.6798	65.1521
3.67719	65.1329
3.67458	65.0934
3.67198	65.0654
3.66938	64.9892
3.66678	64.9404
3.66419	64.8687
3.66161	64.7613
3.65902	64.6397
3.65644	64.5223
3.65387	64.4709
3.65129	64.4782
3.64872	64.3906
3.64616	64.2413
3.64359	64.1456
3.64103	64.1835
3.63848	64.1491
3.63593	64.0299
3.63338	63.9636
3.63084	63.9144
3.6283	63.761
3.62576	63.6449
3.62322	63.6064
3.62069	63.5768
3.61817	63.4972
3.61564	63.4016
3.61312	63.3119
3.61061	63.2268
3.6081	63.1652
3.60559	63.0685
3.60308	62.9884
3.60058	62.9256
3.59808	62.7764
3.59558	62.641
3.59309	62.5707
3.59061	62.5302
3.58812	62.4566
3.58564	62.3206
3.58316	62.2347
3.58069	62.1154
3.57822	61.9903
3.57575	61.9281
3.57328	61.851
3.57082	61.7631
3.56836	61.67
3.56591	61.5826
3.56346	61.4217
3.56101	61.2596
3.55857	61.1056
3.55613	60.9372
3.55369	60.8816
3.55126	60.8113
3.54883	60.6483
3.5464	60.4811
3.54397	60.3254
3.54155	60.1681
3.53914	60.0312
3.53672	59.8956
3.53431	59.7683
3.5319	59.5277
3.5295	59.3481
3.5271	59.2402
3.5247	59.068
3.52231	58.8975
3.51991	58.6787
3.51753	58.4058
3.51514	58.1993
3.51276	57.9229
3.51038	57.5606
3.50801	57.241
3.50563	56.9224
3.50327	56.6406
3.5009	56.4198
3.49854	56.2707
3.49618	56.2016
3.49382	56.1839
3.49147	56.0823
3.48912	55.9413
3.48677	55.8298
3.48443	55.7321
3.48209	55.538
3.47975	55.3167
3.47742	55.2018
3.47509	55.1697
3.47276	55.2015
3.47044	55.2068
3.46812	55.1963
3.4658	55.2384
3.46348	55.1896
3.46117	55.1832
3.45886	55.0729
3.45656	54.8668
3.45425	54.6679
3.45195	54.5263
3.44966	54.4362
3.44736	54.2707
3.44507	54.1022
3.44279	53.9539
3.4405	53.6408
3.43822	53.4411
3.43594	53.2459
3.43367	53.0083
3.43139	52.8049
3.42912	52.4982
3.42686	52.1357
3.42459	51.894
3.42233	51.6501
3.42007	51.3178
3.41782	51.0425
3.41557	50.8201
3.41332	50.6228
3.41108	50.5399
3.40883	50.5762
3.40659	50.5024
3.40435	50.3921
3.40212	50.2443
3.39989	50.198
3.39766	50.2474
3.39544	50.1272
3.39322	50.0877
3.391	50.0161
3.38878	49.8512
3.38657	49.6339
3.38436	49.4078
3.38215	49.2175
3.37994	48.9735
3.37774	48.6884
3.37554	48.5893
3.37335	48.4583
3.37115	48.2906
3.36896	48.3128
3.36678	48.3536
3.36459	48.4427
3.36241	48.5238
3.36023	48.4625
3.35805	48.3722
3.35588	48.3005
3.35371	48.1947
3.35154	48.0754
3.34938	48.0409
3.34721	47.9728
3.34505	47.7296
3.3429	47.5809
3.34074	47.5877
3.33859	47.5174
3.33644	47.3635
3.3343	47.1923
3.33215	47.0264
3.33001	46.9363
3.32788	46.7239
3.32574	46.521
3.32361	46.4232
3.32148	46.3348
3.31936	46.2194
3.31723	46.0891
3.31511	45.9987
3.31299	45.814
3.31088	45.5052
3.30876	45.2525
3.30665	45.0729
3.30455	44.8929
3.30244	44.8036
3.30034	44.7159
3.29824	44.5391
3.29614	44.4483
3.29405	44.4201
3.29196	44.2237
3.28987	43.9113
3.28778	43.6865
3.2857	43.6014
3.28362	43.5147
3.28154	43.3949
3.27946	43.2493
3.27739	43.128
3.27532	42.9558
3.27325	42.7446
3.27119	42.4989
3.26913	42.3058
3.26707	42.1762
3.26501	42.125
3.26295	42.0534
3.2609	41.8499
3.25885	41.6921
3.2568	41.6828
3.25476	41.4908
3.25272	41.2635
3.25068	41.1026
3.24864	40.9773
3.24661	40.7916
3.24458	40.6334
3.24255	40.5866
3.24052	40.427
3.2385	40.2724
3.23648	40.1079
3.23446	39.9144
3.23244	39.7703
3.23043	39.6401
3.22841	39.4265
3.2264	39.2262
3.2244	39.1125
3.22239	39.0483
3.22039	38.8451
3.21839	38.7162
3.2164	38.6361
3.2144	38.3967
3.21241	38.2257
3.21042	38.1086
3.20844	37.895
3.20645	37.7413
3.20447	37.6397
3.20249	37.4753
3.20051	37.3495
3.19854	37.1941
3.19657	37.0742
3.1946	36.9655
3.19263	36.8142
3.19067	36.6398
3.1887	36.4247
3.18674	36.2643
3.18479	36.1392
3.18283	36.0538
3.18088	35.9268
3.17893	35.6901
3.17698	35.3885
3.17504	35.2075
3.17309	35.1138
3.17115	34.9316
3.16921	34.7571
3.16728	34.611
3.16534	34.4925
3.16341	34.3368
3.16148	34.1356
3.15956	33.9442
3.15763	33.818
3.15571	33.6403
3.15379	33.3751
3.15187	33.2438
3.14996	33.082
3.14805	32.8841
3.14614	32.7282
3.14423	32.5957
3.14232	32.3968
3.14042	32.253
3.13852	32.0583
3.13662	31.8043
3.13472	31.6554
3.13283	31.514
3.13094	31.3396
3.12905	31.2398
3.12716	31.1683
3.12528	30.9965
3.12339	30.8969
3.12151	30.8944
3.11964	30.8169
3.11776	30.6771
3.11589	30.5101
3.11401	30.3134
3.11214	30.2748
3.11028	30.3334
3.10841	30.2385
3.10655	30.1826
3.10469	30.1354
3.10283	29.9873
3.10098	29.8418
3.09912	29.8043
3.09727	29.7755
3.09542	29.7229
3.09358	29.6543
3.09173	29.53
3.08989	29.4522
3.08805	29.4338
3.08621	29.3457
3.08437	29.1629
3.08254	28.9947
3.08071	28.9403
3.07888	28.8807
3.07705	28.7677
3.07523	28.7364
3.0734	28.684
3.07158	28.6191
3.06977	28.584
3.06795	28.4864
3.06613	28.3519
3.06432	28.3125
3.06251	28.252
3.0607	28.1978
3.0589	28.184
3.0571	28.1184
3.05529	28.1658
3.05349	28.2035
3.0517	28.1829
3.0499	28.1458
3.04811	28.2108
3.04632	28.232
3.04453	28.1971
3.04274	28.2397
3.04096	28.2454
3.03918	28.2796
3.0374	28.3806
3.03562	28.4196
3.03384	28.4614
3.03207	28.5945
3.03029	28.6741
3.02852	28.724
3.02676	28.7568
3.02499	28.6849
3.02323	28.6499
3.02146	28.6687
3.0197	28.6688
3.01795	28.605
3.01619	28.5225
3.01444	28.5737
3.01269	28.6107
3.01094	28.6186
3.00919	28.6584
3.00744	28.6287
3.0057	28.5063
3.00396	28.4404
3.00222	28.3135
3.00048	28.3624
2.99875	28.3186
2.99701	28.2849
2.99528	28.2626
2.99355	28.0391
2.99183	27.7968
2.9901	27.7123
2.98838	27.6689
2.98666	27.7302
2.98494	27.7755
2.98322	27.6218
2.9815	27.3964
2.97979	27.3807
2.97808	27.2945
2.97637	27.2242
2.97466	27.1914
2.97295	27.1896
2.97125	27.1931
2.96955	27.0922
2.96785	27.0128
2.96615	27.0096
2.96446	26.946
2.96276	26.9159
2.96107	26.8927
2.95938	26.7852
2.95769	26.7424
2.95601	26.7545
2.95432	26.7716
2.95264	26.7433
2.95096	26.7332
2.94928	26.7866
2.9476	26.8074
2.94593	26.7719
2.94425	26.6751
2.94258	26.6616
2.94092	26.7245
2.93925	26.7753
2.93758	26.8529
2.93592	26.7996
2.93426	26.8123
2.9326	27.0193
2.93094	27.28
2.92928	27.3962
2.92763	27.4056
2.92598	27.4336
2.92433	27.4714
2.92268	27.5184
2.92103	27.5652
2.91939	27.6496
2.91775	27.6761
2.9161	27.76
2.91447	27.9218
2.91283	27.9142
2.91119	27.8543
2.90956	27.8941
2.90793	27.8787
2.9063	27.8841
2.90467	27.9178
2.90304	27.985
2.90142	28.0945
2.89979	28.1151
2.89817	28.1498
2.89656	28.0898
2.89494	28.0862
2.89332	28.182
2.89171	28.1793
2.8901	28.0223
2.88849	27.9946
2.88688	27.9414
2.88527	28.0041
2.88367	28.0222
2.88206	27.9757
2.88046	28.161
2.87886	28.3802
2.87727	28.2541
2.87567	28.1974
2.87408	28.4345
2.87248	28.5246
2.87089	28.4604
2.8693	28.6005
2.86772	28.6085
2.86613	28.603
2.86455	28.6406
2.86297	28.6698
2.86139	28.8141
2.85981	28.9211
2.85823	28.8983
2.85666	28.9084
2.85508	29.0603
2.85351	29.1597
2.85194	29.2176
2.85038	29.1533
2.84881	28.9888
2.84724	28.9514
2.84568	29.0219
2.84412	28.9775
2.84256	28.9508
2.841	28.8956
2.83945	28.8985
2.83789	28.9586
2.83634	28.8316
2.83479	28.7234
2.83324	28.6507
2.83169	28.6682
2.83015	28.7637
2.82861	28.8207
2.82706	28.804
2.82552	28.8189
2.82398	28.9975
2.82245	29.1392
2.82091	29.2752
2.81938	29.5163
2.81784	29.6804
2.81631	29.8355
2.81479	30.0251
2.81326	30.1431
2.81173	30.1412
2.81021	30.2038
2.80869	30.3673
2.80716	30.6145
2.80565	31.0175
2.80413	31.3333
2.80261	31.3579
2.8011	31.2749
2.79959	31.4688
2.79808	31.6169
2.79657	31.7554
2.79506	31.9514
2.79355	32.2812
2.79205	32.5206
2.79055	32.6042
2.78904	32.916
2.78754	33.5288
2.78605	33.7291
2.78455	33.5269
2.78306	33.7231
2.78156	34.0928
2.78007	34.2608
2.77858	34.5071
2.77709	34.8385
2.77561	34.9391
2.77412	35.2455
2.77264	35.7934
2.77116	36.3172
2.76968	36.3777
2.7682	36.6129
2.76672	36.9679
2.76524	37.2027
2.76377	37.7743
2.7623	38.0399
2.76083	37.8399
2.75936	38.0467
2.75789	38.7043
2.75642	39.8124
2.75496	40.486
2.7535	40.133
2.75203	40.3416
2.75057	40.7268
2.74912	41.0838
2.74766	41.4088
2.7462	41.856
2.74475	42.2887
2.7433	43.0369
2.74185	44.3263
2.7404	45.2437
2.73895	45.2442
2.7375	44.8003
2.73606	45.2324
2.73462	45.9417
2.73318	45.8713
2.73174	46.0492
2.7303	46.4818
2.72886	46.982
2.72742	47.6055
2.72599	48.5616
2.72456	49.6966
2.72313	49.6816
2.7217	50.3044
2.72027	51.5424
2.71884	51.2308
2.71742	51.332
2.71599	51.7859
2.71457	52.5056
2.71315	53.4679
2.71173	55.2445
2.71032	56.5111
2.7089	56.8832
2.70748	57.3979
2.70607	58.0773
2.70466	58.8232
2.70325	59.793
2.70184	61.0819
2.70043	61.9494
2.69903	62.4187
2.69762	63.2401
2.69622	64.487
2.69482	65.7484
2.69342	66.4432
2.69202	66.1017
2.69062	66.2666
2.68923	66.8739
2.68783	67.3316
2.68644	67.8774
2.68505	68.2789
2.68366	68.6571
2.68227	68.7391
2.68089	69.1336
2.6795	70.1781
2.67812	70.6861
2.67673	71.0358
2.67535	70.5551
2.67397	70.1497
2.6726	70.5374
2.67122	72.2619
2.66984	72.6259
2.66847	71.6169
2.6671	72.5322
2.66572	72.9949
2.66435	72.4429
2.66299	71.4579
2.66162	71.4673
2.66025	71.6421
2.65889	71.5718
2.65753	71.2551
2.65616	71.708
2.65481	71.7254
2.65345	71.886
2.65209	72.0713
2.65073	71.6551
2.64938	71.5456
2.64803	71.8203
2.64667	72.1985
2.64532	72.405
2.64397	71.9794
2.64263	71.999
2.64128	72.1473
2.63994	72.1823
2.63859	72.0875
2.63725	72.1058
2.63591	72.2085
2.63457	72.6138
2.63323	72.7238
2.6319	73.2613
2.63056	74.3396
2.62923	73.5702
2.62789	73.2722
2.62656	73.7976
2.62523	72.9737
2.6239	72.5876
2.62258	72.7544
2.62125	73.7593
2.61993	74.0641
2.6186	73.7254
2.61728	74.6174
2.61596	74.189
2.61464	73.2079
2.61332	73.3338
2.61201	73.2558
2.61069	73.4984
2.60938	73.7316
2.60807	73.7284
2.60675	74.3195
2.60544	75.0453
2.60414	74.4512
2.60283	73.7743
2.60152	73.628
2.60022	73.4398
2.59891	73.1692
2.59761	73.5647
2.59631	75.17
2.59501	77.0611
2.59371	75.6261
2.59242	73.8861
2.59112	73.5448
2.58983	73.7342
2.58853	74.1517
2.58724	74.448
2.58595	74.0298
2.58466	74.574
2.58338	74.7583
2.58209	74.1308
2.5808	74.1228
2.57952	73.6771
2.57824	73.8443
2.57695	74.3811
2.57567	74.0519
2.5744	74.0532
2.57312	74.321
2.57184	73.7984
2.57057	74.1034
2.56929	74.2914
2.56802	73.8043
2.56675	73.6397
2.56548	74.0883
2.56421	74.6303
2.56294	74.7535
2.56168	74.8336
2.56041	74.3711
2.55915	73.7343
2.55789	73.5221
2.55662	73.514
2.55536	73.4895
2.5541	73.7565
2.55285	74.1875
2.55159	74.1993
2.55034	74.0364
2.54908	73.8837
2.54783	73.9939
2.54658	73.9154
2.54533	73.876
2.54408	73.9666
2.54283	73.9216
2.54159	73.7757
2.54034	73.7645
2.5391	73.783
2.53785	73.7768
2.53661	73.9407
2.53537	73.906
2.53413	73.7697
2.53289	73.8647
2.53166	73.8593
2.53042	73.8583
2.52919	73.8287
2.52795	73.8411
2.52672	73.8492
2.52549	73.7935
2.52426	73.9037
2.52303	73.917
2.52181	73.8123
2.52058	73.8529
2.51936	73.8854
2.51813	73.868
2.51691	73.8142
2.51569	73.7869
2.51447	73.8437
2.51325	73.7858
2.51203	73.7579
2.51082	73.7459
2.5096	73.7305
2.50839	73.765
2.50717	73.818
2.50596	73.8441
2.50475	73.8495
2.50354	73.8141
2.50233	73.8519
2.50113	73.928
2.49992	73.9147
2.49872	73.8558
2.49751	73.8399
2.49631	73.8988
2.49511	73.8965
2.49391	73.8065
2.49271	73.866
2.49151	73.8923
2.49031	73.8671
2.48912	73.989
2.48792	73.9286
2.48673	73.8618
2.48554	73.9646
2.48435	73.9425
2.48316	73.9556
2.48197	73.9032
2.48078	73.8553
2.4796	73.8709
2.47841	73.8458
2.47723	73.8973
2.47604	73.897
2.47486	73.9263
2.47368	73.9752
2.4725	73.9661
2.47132	73.8857
2.47014	73.9156
2.46897	74.0076
2.46779	73.9911
2.46662	73.9774
2.46545	73.9585
2.46427	73.9595
2.4631	74.0159
2.46193	74.0322
2.46077	73.9594
2.4596	73.9899
2.45843	74.0087
2.45727	74.0634
2.4561	74.1172
2.45494	74.1022
2.45378	74.1229
2.45262	74.2883
2.45146	74.3117
2.4503	74.2533
2.44914	74.1401
2.44799	74.163
2.44683	74.3073
2.44568	74.3645
2.44452	74.2877
2.44337	74.3283
2.44222	74.5037
2.44107	74.5876
2.43992	74.5092
2.43877	74.4736
2.43763	74.3955
2.43648	74.4306
2.43534	74.5309
2.43419	74.5233
2.43305	74.4526
2.43191	74.4026
2.43077	74.499
2.42963	74.5735
2.42849	74.5623
2.42736	74.6077
2.42622	74.5517
2.42509	74.6073
2.42395	74.8204
2.42282	74.848
2.42169	74.8966
2.42056	74.9591
2.41943	74.9369
2.4183	74.9326
2.41717	75.0248
2.41605	75.0351
2.41492	75.0041
2.4138	75.0966
2.41267	75.17
2.41155	75.2476
2.41043	75.301
2.40931	75.2444
2.40819	75.2411
2.40707	75.4149
2.40595	75.4763
2.40484	75.4377
2.40372	75.5007
2.40261	75.6551
2.4015	75.7519
2.40039	75.7579
2.39928	75.8746
2.39817	75.989
2.39706	75.926
2.39595	75.8752
2.39484	75.9946
2.39374	75.9685
2.39263	75.92
2.39153	76.0426
2.39043	76.115
2.38932	76.2686
2.38822	76.2944
2.38712	76.3005
2.38603	76.4059
2.38493	76.3949
2.38383	76.3626
2.38274	76.3722
2.38164	76.4947
2.38055	76.6706
2.37946	76.6697
2.37836	76.6343
2.37727	76.7518
2.37618	76.8865
2.3751	76.954
2.37401	76.9643
2.37292	76.9158
2.37184	76.8833
2.37075	76.8332
2.36967	76.923
2.36859	76.9129
2.3675	76.9477
2.36642	77.0755
2.36534	77.1236
2.36427	77.1766
2.36319	77.2172
2.36211	77.2131
2.36104	77.2402
2.35996	77.1779
2.35889	77.1012
2.35781	77.1036
2.35674	77.1239
2.35567	77.1793
2.3546	77.1833
2.35353	77.1564
2.35247	77.2293
2.3514	77.2657
2.35033	77.2395
2.34927	77.3126
2.3482	77.3587
2.34714	77.2908
2.34608	77.3182
2.34502	77.2836
2.34396	77.4133
2.3429	77.5311
2.34184	77.3895
2.34078	77.29
2.33973	77.3944
2.33867	77.4335
2.33762	77.4258
2.33656	77.4857
2.33551	77.5023
2.33446	77.4866
2.33341	77.4639
2.33236	77.3665
2.33131	77.2394
2.33026	77.307
2.32922	77.5491
2.32817	77.5549
2.32712	77.4121
2.32608	77.4014
2.32504	77.4014
2.324	77.3932
2.32295	77.4343
2.32191	77.4649
2.32087	77.4742
2.31984	77.4021
2.3188	77.3869
2.31776	77.3472
2.31673	77.3418
2.31569	77.4101
2.31466	77.6036
2.31362	77.7302
2.31259	77.6277
2.31156	77.5894
2.31053	77.5965
2.3095	77.5408
2.30847	77.501
2.30745	77.5565
2.30642	77.605
2.3054	77.5886
2.30437	77.5712
2.30335	77.5829
2.30232	77.6571
2.3013	77.6703
2.30028	77.7014
2.29926	77.6524
2.29824	77.5888
2.29722	77.6004
2.29621	77.6341
2.29519	77.6333
2.29417	77.6663
2.29316	77.7971
2.29215	77.9916
2.29113	77.9872
2.29012	77.8456
2.28911	77.6244
2.2881	77.6192
2.28709	77.8974
2.28608	78.0183
2.28507	77.8899
2.28407	77.8254
2.28306	77.9591
2.28206	78.0811
2.28105	78.2214
2.28005	78.1513
2.27905	78.055
2.27805	78.0778
2.27705	78.0759
2.27605	78.1052
2.27505	78.1473
2.27405	78.0984
2.27305	78.0079
2.27206	77.9752
2.27106	78.0217
2.27007	78.18
2.26907	78.2776
2.26808	78.2206
2.26709	78.0248
2.2661	77.9311
2.26511	77.9143
2.26412	77.9995
2.26313	78.1433
2.26214	78.2382
2.26116	78.1675
2.26017	78.1109
2.25919	78.0875
2.2582	77.9925
2.25722	77.9833
2.25624	77.9478
2.25526	78.09
2.25428	78.2808
2.2533	78.2143
2.25232	78.216
2.25134	78.1868
2.25036	78.072
2.24939	78.0966
2.24841	78.1749
2.24744	78.2394
2.24646	78.1301
2.24549	78.115
2.24452	78.2308
2.24355	78.2028
2.24257	78.1317
2.24161	78.1993
2.24064	78.244
2.23967	78.2254
2.2387	78.2668
2.23774	78.2834
2.23677	78.1737
2.23581	78.2566
2.23484	78.3093
2.23388	78.1986
2.23292	78.2101
2.23196	78.2104
2.231	78.1734
2.23004	78.0884
2.22908	78.144
2.22812	78.2241
2.22716	78.224
2.22621	78.2355
2.22525	78.2462
2.2243	78.3087
2.22334	78.2413
2.22239	78.2374
2.22144	78.1934
2.22049	78.1982
2.21953	78.2429
2.21859	78.2881
2.21764	78.3082
2.21669	78.2955
2.21574	78.4089
2.21479	78.4173
2.21385	78.3726
2.2129	78.2936
2.21196	78.304
2.21102	78.2555
2.21007	78.134
2.20913	78.1772
2.20819	78.282
2.20725	78.3582
2.20631	78.3509
2.20537	78.1895
2.20444	78.0772
2.2035	78.1234
2.20256	78.1003
2.20163	78.0538
2.20069	78.1814
2.19976	78.2081
2.19883	78.1706
2.19789	78.3113
2.19696	78.4583
2.19603	78.4085
2.1951	78.2452
2.19417	78.2177
2.19325	78.2761
2.19232	78.312
2.19139	78.2758
2.19047	78.2716
2.18954	78.2247
2.18862	78.2263
2.18769	78.2948
2.18677	78.322
2.18585	78.3341
2.18493	78.2755
2.18401	78.4041
2.18309	78.3024
2.18217	78.1747
2.18125	78.1899
2.18033	78.171
2.17942	78.2205
2.1785	78.2091
2.17759	78.3126
2.17667	78.3897
2.17576	78.4486
2.17485	78.4558
2.17393	78.2739
2.17302	78.0246
2.17211	78.0108
2.1712	78.2879
2.17029	78.3676
2.16939	78.1476
2.16848	78.0559
2.16757	78.1294
2.16667	78.2199
2.16576	78.269
2.16486	78.1879
2.16395	78.1546
2.16305	78.2303
2.16215	78.2843
2.16125	78.3176
2.16035	78.3298
2.15945	78.2552
2.15855	78.1455
2.15765	78.2092
2.15675	78.3476
2.15586	78.3235
2.15496	78.2626
2.15406	78.2758
2.15317	78.2686
2.15228	78.1925
2.15138	78.2551
2.15049	78.3373
2.1496	78.2813
2.14871	78.2198
2.14782	78.2821
2.14693	78.3022
2.14604	78.1629
2.14515	77.9836
2.14427	77.8618
2.14338	77.9268
2.14249	78.1435
2.14161	78.2853
2.14072	78.271
2.13984	78.3382
2.13896	78.3996
2.13808	78.3355
2.13719	78.2082
2.13631	78.1482
2.13543	78.1851
2.13455	78.1815
2.13368	78.1524
2.1328	78.202
2.13192	78.2542
2.13105	78.0881
2.13017	78.0534
2.1293	78.2868
2.12842	78.3897
2.12755	78.475
2.12668	78.3366
2.1258	78.1186
2.12493	78.1783
2.12406	78.1241
2.12319	78.2006
2.12232	78.2382
2.12145	78.0525
2.12059	77.9187
2.11972	77.9752
2.11885	77.9222
2.11799	77.9146
2.11712	78.0036
2.11626	78.0936
2.1154	78.1235
2.11453	78.0798
2.11367	78.041
2.11281	78.2805
2.11195	78.3826
2.11109	78.2887
2.11023	78.0861
2.10937	77.851
2.10851	77.871
2.10766	78.0344
2.1068	78.0342
2.10594	78.048
2.10509	78.0047
2.10423	78.0415
2.10338	77.9891
2.10253	77.9436
2.10168	78.0032
2.10082	77.9434
2.09997	77.9336
2.09912	78.0992
2.09827	78.1083
2.09742	77.9628
2.09658	77.9044
2.09573	78.0507
2.09488	78.1641
2.09404	77.973
2.09319	77.8915
2.09235	77.8146
2.0915	77.7924
2.09066	77.9668
2.08982	77.9918
2.08897	78.0325
2.08813	77.9783
2.08729	77.7672
2.08645	77.7274
2.08561	77.9102
2.08477	77.9165
2.08394	77.768
2.0831	77.9521
2.08226	77.9291
2.08143	77.7745
2.08059	77.7107
2.07976	77.6453
2.07892	77.7013
2.07809	77.717
2.07726	77.6228
2.07643	77.673
2.07559	77.6376
2.07476	77.5742
2.07393	77.6248
2.0731	77.6315
2.07228	77.4281
2.07145	77.4802
2.07062	77.6947
2.06979	77.8248
2.06897	77.7827
2.06814	77.713
2.06732	77.6927
2.06649	77.6753
2.06567	77.7
2.06485	77.7963
2.06403	77.7832
2.0632	77.6727
2.06238	77.5518
2.06156	77.5809
2.06074	77.6252
2.05993	77.7612
2.05911	77.6295
2.05829	77.6915
2.05747	77.7772
2.05666	77.384
2.05584	77.3496
2.05503	77.3294
2.05421	77.0975
2.0534	77.222
2.05259	77.5701
2.05177	77.6345
2.05096	77.4928
2.05015	77.3231
2.04934	77.2895
2.04853	77.3646
2.04772	77.2455
2.04691	77.1042
2.04611	77.2081
2.0453	77.1946
2.04449	77.181
2.04369	77.3972
2.04288	77.5603
2.04208	77.5776
2.04127	77.4309
2.04047	77.3421
2.03967	77.463
2.03886	77.4664
2.03806	77.3118
2.03726	77.0415
2.03646	76.8821
2.03566	76.8956
2.03486	76.9905
2.03407	77.2029
2.03327	77.188
2.03247	77.1719
2.03167	77.2351
2.03088	77.0152
2.03008	76.9538
2.02929	76.9701
2.0285	77.0874
2.0277	77.1802
2.02691	77.0986
2.02612	76.9655
2.02533	76.9259
2.02453	76.8847
2.02374	76.9353
2.02295	76.9834
2.02217	76.895
2.02138	76.8502
2.02059	76.6877
2.0198	76.7698
2.01902	76.8764
2.01823	76.8848
2.01744	76.8764
2.01666	76.6985
2.01588	76.7106
2.01509	76.8342
2.01431	76.7519
2.01353	76.5822
2.01275	76.5496
2.01196	76.4752
2.01118	76.6054
2.0104	76.7499
2.00963	76.6769
2.00885	76.6823
2.00807	76.5313
2.00729	76.2969
2.00651	76.1805
2.00574	76.061
2.00496	76.0462
2.00419	76.081
2.00341	76.1204
2.00264	76.2748
2.00187	76.3354
2.00109	76.1923
2.00032	76.0798
