Name: Apatite Ca_5(PO_4)_3F
Type: Mineral
Class: Phosphates
Subclass: 
Particle Size: 45-125um
Sample No.: P-1A
Owner: JPL
Wavelength range: IR
Origin: Canada, Ontario, Lanark County, Perth
Collected by Ward's
Description: 





Measurement: Hemispherical reflectance
First Column: X
Second Column: Y
X Units:  Wavelength (micrometers)
Y Units:  Reflectance (percent)
First X Value: 15.3853
Last X Value: 2.00032
Number of X Values: 2256
Additional information: p01aa.txt
 
15.3853	1.52685
15.3397	1.79326
15.2945	1.85636
15.2495	2.0034
15.2048	2.15684
15.1603	2.24613
15.1161	2.39658
15.0722	2.71565
15.0285	2.68676
14.9851	2.36332
14.9419	2.31645
14.8989	2.59215
14.8563	2.64927
14.8138	2.65826
14.7716	2.84689
14.7296	2.69134
14.6879	2.62386
14.6464	2.60099
14.6052	2.75075
14.5641	2.94417
14.5233	3.28968
14.4828	3.31441
14.4424	3.28198
14.4023	3.46215
14.3624	3.52958
14.3227	3.54828
14.2833	3.54498
14.244	3.66407
14.205	3.74683
14.1662	3.61003
14.1276	3.35182
14.0892	3.27269
14.051	3.23458
14.0131	3.1714
13.9753	3.25006
13.9377	3.26017
13.9004	3.19977
13.8632	3.162
13.8262	3.29259
13.7895	3.41072
13.7529	3.27378
13.7165	3.18549
13.6803	3.25021
13.6443	3.19281
13.6085	3.17306
13.5729	3.24273
13.5374	3.18161
13.5022	3.04633
13.4671	3.05182
13.4322	3.18134
13.3975	3.19188
13.363	3.04156
13.3286	3.12212
13.2944	3.12282
13.2604	3.18641
13.2266	3.31926
13.193	3.68179
13.1595	4.07191
13.1262	4.33741
13.093	4.57995
13.06	4.93666
13.0272	5.26688
12.9946	5.38684
12.9621	5.62285
12.9298	5.91568
12.8976	6.10509
12.8656	6.46045
12.8337	6.60427
12.8021	6.55253
12.7705	6.7097
12.7391	6.79007
12.7079	6.81781
12.6769	6.85287
12.6459	6.82437
12.6152	6.76238
12.5845	6.73739
12.5541	6.82831
12.5238	7.01167
12.4936	7.25198
12.4635	7.37016
12.4337	7.35777
12.4039	7.38977
12.3743	7.30922
12.3448	7.3264
12.3155	7.38268
12.2863	7.42775
12.2573	7.56312
12.2284	7.62509
12.1996	7.62962
12.171	7.5524
12.1425	7.5196
12.1141	7.69648
12.0859	7.71183
12.0578	7.59597
12.0298	7.58619
12.0019	7.67317
11.9742	7.68112
11.9466	7.57304
11.9192	7.51612
11.8918	7.42776
11.8646	7.31842
11.8375	7.18763
11.8106	6.84278
11.7837	6.52062
11.757	6.57886
11.7304	6.48697
11.7039	6.2283
11.6776	6.1511
11.6513	6.19016
11.6252	6.33366
11.5992	6.21541
11.5733	5.78815
11.5475	5.65572
11.5219	5.82591
11.4963	5.95585
11.4709	5.86819
11.4455	5.94738
11.4203	6.17047
11.3952	6.33012
11.3702	6.36904
11.3454	6.42303
11.3206	6.61457
11.2959	6.71286
11.2714	6.71299
11.2469	6.45514
11.2226	6.23511
11.1983	6.25077
11.1742	6.32449
11.1502	6.19316
11.1263	6.12881
11.1024	6.33187
11.0787	6.37535
11.0551	6.3384
11.0316	6.38149
11.0081	6.40029
10.9848	6.43895
10.9616	6.49501
10.9385	6.37577
10.9154	6.22097
10.8925	6.19541
10.8697	6.14855
10.8469	6.11042
10.8243	6.0412
10.8017	6.01416
10.7793	5.92566
10.7569	5.86221
10.7346	5.80532
10.7125	5.8041
10.6904	5.98465
10.6684	6.11747
10.6465	6.10148
10.6247	6.03263
10.6029	5.97276
10.5813	6.01059
10.5597	6.04263
10.5383	6.04709
10.5169	6.10689
10.4956	6.20694
10.4744	6.29019
10.4533	6.26028
10.4323	6.31039
10.4113	6.54421
10.3904	6.63836
10.3697	6.35304
10.349	5.96763
10.3284	5.98
10.3078	6.17897
10.2874	6.44691
10.267	6.74603
10.2467	6.88175
10.2265	7.10063
10.2064	7.44676
10.1863	7.61803
10.1663	7.68648
10.1464	7.91576
10.1266	8.18354
10.1069	8.29746
10.0872	8.47179
10.0676	8.76125
10.0481	8.96699
10.0287	9.22242
10.0093	9.64027
9.99005	10.0413
9.97084	10.3664
9.95169	10.619
9.93263	11.0121
9.91364	11.4453
9.89472	11.9397
9.87587	12.5837
9.8571	13.2228
9.83839	14.0838
9.81976	14.9494
9.80119	15.8216
9.78271	16.8302
9.76428	18.0762
9.74592	19.6443
9.72764	21.5481
9.70943	23.845
9.69128	26.2337
9.6732	28.6067
9.65518	31.1622
9.63724	33.5728
9.61935	35.166
9.60155	35.9268
9.5838	36.266
9.56611	36.4547
9.5485	36.6734
9.53094	36.7592
9.51345	36.8253
9.49604	36.8019
9.47867	36.9066
9.46137	37.064
9.44414	37.1147
9.42697	37.0972
9.40986	37.1427
9.39281	37.3723
9.37583	37.4925
9.35891	37.3449
9.34204	37.0951
9.32524	36.5957
9.3085	35.911
9.29182	34.6768
9.27519	32.2874
9.25863	28.3752
9.24213	23.0241
9.22568	18.1649
9.2093	16.7431
9.19297	18.9609
9.17669	23.4472
9.16048	28.3776
9.14433	32.1236
9.12823	34.4479
9.11218	35.8936
9.0962	36.9082
9.08027	37.5602
9.06439	37.9967
9.04858	38.3443
9.03281	38.5103
9.0171	38.6138
9.00145	38.5234
8.98585	38.2649
8.9703	37.6525
8.9548	36.4864
8.93937	34.704
8.92398	32.3144
8.90865	29.5696
8.89337	27.2404
8.87814	25.2799
8.86296	23.2185
8.84784	21.0052
8.83277	18.6924
8.81774	16.2459
8.80277	13.7278
8.78786	11.4645
8.77298	9.6359
8.75816	8.06369
8.7434	6.78596
8.72868	5.65708
8.714	4.7162
8.69938	4.16292
8.68481	3.776
8.67029	3.37899
8.65581	2.97795
8.64139	2.56801
8.62701	2.32395
8.61268	2.20596
8.5984	2.14871
8.58416	2.04195
8.56997	1.88116
8.55583	1.81791
8.54174	1.79136
8.52769	1.82303
8.51368	1.74947
8.49973	1.75838
8.48582	1.76819
8.47195	1.61931
8.45813	1.55169
8.44436	1.47922
8.43062	1.42705
8.41693	1.54918
8.4033	1.63737
8.3897	1.64369
8.37614	1.61664
8.36264	1.67241
8.34917	1.60187
8.33574	1.56142
8.32236	1.75982
8.30903	1.82135
8.29573	1.80253
8.28248	1.91387
8.26927	1.98399
8.2561	1.9702
8.24298	1.83874
8.2299	1.80278
8.21685	1.82037
8.20385	1.97903
8.19089	2.00962
8.17797	2.01963
8.16509	2.06914
8.15225	1.9686
8.13946	2.0116
8.1267	2.12775
8.11398	2.12209
8.10131	2.08436
8.08867	2.02131
8.07606	2.09925
8.0635	2.14408
8.05099	2.20814
8.0385	2.16506
8.02606	2.20692
8.01366	2.37522
8.00129	2.46972
7.98896	2.44407
7.97667	2.4173
7.96442	2.41038
7.9522	2.54491
7.94002	2.6226
7.92788	2.70511
7.91578	2.75029
7.90371	2.86587
7.89168	3.03879
7.87969	3.21424
7.86773	3.3093
7.85581	3.3819
7.84392	3.43629
7.83207	3.53298
7.82026	3.72636
7.80849	3.841
7.79674	3.8669
7.78503	3.99813
7.77337	4.21047
7.76173	4.35161
7.75012	4.53184
7.73856	4.66768
7.72703	4.77202
7.71553	4.91104
7.70406	5.04353
7.69263	5.19208
7.68123	5.39437
7.66987	5.58352
7.65855	5.75457
7.64725	5.85072
7.63598	6.06799
7.62475	6.36519
7.61356	6.48614
7.60239	6.57195
7.59126	6.75817
7.58017	6.92206
7.5691	7.07459
7.55806	7.31727
7.54707	7.47098
7.5361	7.61888
7.52516	7.79352
7.51425	7.92784
7.50338	8.14447
7.49253	8.37165
7.48172	8.5267
7.47094	8.75697
7.46019	8.99194
7.44947	9.13771
7.43879	9.27205
7.42813	9.46391
7.4175	9.66597
7.4069	9.88927
7.39634	10.1336
7.3858	10.3193
7.37529	10.4749
7.36482	10.6244
7.35437	10.8082
7.34396	11.1405
7.33357	11.344
7.32321	11.3857
7.31288	11.4424
7.30258	11.5176
7.29231	11.6701
7.28207	11.8384
7.27185	12.014
7.26167	12.099
7.25152	12.1287
7.24139	12.0963
7.23129	11.8859
7.22122	11.667
7.21117	11.5923
7.20116	11.3411
7.19117	11.058
7.18121	10.864
7.17128	10.6608
7.16137	10.3437
7.1515	9.90989
7.14164	9.35537
7.13182	8.84772
7.12203	8.49496
7.11225	8.11684
7.10251	7.62564
7.0928	7.16902
7.08311	6.84091
7.07344	6.53441
7.06381	6.23712
7.0542	6.07141
7.04461	5.86839
7.03506	5.4091
7.02552	5.01066
7.01601	4.76323
7.00653	4.81786
6.99708	5.14409
6.98765	5.58409
6.97824	6.2877
6.96886	7.20385
6.95951	7.99356
6.95018	8.34245
6.94087	8.41155
6.9316	8.09344
6.92234	7.37294
6.91311	6.55247
6.90391	5.68617
6.89473	4.83883
6.88557	4.39146
6.87644	4.51247
6.86733	4.97796
6.85824	5.28317
6.84918	5.35653
6.84015	5.6403
6.83114	6.10591
6.82215	6.4596
6.81319	6.77323
6.80424	7.17753
6.79532	7.67882
6.78643	8.04168
6.77756	8.23571
6.76871	8.51277
6.75989	8.79904
6.75109	9.18657
6.74231	9.56329
6.73355	9.90097
6.72482	10.2746
6.71611	10.6901
6.70742	11.0665
6.69875	11.3066
6.69011	11.611
6.68149	12.0327
6.67289	12.3267
6.66431	12.4937
6.65576	12.6455
6.64722	13.2647
6.63871	14.1928
6.63022	14.498
6.62175	14.6637
6.61331	15.0267
6.60488	15.4628
6.59648	16.0804
6.5881	16.4961
6.57974	16.9867
6.5714	17.5418
6.56308	17.4236
6.55478	17.3271
6.54651	17.2733
6.53825	17.1031
6.53001	17.0968
6.5218	17.3298
6.51361	17.1409
6.50544	17.2648
6.49729	17.9886
6.48915	18.0472
6.48104	17.4812
6.47295	17.1243
6.46488	16.9294
6.45683	16.9542
6.4488	17.2255
6.44079	17.6648
6.4328	18.3205
6.42482	19.0937
6.41687	20.382
6.40894	20.2984
6.40103	19.4741
6.39314	19.4933
6.38526	19.7212
6.37741	20.0014
6.36957	20.1619
6.36176	19.7134
6.35396	19.5012
6.34618	19.8509
6.33843	19.9825
6.33069	20.3309
6.32297	21.2399
6.31527	22.1748
6.30758	23.0871
6.29992	23.8472
6.29227	24.5613
6.28465	25.0875
6.27704	25.508
6.26945	25.8331
6.26188	26.0029
6.25432	26.0397
6.24679	26.0956
6.23927	26.0011
6.23177	25.8524
6.22429	25.6772
6.21683	25.5635
6.20938	25.3531
6.20195	25.1108
6.19454	25.2837
6.18715	25.8533
6.17978	25.6845
6.17242	25.3981
6.16508	25.7046
6.15776	25.9652
6.15045	25.8352
6.14317	25.771
6.1359	25.627
6.12864	25.5396
6.12141	25.8544
6.11419	26.3294
6.10699	25.7434
6.0998	25.1632
6.09263	24.9711
6.08549	25.0048
6.07835	25.4697
6.07123	25.8444
6.06413	25.7042
6.05705	26.4625
6.04998	27.9394
6.04293	27.3992
6.0359	26.7048
6.02888	26.8994
6.02187	27.4288
6.01489	28.13
6.00792	28.4266
6.00096	28.8053
5.99403	29.6131
5.98711	30.2127
5.9802	30.3551
5.97331	30.9547
5.96644	31.4909
5.95958	31.439
5.95274	31.7876
5.94591	32.5004
5.9391	33.8012
5.9323	33.6724
5.92552	32.9264
5.91876	32.9268
5.91201	32.954
5.90528	33.2266
5.89856	34.1626
5.89186	34.2384
5.88517	34.7045
5.8785	35.2029
5.87184	34.73
5.8652	35.3809
5.85857	35.8055
5.85196	35.9903
5.84536	36.2304
5.83878	36.7025
5.83221	37.424
5.82566	38.2137
5.81912	38.1695
5.81259	37.3078
5.80608	36.9273
5.79959	36.7956
5.79311	36.638
5.78665	36.7785
5.78019	37.1169
5.77376	37.9398
5.76734	39.0558
5.76093	38.5877
5.75453	38.234
5.74815	38.84
5.74179	38.9151
5.73543	39.0949
5.7291	39.3077
5.72277	39.6678
5.71646	40.0606
5.71017	40.1536
5.70389	39.5226
5.69762	39.2306
5.69136	39.2159
5.68513	39.115
5.6789	39.7406
5.67268	40.2293
5.66648	40.1542
5.6603	40.532
5.65413	40.9672
5.64797	41.3117
5.64182	41.605
5.63569	40.893
5.62957	40.123
5.62347	39.5126
5.61737	38.9382
5.61129	38.0845
5.60522	37.1847
5.59917	36.2499
5.59313	35.0866
5.5871	34.1892
5.58109	33.7498
5.57509	33.2873
5.5691	32.8898
5.56312	32.972
5.55716	33.4979
5.55121	34.551
5.54528	35.9338
5.53935	37.4404
5.53344	38.718
5.52754	39.8678
5.52166	40.7797
5.51578	41.3639
5.50992	41.8275
5.50407	42.381
5.49823	42.7745
5.49241	43.1589
5.4866	43.5981
5.4808	44.2455
5.47501	44.4704
5.46923	44.8073
5.46347	45.2074
5.45772	45.1031
5.45198	45.1208
5.44625	45.3276
5.44054	45.4495
5.43484	45.5296
5.42914	45.8225
5.42347	46.3737
5.4178	46.0899
5.41214	45.5882
5.4065	45.3248
5.40087	45.0608
5.39525	44.8337
5.38964	44.602
5.38404	44.3913
5.37846	44.2438
5.37288	44.1084
5.36732	43.9651
5.36177	43.9028
5.35623	44.1021
5.35071	44.3619
5.34519	44.1347
5.33968	43.8878
5.33419	43.8641
5.32871	43.8232
5.32324	43.8122
5.31778	43.7985
5.31233	43.7452
5.30689	43.7124
5.30147	43.6163
5.29605	43.6556
5.29065	43.671
5.28525	43.4954
5.27987	43.5034
5.2745	43.5134
5.26914	43.4627
5.26379	43.3914
5.25845	43.3244
5.25312	43.2736
5.24781	43.2368
5.2425	43.1304
5.23721	42.9771
5.23192	42.7099
5.22665	42.3871
5.22138	42.0333
5.21613	41.7586
5.21089	41.0915
5.20566	40.0089
5.20044	38.5997
5.19522	36.857
5.19002	35.5649
5.18483	35.4427
5.17965	36.359
5.17448	37.6157
5.16933	38.6993
5.16418	39.5141
5.15904	40.0135
5.15391	40.2972
5.14879	40.4246
5.14368	40.2712
5.13859	39.8985
5.1335	39.4559
5.12842	38.9938
5.12335	38.5
5.1183	37.857
5.11325	37.0196
5.10821	35.9086
5.10318	34.706
5.09817	33.5999
5.09316	32.6314
5.08816	31.6081
5.08317	30.4296
5.07819	29.0024
5.07322	27.3744
5.06826	25.5814
5.06331	23.5474
5.05837	21.1899
5.05344	18.612
5.04852	15.9388
5.04361	13.1897
5.03871	10.5353
5.03382	8.25927
5.02894	6.57228
5.02406	5.59116
5.0192	5.10335
5.01435	4.98177
5.0095	5.07475
5.00467	5.32532
4.99984	5.54067
4.99502	5.51903
4.99021	5.43471
4.98542	5.30177
4.98063	5.20581
4.97585	5.31291
4.97108	5.69925
4.96632	6.24491
4.96156	6.84241
4.95682	7.51549
4.95209	8.07373
4.94736	8.57862
4.94264	9.06479
4.93794	9.40548
4.93324	9.65829
4.92855	9.92481
4.92387	10.3485
4.9192	10.7557
4.91453	10.9697
4.90988	11.1956
4.90524	11.4133
4.9006	11.5219
4.89597	11.4163
4.89135	11.0455
4.88674	10.6014
4.88214	10.0833
4.87755	9.68332
4.87296	9.49182
4.86839	9.63944
4.86382	10.2107
4.85926	10.7373
4.85471	10.9031
4.85017	10.7701
4.84564	10.2995
4.84111	9.75571
4.8366	9.31379
4.83209	8.96998
4.82759	8.65169
4.8231	8.22814
4.81862	7.7667
4.81415	7.35231
4.80968	7.04967
4.80522	6.9119
4.80077	7.02604
4.79633	7.30568
4.7919	7.67198
4.78747	8.01538
4.78306	8.43412
4.77865	8.89905
4.77425	9.29326
4.76986	9.79772
4.76547	10.4036
4.7611	10.9644
4.75673	11.4714
4.75237	12.0305
4.74802	12.5239
4.74367	12.9173
4.73934	13.2184
4.73501	13.4509
4.73069	13.5971
4.72638	13.6572
4.72207	13.7653
4.71777	13.7776
4.71348	13.6994
4.7092	13.5304
4.70493	13.3271
4.70066	13.1748
4.69641	13.0596
4.69216	13.1429
4.68791	13.1711
4.68368	13.1749
4.67945	13.2213
4.67523	13.1505
4.67102	12.9996
4.66682	12.7401
4.66262	12.4835
4.65843	12.2845
4.65425	12.1701
4.65007	12.2849
4.64591	12.5105
4.64175	12.7716
4.6376	12.8756
4.63345	12.8531
4.62932	13.0563
4.62519	13.3963
4.62106	13.9831
4.61695	14.8146
4.61284	15.7691
4.60874	16.8674
4.60465	18.0884
4.60056	19.3002
4.59648	20.4224
4.59241	21.4081
4.58835	22.0517
4.58429	22.3964
4.58024	22.6978
4.5762	22.9495
4.57216	23.0686
4.56814	23.2132
4.56411	23.643
4.5601	24.299
4.55609	25.1867
4.55209	26.1149
4.5481	26.9508
4.54411	27.6899
4.54013	28.4239
4.53616	29.221
4.5322	30.3643
4.52824	31.9657
4.52429	33.727
4.52034	35.4702
4.51641	37.0556
4.51247	38.3989
4.50855	39.5207
4.50463	40.4951
4.50072	41.37
4.49682	42.1742
4.49292	42.9172
4.48903	43.5678
4.48515	44.1164
4.48127	44.6396
4.4774	45.1799
4.47354	45.7336
4.46968	46.241
4.46584	46.6351
4.46199	47.0559
4.45815	47.5914
4.45432	48.0499
4.4505	48.412
4.44668	48.7738
4.44287	49.2575
4.43907	49.744
4.43527	50.1431
4.43148	50.4684
4.4277	50.814
4.42392	51.2039
4.42015	51.5307
4.41638	51.8305
4.41262	52.091
4.40887	52.3361
4.40513	52.5797
4.40139	52.765
4.39765	52.8476
4.39393	52.8755
4.39021	52.8428
4.38649	52.7397
4.38278	52.5485
4.37908	52.4072
4.37539	52.3787
4.3717	52.48
4.36801	52.6492
4.36434	52.7633
4.36067	52.7927
4.357	52.8094
4.35335	52.9607
4.34969	53.2651
4.34605	53.6454
4.34241	54.0128
4.33877	54.3951
4.33514	54.8867
4.33152	55.4237
4.32791	55.8402
4.3243	56.1675
4.32069	56.5305
4.3171	56.8852
4.31351	57.2465
4.30992	57.5674
4.30634	57.851
4.30277	58.1601
4.2992	58.511
4.29564	58.8571
4.29208	59.116
4.28853	59.3231
4.28499	59.6283
4.28145	59.9442
4.27792	60.2461
4.27439	60.4671
4.27087	60.664
4.26735	60.8442
4.26384	61.0215
4.26034	61.1647
4.25684	61.3788
4.25335	61.7692
4.24986	62.2195
4.24638	62.7089
4.24291	63.0756
4.23944	63.3341
4.23598	63.6019
4.23252	63.7716
4.22906	63.9684
4.22562	64.1634
4.22218	64.2902
4.21874	64.2983
4.21531	64.271
4.21189	64.2878
4.20847	64.3119
4.20506	64.3152
4.20165	64.3295
4.19825	64.3898
4.19485	64.5185
4.19146	64.6222
4.18807	64.7416
4.18469	64.8847
4.18132	64.9057
4.17795	64.898
4.17458	64.979
4.17123	65.0729
4.16787	65.0984
4.16453	65.0484
4.16118	65.0776
4.15785	65.1505
4.15451	65.1958
4.15119	65.168
4.14787	65.111
4.14455	65.024
4.14124	64.9248
4.13794	64.8526
4.13464	64.7543
4.13134	64.5849
4.12805	64.4038
4.12477	64.2657
4.12149	64.1757
4.11822	63.93
4.11495	63.6677
4.11168	63.479
4.10843	63.326
4.10517	63.1777
4.10192	62.9298
4.09868	62.6369
4.09545	62.3807
4.09221	62.1635
4.08899	61.9267
4.08576	61.6111
4.08255	61.2441
4.07933	60.8583
4.07613	60.4832
4.07292	60.0726
4.06973	59.7795
4.06654	59.3954
4.06335	58.869
4.06017	58.3166
4.05699	57.7725
4.05382	57.1508
4.05065	56.3971
4.04749	55.5703
4.04433	54.6434
4.04118	53.6257
4.03803	52.7067
4.03489	51.7993
4.03175	50.9415
4.02862	50.1241
4.02549	49.3491
4.02237	48.7355
4.01925	48.2823
4.01614	47.8591
4.01303	47.4436
4.00993	46.8818
4.00683	46.1898
4.00373	45.5293
4.00064	44.9817
3.99756	44.4185
3.99448	43.8575
3.9914	43.3139
3.98833	42.8069
3.98527	42.448
3.98221	42.2099
3.97915	42.0275
3.9761	42.1658
3.97305	42.5532
3.97001	42.8211
3.96697	43.0397
3.96394	43.4251
3.96091	43.9094
3.95789	44.3723
3.95487	44.759
3.95186	45.1795
3.94885	45.814
3.94584	46.5073
3.94284	47.2576
3.93984	47.992
3.93685	48.5738
3.93386	48.789
3.93088	48.8373
3.9279	49.09
3.92493	49.3485
3.92196	49.5778
3.919	49.8377
3.91604	49.9919
3.91308	50.0714
3.91013	50.162
3.90718	50.2634
3.90424	50.3598
3.9013	50.4335
3.89837	50.5087
3.89544	50.5061
3.89252	50.5772
3.8896	50.724
3.88668	50.8071
3.88377	50.7878
3.88086	50.7415
3.87796	50.7861
3.87506	50.8701
3.87217	50.8604
3.86928	50.8167
3.86639	50.922
3.86351	51.0326
3.86064	51.0933
3.85776	51.018
3.8549	50.9961
3.85203	51.125
3.84917	51.1793
3.84631	51.1789
3.84346	51.228
3.84062	51.4025
3.83777	51.6765
3.83494	52.0502
3.8321	52.5242
3.82927	53.0188
3.82644	53.5076
3.82362	54.0308
3.82081	54.5326
3.81799	55.0928
3.81518	55.6714
3.81238	56.1988
3.80958	56.6922
3.80678	57.3501
3.80399	58.1242
3.8012	58.8529
3.79841	59.6121
3.79563	60.4805
3.79286	61.1735
3.79008	61.6443
3.78731	62.0606
3.78455	62.3972
3.78179	62.5822
3.77903	62.7017
3.77628	62.8431
3.77353	62.9798
3.77079	62.9811
3.76805	62.953
3.76531	62.9523
3.76258	62.9912
3.75985	62.9993
3.75713	62.9629
3.7544	62.9577
3.75169	62.9917
3.74898	62.9685
3.74627	62.9634
3.74356	62.94
3.74086	62.9198
3.73816	62.8571
3.73547	62.8225
3.73278	62.8896
3.7301	62.996
3.72741	63.0042
3.72474	62.9328
3.72206	62.8873
3.71939	62.9417
3.71673	62.9664
3.71406	62.9416
3.71141	62.8881
3.70875	62.8364
3.7061	62.8591
3.70345	62.86
3.70081	62.7793
3.69817	62.7389
3.69553	62.8034
3.6929	62.8194
3.69027	62.7743
3.68765	62.7199
3.68503	62.6866
3.68241	62.7077
3.6798	62.679
3.67719	62.6131
3.67458	62.5654
3.67198	62.5393
3.66938	62.5459
3.66678	62.4942
3.66419	62.4732
3.66161	62.4153
3.65902	62.4093
3.65644	62.4055
3.65387	62.3505
3.65129	62.3093
3.64872	62.2865
3.64616	62.2387
3.64359	62.2384
3.64103	62.1993
3.63848	62.0982
3.63593	62.0888
3.63338	62.0775
3.63084	62.0444
3.6283	61.9618
3.62576	61.8585
3.62322	61.8523
3.62069	61.8926
3.61817	61.7809
3.61564	61.6481
3.61312	61.5669
3.61061	61.5232
3.6081	61.4726
3.60559	61.3517
3.60308	61.2192
3.60058	61.1211
3.59808	60.9196
3.59558	60.7252
3.59309	60.5285
3.59061	60.2302
3.58812	60.0064
3.58564	59.786
3.58316	59.508
3.58069	59.234
3.57822	58.8983
3.57575	58.4929
3.57328	58.2252
3.57082	58.1749
3.56836	58.2241
3.56591	58.1848
3.56346	58.2097
3.56101	58.3039
3.55857	58.2543
3.55613	58.0427
3.55369	57.8296
3.55126	57.6295
3.54883	57.341
3.5464	56.9737
3.54397	56.5671
3.54155	56.2255
3.53914	55.7816
3.53672	55.252
3.53431	54.6096
3.5319	53.8127
3.5295	52.9308
3.5271	52.0639
3.5247	51.1521
3.52231	50.1896
3.51991	49.3172
3.51753	48.5829
3.51514	48.021
3.51276	47.5734
3.51038	47.1756
3.50801	46.8984
3.50563	46.5928
3.50327	46.2163
3.5009	45.8871
3.49854	45.5578
3.49618	45.2366
3.49382	44.9751
3.49147	44.784
3.48912	44.4473
3.48677	44.14
3.48443	43.8357
3.48209	43.4732
3.47975	43.1375
3.47742	42.9493
3.47509	42.9951
3.47276	43.3526
3.47044	43.9682
3.46812	44.7157
3.4658	45.3571
3.46348	45.8293
3.46117	46.1577
3.45886	46.4124
3.45656	46.6301
3.45425	46.8341
3.45195	47.0498
3.44966	47.1243
3.44736	47.1779
3.44507	47.3078
3.44279	47.3426
3.4405	47.311
3.43822	47.4246
3.43594	47.4285
3.43367	47.3618
3.43139	47.3088
3.42912	47.2978
3.42686	47.2258
3.42459	47.0614
3.42233	46.8755
3.42007	46.7668
3.41782	46.6593
3.41557	46.5345
3.41332	46.4805
3.41108	46.4745
3.40883	46.4772
3.40659	46.4677
3.40435	46.3914
3.40212	46.2709
3.39989	46.0932
3.39766	46.0016
3.39544	45.9575
3.39322	45.6499
3.391	45.3449
3.38878	45.1159
3.38657	44.9094
3.38436	44.8252
3.38215	44.8128
3.37994	44.7696
3.37774	44.7018
3.37554	44.677
3.37335	44.6695
3.37115	44.7126
3.36896	44.7255
3.36678	44.7204
3.36459	44.7486
3.36241	44.7591
3.36023	44.5598
3.35805	44.3371
3.35588	44.2259
3.35371	44.1786
3.35154	44.1991
3.34938	44.3771
3.34721	44.7672
3.34505	45.4402
3.3429	46.4639
3.34074	47.6341
3.33859	48.8016
3.33644	49.7786
3.3343	50.576
3.33215	51.1273
3.33001	51.5115
3.32788	51.7412
3.32574	51.9222
3.32361	52.0467
3.32148	52.0904
3.31936	52.1678
3.31723	52.2865
3.31511	52.2514
3.31299	52.241
3.31088	52.274
3.30876	52.2777
3.30665	52.3134
3.30455	52.3034
3.30244	52.1261
3.30034	52.042
3.29824	52.0927
3.29614	52.1341
3.29405	52.0229
3.29196	51.968
3.28987	52.0361
3.28778	52.1135
3.2857	52.1942
3.28362	52.2327
3.28154	52.3108
3.27946	52.4526
3.27739	52.5999
3.27532	52.6062
3.27325	52.6118
3.27119	52.6608
3.26913	52.6516
3.26707	52.6227
3.26501	52.6309
3.26295	52.6706
3.2609	52.6388
3.25885	52.5816
3.2568	52.5533
3.25476	52.4047
3.25272	52.3534
3.25068	52.4174
3.24864	52.3989
3.24661	52.3498
3.24458	52.2008
3.24255	52.0491
3.24052	51.9926
3.2385	51.9255
3.23648	51.8073
3.23446	51.758
3.23244	51.7912
3.23043	51.7597
3.22841	51.5997
3.2264	51.5778
3.2244	51.5984
3.22239	51.5502
3.22039	51.4529
3.21839	51.4094
3.2164	51.2976
3.2144	51.1884
3.21241	51.1734
3.21042	51.137
3.20844	51.1064
3.20645	50.9833
3.20447	50.9342
3.20249	50.983
3.20051	50.88
3.19854	50.8073
3.19657	50.7905
3.1946	50.7315
3.19263	50.6282
3.19067	50.5709
3.1887	50.5004
3.18674	50.4291
3.18479	50.4186
3.18283	50.3945
3.18088	50.3526
3.17893	50.2935
3.17698	50.1785
3.17504	50.042
3.17309	49.8857
3.17115	49.7742
3.16921	49.6315
3.16728	49.6079
3.16534	49.5493
3.16341	49.4147
3.16148	49.2651
3.15956	49.1903
3.15763	49.0418
3.15571	48.8973
3.15379	48.8329
3.15187	48.9327
3.14996	48.9617
3.14805	48.7852
3.14614	48.6841
3.14423	48.6488
3.14232	48.5262
3.14042	48.4232
3.13852	48.536
3.13662	48.5504
3.13472	48.4203
3.13283	48.3619
3.13094	48.3328
3.12905	48.2918
3.12716	48.2453
3.12528	48.145
3.12339	48.0296
3.12151	47.9735
3.11964	47.9092
3.11776	47.7661
3.11589	47.6655
3.11401	47.63
3.11214	47.5556
3.11028	47.5155
3.10841	47.4208
3.10655	47.4213
3.10469	47.4526
3.10283	47.3742
3.10098	47.2552
3.09912	47.3649
3.09727	47.4129
3.09542	47.3419
3.09358	47.3368
3.09173	47.3504
3.08989	47.3799
3.08805	47.3622
3.08621	47.2767
3.08437	47.186
3.08254	47.2859
3.08071	47.3566
3.07888	47.1696
3.07705	47.1379
3.07523	47.195
3.0734	47.1191
3.07158	47.0611
3.06977	47.0134
3.06795	46.9612
3.06613	46.8613
3.06432	46.7842
3.06251	46.7933
3.0607	46.7858
3.0589	46.6735
3.0571	46.5692
3.05529	46.5639
3.05349	46.4832
3.0517	46.2707
3.0499	46.1387
3.04811	46.2858
3.04632	46.3582
3.04453	46.2113
3.04274	46.1544
3.04096	46.1198
3.03918	45.9509
3.0374	45.8586
3.03562	45.7514
3.03384	45.6451
3.03207	45.5442
3.03029	45.4946
3.02852	45.3759
3.02676	45.2054
3.02499	45.1303
3.02323	44.9661
3.02146	44.815
3.0197	44.7972
3.01795	44.7094
3.01619	44.5417
3.01444	44.4196
3.01269	44.2072
3.01094	44.0701
3.00919	44.0556
3.00744	43.9854
3.0057	43.6789
3.00396	43.595
3.00222	43.6524
3.00048	43.606
2.99875	43.4717
2.99701	43.3495
2.99528	43.2677
2.99355	43.066
2.99183	42.8263
2.9901	42.5234
2.98838	42.1083
2.98666	41.8832
2.98494	41.7195
2.98322	41.5392
2.9815	41.3152
2.97979	41.1185
2.97808	40.8713
2.97637	40.6797
2.97466	40.5082
2.97295	40.1968
2.97125	40.1421
2.96955	39.9501
2.96785	39.7019
2.96615	39.4618
2.96446	39.2322
2.96276	39.2325
2.96107	39.2104
2.95938	39.1077
2.95769	38.8766
2.95601	38.7835
2.95432	38.8222
2.95264	38.8367
2.95096	38.9053
2.94928	39.0637
2.9476	39.1101
2.94593	39.0611
2.94425	39.2261
2.94258	39.3039
2.94092	39.1587
2.93925	39.348
2.93758	39.6538
2.93592	39.8289
2.93426	39.8003
2.9326	39.746
2.93094	39.8548
2.92928	39.9793
2.92763	39.9745
2.92598	39.9861
2.92433	39.9599
2.92268	39.9232
2.92103	39.8411
2.91939	39.6805
2.91775	39.5307
2.9161	39.3926
2.91447	39.2888
2.91283	39.0343
2.91119	38.8026
2.90956	38.6194
2.90793	38.4523
2.9063	38.3355
2.90467	38.0857
2.90304	37.7739
2.90142	37.5403
2.89979	37.3419
2.89817	37.2225
2.89656	36.9214
2.89494	36.4102
2.89332	35.8592
2.89171	35.5088
2.8901	35.3325
2.88849	35.1237
2.88688	34.8245
2.88527	34.4254
2.88367	33.9792
2.88206	33.5487
2.88046	33.0774
2.87886	32.6339
2.87727	32.1306
2.87567	31.6685
2.87408	31.2255
2.87248	30.6726
2.87089	30.0206
2.8693	29.5479
2.86772	29.0899
2.86613	28.6179
2.86455	28.1846
2.86297	27.8751
2.86139	27.639
2.85981	27.4581
2.85823	27.2776
2.85666	27.0424
2.85508	26.6331
2.85351	26.1103
2.85194	25.452
2.85038	24.4499
2.84881	23.1454
2.84724	21.6739
2.84568	20.0853
2.84412	18.3547
2.84256	16.5867
2.841	14.9749
2.83945	13.7787
2.83789	12.8302
2.83634	12.139
2.83479	11.4626
2.83324	10.6892
2.83169	10.045
2.83015	9.56462
2.82861	9.07517
2.82706	8.82187
2.82552	8.93053
2.82398	9.04905
2.82245	9.27878
2.82091	9.69355
2.81938	10.1319
2.81784	10.7397
2.81631	11.2086
2.81479	11.6892
2.81326	12.4507
2.81173	13.4057
2.81021	14.4311
2.80869	15.3244
2.80716	16.2545
2.80565	17.326
2.80413	18.0159
2.80261	18.171
2.8011	18.0942
2.79959	18.5887
2.79808	19.842
2.79657	21.4427
2.79506	22.9515
2.79355	24.309
2.79205	25.6533
2.79055	27.3028
2.78904	29.306
2.78754	31.3084
2.78605	32.707
2.78455	33.6961
2.78306	34.9563
2.78156	36.1735
2.78007	37.0807
2.77858	37.94
2.77709	38.7559
2.77561	39.4454
2.77412	40.0592
2.77264	40.7681
2.77116	41.484
2.76968	41.818
2.7682	42.2383
2.76672	42.4403
2.76524	42.6187
2.76377	43.2841
2.7623	43.5868
2.76083	43.337
2.75936	43.2403
2.75789	43.4913
2.75642	44.592
2.75496	45.0782
2.7535	44.4486
2.75203	44.6165
2.75057	44.9875
2.74912	45.3102
2.74766	45.5938
2.7462	45.847
2.74475	46.0886
2.7433	46.3679
2.74185	47.1724
2.7404	48.1055
2.73895	48.1162
2.7375	47.5242
2.73606	47.5331
2.73462	47.6579
2.73318	47.0537
2.73174	47.0448
2.7303	47.3572
2.72886	47.3998
2.72742	47.2232
2.72599	46.8129
2.72456	45.4628
2.72313	42.5653
2.7217	41.4557
2.72027	41.7882
2.71884	41.6871
2.71742	42.7802
2.71599	44.6884
2.71457	46.9882
2.71315	49.5365
2.71173	52.9082
2.71032	55.798
2.7089	57.2301
2.70748	58.1374
2.70607	59.0118
2.70466	59.8877
2.70325	60.6885
2.70184	61.5383
2.70043	61.7874
2.69903	61.6712
2.69762	61.9202
2.69622	62.5334
2.69482	63.1338
2.69342	63.037
2.69202	62.1247
2.69062	61.7183
2.68923	61.7267
2.68783	61.9605
2.68644	62.0435
2.68505	61.7952
2.68366	61.7656
2.68227	61.5896
2.68089	61.6851
2.6795	62.2603
2.67812	62.3281
2.67673	62.5919
2.67535	62.0759
2.67397	61.4978
2.6726	61.6607
2.67122	63.2894
2.66984	63.5453
2.66847	62.5284
2.6671	63.3066
2.66572	63.4968
2.66435	62.7263
2.66299	61.6505
2.66162	61.5678
2.66025	61.6972
2.65889	61.5174
2.65753	60.9504
2.65616	61.1312
2.65481	61.1871
2.65345	61.493
2.65209	61.5793
2.65073	61.2274
2.64938	61.2726
2.64803	61.6288
2.64667	62.2282
2.64532	62.6475
2.64397	62.7453
2.64263	63.1499
2.64128	63.4611
2.63994	63.6827
2.63859	63.9576
2.63725	64.2257
2.63591	64.5459
2.63457	65.2634
2.63323	65.5703
2.6319	66.1063
2.63056	67.143
2.62923	66.603
2.62789	66.6558
2.62656	67.4751
2.62523	66.8536
2.6239	66.5827
2.62258	66.8398
2.62125	67.9213
2.61993	68.1904
2.6186	67.7502
2.61728	68.4625
2.61596	67.8835
2.61464	66.8993
2.61332	66.8964
2.61201	66.5619
2.61069	66.4199
2.60938	66.2618
2.60807	66.0513
2.60675	66.4459
2.60544	66.6261
2.60414	65.7121
2.60283	65.1081
2.60152	65.0057
2.60022	64.7645
2.59891	64.7391
2.59761	65.3748
2.59631	67.0843
2.59501	69.1284
2.59371	68.1732
2.59242	66.9728
2.59112	67.2634
2.58983	68.0234
2.58853	68.8876
2.58724	69.7182
2.58595	69.9789
2.58466	71.0515
2.58338	71.5494
2.58209	71.3565
2.5808	71.8126
2.57952	71.7603
2.57824	72.3054
2.57695	73.0489
2.57567	73.0817
2.5744	73.6651
2.57312	74.3054
2.57184	73.8919
2.57057	74.5007
2.56929	75.2048
2.56802	75.0439
2.56675	75.0622
2.56548	75.7496
2.56421	76.567
2.56294	76.9041
2.56168	77.144
2.56041	76.9077
2.55915	76.457
2.55789	76.3066
2.55662	76.3511
2.55536	76.4454
2.5541	76.6743
2.55285	76.9702
2.55159	76.7846
2.55034	76.4596
2.54908	76.1195
2.54783	76.0493
2.54658	75.8935
2.54533	75.8097
2.54408	75.8864
2.54283	75.777
2.54159	75.4502
2.54034	75.3737
2.5391	75.403
2.53785	75.4881
2.53661	75.646
2.53537	75.5192
2.53413	75.5165
2.53289	75.8703
2.53166	76.0206
2.53042	76.0679
2.52919	76.1262
2.52795	76.2219
2.52672	76.4148
2.52549	76.6797
2.52426	76.8435
2.52303	77.0009
2.52181	77.1776
2.52058	77.4323
2.51936	77.5452
2.51813	77.5159
2.51691	77.5131
2.51569	77.63
2.51447	77.8242
2.51325	77.8543
2.51203	77.8351
2.51082	77.9668
2.5096	78.1285
2.50839	78.2487
2.50717	78.2708
2.50596	78.2784
2.50475	78.2896
2.50354	78.2793
2.50233	78.3914
2.50113	78.5508
2.49992	78.532
2.49872	78.5224
2.49751	78.6721
2.49631	78.7097
2.49511	78.7726
2.49391	78.8331
2.49271	78.8962
2.49151	78.9525
2.49031	78.9807
2.48912	79.1403
2.48792	79.2071
2.48673	79.1335
2.48554	79.1432
2.48435	79.3111
2.48316	79.4649
2.48197	79.5865
2.48078	79.717
2.4796	79.8278
2.47841	79.8915
2.47723	79.8572
2.47604	79.8544
2.47486	79.9081
2.47368	79.9336
2.4725	80.0167
2.47132	80.1319
2.47014	80.229
2.46897	80.2123
2.46779	80.1304
2.46662	80.1688
2.46545	80.3708
2.46427	80.6246
2.4631	80.7099
2.46193	80.7009
2.46077	80.8095
2.4596	80.9488
2.45843	81.1411
2.45727	81.1791
2.4561	81.1451
2.45494	81.2901
2.45378	81.3611
2.45262	81.3611
2.45146	81.4616
2.4503	81.5409
2.44914	81.5559
2.44799	81.6419
2.44683	81.7096
2.44568	81.6864
2.44452	81.6361
2.44337	81.7777
2.44222	81.852
2.44107	81.8397
2.43992	81.7744
2.43877	81.709
2.43763	81.6825
2.43648	81.8671
2.43534	82.0124
2.43419	81.9481
2.43305	81.9289
2.43191	81.9871
2.43077	82.0357
2.42963	82.0996
2.42849	82.1796
2.42736	82.1935
2.42622	82.1589
2.42509	82.319
2.42395	82.3639
2.42282	82.3658
2.42169	82.3756
2.42056	82.4564
2.41943	82.6133
2.4183	82.7126
2.41717	82.7879
2.41605	82.7563
2.41492	82.7637
2.4138	82.7385
2.41267	82.7663
2.41155	82.852
2.41043	82.8007
2.40931	82.7515
2.40819	82.796
2.40707	82.8284
2.40595	82.859
2.40484	82.8138
2.40372	82.6993
2.40261	82.5223
2.4015	82.4704
2.40039	82.491
2.39928	82.4003
2.39817	82.33
2.39706	82.1872
2.39595	82.0526
2.39484	81.9528
2.39374	81.9898
2.39263	81.9665
2.39153	81.9934
2.39043	82.0988
2.38932	82.2259
2.38822	82.2088
2.38712	82.1497
2.38603	82.2697
2.38493	82.3862
2.38383	82.3544
2.38274	82.3449
2.38164	82.4394
2.38055	82.5368
2.37946	82.5614
2.37836	82.6724
2.37727	82.7301
2.37618	82.8441
2.3751	82.9283
2.37401	82.912
2.37292	82.8654
2.37184	82.8881
2.37075	82.9363
2.36967	82.9494
2.36859	82.8888
2.3675	82.9227
2.36642	82.9739
2.36534	83.0119
2.36427	82.9491
2.36319	82.9074
2.36211	82.9715
2.36104	82.8652
2.35996	82.6608
2.35889	82.5644
2.35781	82.3996
2.35674	82.2179
2.35567	82.1324
2.3546	82.0794
2.35353	82.0199
2.35247	81.9988
2.3514	81.9437
2.35033	81.8544
2.34927	81.8619
2.3482	81.8658
2.34714	81.8198
2.34608	81.7161
2.34502	81.6254
2.34396	81.6729
2.3429	81.6391
2.34184	81.4236
2.34078	81.3573
2.33973	81.3631
2.33867	81.3302
2.33762	81.3642
2.33656	81.292
2.33551	81.2632
2.33446	81.2192
2.33341	81.1953
2.33236	81.3196
2.33131	81.333
2.33026	81.2362
2.32922	81.1863
2.32817	81.0873
2.32712	80.9557
2.32608	80.7577
2.32504	80.6576
2.324	80.6294
2.32295	80.5986
2.32191	80.3743
2.32087	80.2318
2.31984	80.0375
2.3188	79.7565
2.31776	79.5785
2.31673	79.3958
2.31569	79.1415
2.31466	78.8448
2.31362	78.7868
2.31259	78.9508
2.31156	79.2511
2.31053	79.5387
2.3095	79.813
2.30847	80.1388
2.30745	80.3174
2.30642	80.4226
2.3054	80.5639
2.30437	80.872
2.30335	81.1224
2.30232	81.2901
2.3013	81.2811
2.30028	81.3221
2.29926	81.4356
2.29824	81.4591
2.29722	81.3945
2.29621	81.3515
2.29519	81.4182
2.29417	81.3521
2.29316	81.2037
2.29215	81.2142
2.29113	81.2899
2.29012	81.333
2.28911	81.4981
2.2881	81.8123
2.28709	82.0816
2.28608	82.2599
2.28507	82.52
2.28407	82.6917
2.28306	82.7907
2.28206	82.8981
2.28105	83.1015
2.28005	83.2557
2.27905	83.3517
2.27805	83.4289
2.27705	83.6137
2.27605	83.7298
2.27505	83.8345
2.27405	83.8197
2.27305	83.8147
2.27206	84.0235
2.27106	84.0998
2.27007	84.0874
2.26907	84.1374
2.26808	84.2475
2.26709	84.29
2.2661	84.3967
2.26511	84.4745
2.26412	84.5103
2.26313	84.5493
2.26214	84.652
2.26116	84.742
2.26017	84.6909
2.25919	84.5856
2.2582	84.6569
2.25722	84.8203
2.25624	84.8747
2.25526	84.7711
2.25428	84.651
2.2533	84.7341
2.25232	84.8426
2.25134	84.8973
2.25036	84.9156
2.24939	84.8845
2.24841	84.8448
2.24744	84.9275
2.24646	84.9889
2.24549	85.074
2.24452	85.0264
2.24355	84.9017
2.24257	84.9982
2.24161	85.1968
2.24064	85.2588
2.23967	85.154
2.2387	85.1317
2.23774	85.0191
2.23677	85.0474
2.23581	85.1563
2.23484	85.0831
2.23388	84.9883
2.23292	84.9919
2.23196	84.9746
2.231	85.0853
2.23004	85.1367
2.22908	85.1446
2.22812	85.1224
2.22716	85.1036
2.22621	85.2627
2.22525	85.3134
2.2243	85.1618
2.22334	85.1551
2.22239	85.2928
2.22144	85.2045
2.22049	85.1577
2.21953	85.1876
2.21859	85.2332
2.21764	85.3527
2.21669	85.3415
2.21574	85.2889
2.21479	85.3308
2.21385	85.3265
2.2129	85.2441
2.21196	85.1493
2.21102	85.2028
2.21007	85.3498
2.20913	85.2721
2.20819	85.3489
2.20725	85.4049
2.20631	85.4624
2.20537	85.458
2.20444	85.4056
2.2035	85.5013
2.20256	85.4718
2.20163	85.3916
2.20069	85.3414
2.19976	85.3048
2.19883	85.3887
2.19789	85.4691
2.19696	85.357
2.19603	85.3152
2.1951	85.3515
2.19417	85.263
2.19325	85.2247
2.19232	85.2408
2.19139	85.3216
2.19047	85.4097
2.18954	85.292
2.18862	85.2062
2.18769	85.2853
2.18677	85.2282
2.18585	85.0244
2.18493	84.9749
2.18401	85.0309
2.18309	85.0809
2.18217	85.1088
2.18125	85.0234
2.18033	84.9973
2.17942	84.9939
2.1785	85.1224
2.17759	85.1854
2.17667	85.0271
2.17576	84.8906
2.17485	85.0495
2.17393	85.0162
2.17302	84.8238
2.17211	84.804
2.1712	84.7474
2.17029	84.7194
2.16939	84.8318
2.16848	84.9168
2.16757	84.7171
2.16667	84.5106
2.16576	84.5388
2.16486	84.6917
2.16395	84.7038
2.16305	84.5459
2.16215	84.4309
2.16125	84.4339
2.16035	84.5761
2.15945	84.5357
2.15855	84.3109
2.15765	84.3207
2.15675	84.4919
2.15586	84.4774
2.15496	84.3958
2.15406	84.4704
2.15317	84.635
2.15228	84.5811
2.15138	84.5394
2.15049	84.5641
2.1496	84.6981
2.14871	84.7806
2.14782	84.6588
2.14693	84.4785
2.14604	84.5331
2.14515	84.6354
2.14427	84.7527
2.14338	84.7755
2.14249	84.9664
2.14161	85.1028
2.14072	85.1391
2.13984	85.0419
2.13896	85.1595
2.13808	85.2939
2.13719	85.2207
2.13631	85.3057
2.13543	85.4465
2.13455	85.3466
2.13368	85.2805
2.1328	85.2637
2.13192	85.2547
2.13105	85.1487
2.13017	85.1996
2.1293	85.2868
2.12842	85.3933
2.12755	85.4397
2.12668	85.4613
2.1258	85.582
2.12493	85.5224
2.12406	85.4992
2.12319	85.537
2.12232	85.422
2.12145	85.404
2.12059	85.3766
2.11972	85.4562
2.11885	85.6174
2.11799	85.6926
2.11712	85.7449
2.11626	85.7403
2.1154	85.6185
2.11453	85.4921
2.11367	85.2562
2.11281	85.2474
2.11195	85.5871
2.11109	85.7807
2.11023	85.5293
2.10937	85.2718
2.10851	85.2901
2.10766	85.4532
2.1068	85.5186
2.10594	85.577
2.10509	85.7043
2.10423	85.6362
2.10338	85.5705
2.10253	85.6647
2.10168	85.5983
2.10082	85.3534
2.09997	85.4287
2.09912	85.5977
2.09827	85.5011
2.09742	85.4194
2.09658	85.5068
2.09573	85.6635
2.09488	85.6556
2.09404	85.68
2.09319	85.646
2.09235	85.6538
2.0915	85.643
2.09066	85.6833
2.08982	85.8289
2.08897	85.9623
2.08813	85.6672
2.08729	85.2756
2.08645	85.5585
2.08561	85.8998
2.08477	85.7441
2.08394	85.5569
2.0831	85.5705
2.08226	85.556
2.08143	85.6362
2.08059	85.558
2.07976	85.648
2.07892	85.7943
2.07809	85.7415
2.07726	85.4649
2.07643	85.3677
2.07559	85.6072
2.07476	85.8819
2.07393	85.8501
2.0731	85.464
2.07228	85.2143
2.07145	85.1704
2.07062	85.4757
2.06979	85.8894
2.06897	86.1287
2.06814	85.8246
2.06732	85.7097
2.06649	85.7361
2.06567	85.3774
2.06485	85.1539
2.06403	85.2406
2.0632	85.4608
2.06238	85.4951
2.06156	85.4768
2.06074	85.481
2.05993	85.5846
2.05911	85.5754
2.05829	85.528
2.05747	85.413
2.05666	85.4165
2.05584	85.4631
2.05503	85.3002
2.05421	85.1166
2.0534	84.9942
2.05259	85.0821
2.05177	85.2637
2.05096	85.2121
2.05015	85.123
2.04934	85.0463
2.04853	85.1416
2.04772	85.3244
2.04691	85.2755
2.04611	85.2792
2.0453	85.3528
2.04449	85.2999
2.04369	85.1212
2.04288	84.9532
2.04208	85.0126
2.04127	85.0315
2.04047	84.9374
2.03967	84.9149
2.03886	84.956
2.03806	84.9775
2.03726	84.9337
2.03646	84.7171
2.03566	84.7346
2.03486	84.9114
2.03407	84.7575
2.03327	84.9161
2.03247	84.9677
2.03167	84.7197
2.03088	84.5448
2.03008	84.6252
2.02929	84.6912
2.0285	84.5158
2.0277	84.4218
2.02691	84.4305
2.02612	84.4218
2.02533	84.2974
2.02453	84.0708
2.02374	83.9888
2.02295	84.1224
2.02217	84.3191
2.02138	84.2438
2.02059	84.0694
2.0198	83.9601
2.01902	83.9042
2.01823	83.8281
2.01744	83.6825
2.01666	83.6607
2.01588	83.5414
2.01509	83.3333
2.01431	83.4236
2.01353	83.5959
2.01275	83.5086
2.01196	83.2874
2.01118	83.241
2.0104	83.1653
2.00963	83.1001
2.00885	82.9166
2.00807	82.6437
2.00729	82.4596
2.00651	82.4156
2.00574	82.3027
2.00496	82.2202
2.00419	82.0834
2.00341	81.788
2.00264	81.5313
2.00187	81.2631
2.00109	81.0039
2.00032	80.9694
