Name: Strontianite SrCO_3
Type: Mineral
Class: Carbonates
Subclass: 
Particle Size: 45-125um
Sample No.: C-1A
Owner: JPL
Wavelength range: IR
Origin: Germany, Westphalia, Hamm
Collected by Ward's
Description: 





Measurement: Hemispherical reflectance
First Column: X
Second Column: Y
X Units:  Wavelength (micrometers)
Y Units:  Reflectance (percent)
First X Value: 15.3853
Last X Value: 2.00032
Number of X Values: 2256
Additional information: c01aa.txt
 
15.3853	45.0309
15.3397	45.2116
15.2945	45.5139
15.2495	45.6363
15.2048	45.2886
15.1603	45.1674
15.1161	45.1938
15.0722	45.0171
15.0285	44.59
14.9851	44.3034
14.9419	44.056
14.8989	43.3071
14.8563	42.7144
14.8138	42.0583
14.7716	40.816
14.7296	39.2076
14.6879	36.9805
14.6464	33.2881
14.6052	28.7177
14.5641	24.0397
14.5233	19.9758
14.4828	15.9457
14.4424	10.3635
14.4023	6.22358
14.3624	4.61643
14.3227	3.98432
14.2833	3.39916
14.244	3.04981
14.205	3.44359
14.1662	3.86343
14.1276	3.40187
14.0892	3.21869
14.051	4.3268
14.0131	6.36653
13.9753	11.9852
13.9377	20.4155
13.9004	26.4844
13.8632	30.6043
13.8262	33.6929
13.7895	36.2935
13.7529	38.6147
13.7165	40.4172
13.6803	41.8484
13.6443	43.0388
13.6085	43.9392
13.5729	44.6417
13.5374	45.2241
13.5022	45.9185
13.4671	46.4505
13.4322	46.8143
13.3975	47.1266
13.363	47.475
13.3286	47.6849
13.2944	47.8471
13.2604	48.0203
13.2266	48.0561
13.193	47.9601
13.1595	47.8992
13.1262	47.5877
13.093	47.1007
13.06	46.6489
13.0272	46.0184
12.9946	45.0276
12.9621	43.9334
12.9298	42.9242
12.8976	41.978
12.8656	40.824
12.8337	39.8378
12.8021	39.1838
12.7705	38.3946
12.7391	37.4307
12.7079	36.3692
12.6769	35.3194
12.6459	34.3785
12.6152	33.3325
12.5845	32.4969
12.5541	31.758
12.5238	30.8786
12.4936	30.1057
12.4635	29.689
12.4337	29.5369
12.4039	29.578
12.3743	29.6312
12.3448	29.5518
12.3155	29.376
12.2863	29.3168
12.2573	29.3739
12.2284	29.2304
12.1996	28.8608
12.171	28.4842
12.1425	27.9546
12.1141	27.0061
12.0859	25.6896
12.0578	24.3653
12.0298	23.0088
12.0019	21.2155
11.9742	18.4958
11.9466	15.3091
11.9192	12.7096
11.8918	10.3076
11.8646	8.74743
11.8375	8.80558
11.8106	9.77001
11.7837	10.3875
11.757	11.1657
11.7304	12.9333
11.7039	15.9245
11.6776	18.748
11.6513	20.5573
11.6252	22.1132
11.5992	23.6134
11.5733	25.0409
11.5475	26.3125
11.5219	26.6538
11.4963	24.6733
11.4709	20.0168
11.4455	15.3049
11.4203	12.623
11.3952	11.5864
11.3702	11.1058
11.3454	10.9304
11.3206	11.1285
11.2959	11.3816
11.2714	11.5455
11.2469	11.7053
11.2226	11.8743
11.1983	11.7359
11.1742	10.8442
11.1502	8.72884
11.1263	7.1197
11.1024	9.29254
11.0787	13.3972
11.0551	15.9996
11.0316	17.1266
11.0081	17.7051
10.9848	18.0095
10.9616	18.3308
10.9385	18.841
10.9154	19.218
10.8925	19.5788
10.8697	19.9799
10.8469	20.3995
10.8243	20.5701
10.8017	20.5917
10.7793	20.5868
10.7569	20.4717
10.7346	20.2844
10.7125	20.1885
10.6904	20.041
10.6684	20.0025
10.6465	20.1496
10.6247	20.392
10.6029	20.6732
10.5813	21.0656
10.5597	21.4888
10.5383	21.956
10.5169	22.3847
10.4956	22.7048
10.4744	22.9836
10.4533	23.1058
10.4323	23.0787
10.4113	23.0278
10.3904	22.9965
10.3697	23.1007
10.349	23.408
10.3284	23.9017
10.3078	24.4884
10.2874	25.2084
10.267	25.8768
10.2467	26.622
10.2265	27.4063
10.2064	28.0695
10.1863	28.7338
10.1663	29.3737
10.1464	29.8946
10.1266	30.31
10.1069	30.6346
10.0872	30.5841
10.0676	30.4847
10.0481	30.2818
10.0287	29.8801
10.0093	29.3487
9.99005	28.8742
9.97084	28.4163
9.95169	27.9316
9.93263	27.6934
9.91364	27.7855
9.89472	27.915
9.87587	27.8075
9.8571	27.6825
9.83839	27.488
9.81976	27.1164
9.80119	26.7845
9.78271	26.4533
9.76428	26.0904
9.74592	25.6935
9.72764	25.3682
9.70943	25.0684
9.69128	24.6814
9.6732	24.3013
9.65518	23.8606
9.63724	23.4015
9.61935	23.2076
9.60155	22.9939
9.5838	22.6456
9.56611	22.0621
9.5485	20.9939
9.53094	19.762
9.51345	19.7669
9.49604	20.569
9.47867	20.6489
9.46137	20.1132
9.44414	19.1577
9.42697	18.1952
9.40986	16.7773
9.39281	14.1248
9.37583	10.2183
9.35891	6.69462
9.34204	4.58327
9.32524	4.0639
9.3085	5.56773
9.29182	9.83376
9.27519	14.5862
9.25863	17.3485
9.24213	18.8348
9.22568	19.9002
9.2093	20.7657
9.19297	21.3995
9.17669	21.8976
9.16048	22.2334
9.14433	22.3594
9.12823	22.3295
9.11218	22.2218
9.0962	22.0664
9.08027	21.8894
9.06439	21.5996
9.04858	21.2752
9.03281	20.9505
9.0171	20.5589
9.00145	20.0796
8.98585	19.537
8.9703	19.0786
8.9548	18.6665
8.93937	18.0591
8.92398	17.3984
8.90865	16.8852
8.89337	16.3521
8.87814	15.6421
8.86296	14.952
8.84784	14.2471
8.83277	13.591
8.81774	13.0554
8.80277	12.5161
8.78786	11.9337
8.77298	11.295
8.75816	10.7097
8.7434	10.2492
8.72868	9.96703
8.714	9.68563
8.69938	9.3238
8.68481	9.01061
8.67029	8.91492
8.65581	8.79776
8.64139	8.63612
8.62701	8.51306
8.61268	8.50916
8.5984	8.66179
8.58416	8.85683
8.56997	9.1612
8.55583	9.52862
8.54174	9.79811
8.52769	9.90585
8.51368	9.95009
8.49973	10.061
8.48582	10.2666
8.47195	10.3817
8.45813	10.2942
8.44436	10.124
8.43062	9.95549
8.41693	9.75187
8.4033	9.60863
8.3897	9.44137
8.37614	9.33569
8.36264	9.28652
8.34917	9.37634
8.33574	9.54382
8.32236	9.84533
8.30903	10.3729
8.29573	10.9199
8.28248	11.35
8.26927	11.5411
8.2561	11.525
8.24298	11.4465
8.2299	11.294
8.21685	11.0647
8.20385	10.8385
8.19089	10.5772
8.17797	10.3608
8.16509	10.3634
8.15225	10.4594
8.13946	10.3994
8.1267	10.1338
8.11398	9.94497
8.10131	9.84681
8.08867	9.63723
8.07606	9.41502
8.0635	9.16609
8.05099	8.93283
8.0385	8.53191
8.02606	8.17582
8.01366	7.93291
8.00129	7.78359
7.98896	7.70694
7.97667	7.57894
7.96442	7.52563
7.9522	7.62091
7.94002	7.70737
7.92788	7.61109
7.91578	7.52822
7.90371	7.53127
7.89168	7.40796
7.87969	7.258
7.86773	7.13949
7.85581	7.06151
7.84392	7.01467
7.83207	6.91731
7.82026	6.80092
7.80849	6.75425
7.79674	6.68882
7.78503	6.5824
7.77337	6.53061
7.76173	6.51685
7.75012	6.37781
7.73856	6.30329
7.72703	6.3265
7.71553	6.30618
7.70406	6.30044
7.69263	6.29855
7.68123	6.20551
7.66987	6.14448
7.65855	6.2328
7.64725	6.23967
7.63598	6.17052
7.62475	6.14498
7.61356	6.15747
7.60239	6.16158
7.59126	6.13477
7.58017	6.03461
7.5691	5.92903
7.55806	5.89566
7.54707	5.89547
7.5361	5.94029
7.52516	6.01592
7.51425	6.10017
7.50338	6.20967
7.49253	6.16018
7.48172	6.17492
7.47094	6.23979
7.46019	6.32845
7.44947	6.40994
7.43879	6.45555
7.42813	6.53309
7.4175	6.62955
7.4069	6.70309
7.39634	6.70412
7.3858	6.73167
7.37529	6.81067
7.36482	6.85292
7.35437	6.86411
7.34396	6.95525
7.33357	7.11195
7.32321	7.19634
7.31288	7.12726
7.30258	7.16186
7.29231	7.31141
7.28207	7.30603
7.27185	7.21679
7.26167	7.26493
7.25152	7.33074
7.24139	7.30491
7.23129	7.32065
7.22122	7.38372
7.21117	7.50332
7.20116	7.60374
7.19117	7.7574
7.18121	7.86518
7.17128	7.94124
7.16137	8.05446
7.1515	8.06331
7.14164	8.1884
7.13182	8.41563
7.12203	8.58104
7.11225	8.7228
7.10251	8.84005
7.0928	9.01533
7.08311	9.29632
7.07344	9.56357
7.06381	9.84429
7.0542	10.1646
7.04461	10.5558
7.03506	10.8959
7.02552	11.3459
7.01601	11.921
7.00653	12.5034
6.99708	13.2097
6.98765	13.9658
6.97824	14.7532
6.96886	15.7577
6.95951	17.088
6.95018	18.574
6.94087	20.2525
6.9316	21.8932
6.92234	23.1533
6.91311	24.0875
6.90391	24.8633
6.89473	25.516
6.88557	26.1102
6.87644	26.6181
6.86733	27.2626
6.85824	27.5806
6.84918	27.5274
6.84015	27.6949
6.83114	28.0752
6.82215	28.3462
6.81319	28.5693
6.80424	28.9831
6.79532	29.5814
6.78643	29.9512
6.77756	29.9819
6.76871	30.1168
6.75989	30.3463
6.75109	30.654
6.74231	30.9368
6.73355	31.1789
6.72482	31.4619
6.71611	31.7999
6.70742	32.052
6.69875	32.0653
6.69011	32.2797
6.68149	32.5638
6.67289	32.553
6.66431	32.4228
6.65576	32.351
6.64722	32.6512
6.63871	33.0978
6.63022	32.7468
6.62175	32.2071
6.61331	32.0218
6.60488	31.862
6.59648	31.7857
6.5881	31.5427
6.57974	31.2819
6.5714	31.0007
6.56308	30.3175
6.55478	29.8118
6.54651	29.1695
6.53825	28.4248
6.53001	27.8066
6.5218	27.2242
6.51361	26.3759
6.50544	25.6833
6.49729	25.1569
6.48915	24.0532
6.48104	22.5322
6.47295	20.9893
6.46488	19.3808
6.45683	17.8689
6.4488	16.5863
6.44079	15.5352
6.4328	14.6068
6.42482	13.7817
6.41687	12.9187
6.40894	11.5603
6.40103	10.0172
6.39314	8.72045
6.38526	7.55987
6.37741	6.54602
6.36957	5.61234
6.36176	4.73892
6.35396	3.95388
6.34618	3.35226
6.33843	2.7602
6.33069	2.27243
6.32297	1.9299
6.31527	1.68306
6.30758	1.48221
6.29992	1.3297
6.29227	1.27852
6.28465	1.20567
6.27704	1.03727
6.26945	0.921863
6.26188	0.768268
6.25432	0.750375
6.24679	0.758751
6.23927	0.664845
6.23177	0.626377
6.22429	0.70333
6.21683	0.726852
6.20938	0.667884
6.20195	0.620042
6.19454	0.650897
6.18715	0.667323
6.17978	0.634567
6.17242	0.624368
6.16508	0.611147
6.15776	0.617665
6.15045	0.631841
6.14317	0.677178
6.1359	0.669072
6.12864	0.614495
6.12141	0.652002
6.11419	0.706507
6.10699	0.783829
6.0998	0.876283
6.09263	0.806336
6.08549	0.72327
6.07835	0.837911
6.07123	0.864503
6.06413	0.907743
6.05705	0.946091
6.04998	1.05273
6.04293	1.12776
6.0359	1.15055
6.02888	1.11929
6.02187	1.15276
6.01489	1.29632
6.00792	1.41062
6.00096	1.41277
5.99403	1.39428
5.98711	1.42306
5.9802	1.46048
5.97331	1.49553
5.96644	1.44499
5.95958	1.46488
5.95274	1.47789
5.94591	1.58946
5.9391	1.74993
5.9323	1.83314
5.92552	1.84062
5.91876	1.90017
5.91201	2.04271
5.90528	2.20187
5.89856	2.44805
5.89186	2.64895
5.88517	2.7147
5.8785	2.82555
5.87184	3.03159
5.8652	3.25957
5.85857	3.50305
5.85196	3.71656
5.84536	3.91034
5.83878	4.21526
5.83221	4.55487
5.82566	4.76828
5.81912	4.90581
5.81259	5.19118
5.80608	5.56135
5.79959	5.88276
5.79311	6.14529
5.78665	6.46519
5.78019	6.7989
5.77376	7.1274
5.76734	7.40437
5.76093	7.47489
5.75453	7.75431
5.74815	8.32814
5.74179	8.70897
5.73543	9.192
5.7291	9.87266
5.72277	10.5708
5.71646	11.0139
5.71017	10.9755
5.70389	10.4524
5.69762	9.45119
5.69136	7.72053
5.68513	5.58465
5.6789	3.81838
5.67268	2.7995
5.66648	2.26418
5.6603	1.86552
5.65413	1.64675
5.64797	1.56849
5.64182	1.47882
5.63569	1.44861
5.62957	1.44193
5.62347	1.48879
5.61737	1.80019
5.61129	2.32153
5.60522	3.44614
5.59917	6.04039
5.59313	10.637
5.5871	16.0052
5.58109	20.4603
5.57509	23.5286
5.5691	25.7205
5.56312	27.5465
5.55716	29.1599
5.55121	30.689
5.54528	31.8984
5.53935	33.0073
5.53344	34.0508
5.52754	35.0851
5.52166	36.0069
5.51578	36.8251
5.50992	37.5378
5.50407	38.2841
5.49823	39.005
5.49241	39.7326
5.4866	40.4551
5.4808	41.2098
5.47501	41.7653
5.46923	42.3041
5.46347	42.846
5.45772	43.2413
5.45198	43.6733
5.44625	44.1622
5.44054	44.5244
5.43484	44.8936
5.42914	45.3782
5.42347	45.9779
5.4178	46.2627
5.41214	46.5082
5.4065	46.7475
5.40087	47.0258
5.39525	47.3191
5.38964	47.6221
5.38404	47.9379
5.37846	48.2365
5.37288	48.4754
5.36732	48.8184
5.36177	49.1223
5.35623	49.4645
5.35071	49.8561
5.34519	50.1071
5.33968	50.3714
5.33419	50.694
5.32871	51.083
5.32324	51.4756
5.31778	51.8167
5.31233	52.2191
5.30689	52.5615
5.30147	52.9345
5.29605	53.3564
5.29065	53.7619
5.28525	53.9861
5.27987	54.2918
5.2745	54.5905
5.26914	54.8899
5.26379	55.1171
5.25845	55.3774
5.25312	55.5605
5.24781	55.8047
5.2425	56.0233
5.23721	56.1792
5.23192	56.2682
5.22665	56.2798
5.22138	56.252
5.21613	56.3507
5.21089	56.404
5.20566	56.3159
5.20044	56.1468
5.19522	56.0365
5.19002	56.0745
5.18483	56.1843
5.17965	56.2678
5.17448	56.4017
5.16933	56.5292
5.16418	56.6433
5.15904	56.762
5.15391	56.9402
5.14879	57.1476
5.14368	57.3251
5.13859	57.5033
5.1335	57.7305
5.12842	57.9742
5.12335	58.2353
5.1183	58.4652
5.11325	58.7438
5.10821	59.1074
5.10318	59.522
5.09817	59.9121
5.09316	60.4077
5.08816	61.0377
5.08317	61.6932
5.07819	62.2819
5.07322	62.8066
5.06826	63.1484
5.06331	63.4561
5.05837	63.7214
5.05344	63.9607
5.04852	64.1616
5.04361	64.3898
5.03871	64.5547
5.03382	64.7272
5.02894	64.8669
5.02406	65.0926
5.0192	65.2843
5.01435	65.3759
5.0095	65.4808
5.00467	65.6725
4.99984	65.8526
4.99502	65.906
4.99021	65.8794
4.98542	65.9594
4.98063	66.1019
4.97585	66.2037
4.97108	66.3673
4.96632	66.5707
4.96156	66.7265
4.95682	66.8524
4.95209	66.8711
4.94736	66.893
4.94264	66.928
4.93794	66.9406
4.93324	66.9366
4.92855	66.9265
4.92387	66.9954
4.9192	67.1694
4.91453	67.409
4.90988	67.6833
4.90524	67.9629
4.9006	68.3188
4.89597	68.6995
4.89135	69.0465
4.88674	69.3708
4.88214	69.6936
4.87755	69.9249
4.87296	70.0969
4.86839	70.2275
4.86382	70.3552
4.85926	70.4776
4.85471	70.4954
4.85017	70.4775
4.84564	70.5074
4.84111	70.4606
4.8366	70.3655
4.83209	70.1461
4.82759	69.8291
4.8231	69.3739
4.81862	68.8135
4.81415	68.1189
4.80968	67.1904
4.80522	66.0343
4.80077	64.6517
4.79633	63.0571
4.7919	61.2473
4.78747	59.2137
4.78306	56.8636
4.77865	54.267
4.77425	51.5566
4.76986	48.8836
4.76547	46.3758
4.7611	43.9565
4.75673	41.6237
4.75237	39.5068
4.74802	37.6541
4.74367	36.1442
4.73934	34.9277
4.73501	33.8601
4.73069	32.9415
4.72638	32.0399
4.72207	31.0031
4.71777	29.7108
4.71348	28.2587
4.7092	26.8044
4.70493	25.6427
4.70066	24.9603
4.69641	24.8223
4.69216	25.164
4.68791	25.946
4.68368	26.9223
4.67945	27.9702
4.67523	29.0905
4.67102	30.2117
4.66682	31.2387
4.66262	32.2273
4.65843	33.3796
4.65425	34.4784
4.65007	35.537
4.64591	36.502
4.64175	37.3615
4.6376	38.3198
4.63345	39.3557
4.62932	40.3397
4.62519	41.2983
4.62106	42.1496
4.61695	43.0155
4.61284	43.9008
4.60874	44.5977
4.60465	45.2771
4.60056	46.0329
4.59648	46.8065
4.59241	47.5695
4.58835	48.1801
4.58429	48.6123
4.58024	49.048
4.5762	49.6533
4.57216	50.3123
4.56814	51.0092
4.56411	51.6786
4.5601	52.1312
4.55609	52.5895
4.55209	53.1102
4.5481	53.5544
4.54411	53.818
4.54013	54.0389
4.53616	54.2269
4.5322	54.2897
4.52824	54.2904
4.52429	54.2509
4.52034	54.1446
4.51641	54.0505
4.51247	53.9253
4.50855	53.8021
4.50463	53.6374
4.50072	53.5486
4.49682	53.5474
4.49292	53.4854
4.48903	53.485
4.48515	53.6948
4.48127	54.0252
4.4774	54.3294
4.47354	54.703
4.46968	55.1494
4.46584	55.5921
4.46199	56.1812
4.45815	56.8854
4.45432	57.6162
4.4505	58.3952
4.44668	59.0848
4.44287	59.602
4.43907	60.034
4.43527	60.4119
4.43148	60.6725
4.4277	60.7834
4.42392	60.9128
4.42015	61.0624
4.41638	61.1379
4.41262	61.2134
4.40887	61.3832
4.40513	61.4298
4.40139	61.4365
4.39765	61.2814
4.39393	60.8945
4.39021	60.3404
4.38649	59.6213
4.38278	58.6884
4.37908	57.5323
4.37539	56.0276
4.3717	54.1262
4.36801	52.1678
4.36434	50.4722
4.36067	49.2444
4.357	48.3731
4.35335	47.5096
4.34969	46.5099
4.34605	45.402
4.34241	44.5494
4.33877	44.0019
4.33514	43.6169
4.33152	43.2262
4.32791	42.752
4.3243	42.3221
4.32069	42.0076
4.3171	41.9607
4.31351	42.2827
4.30992	42.7985
4.30634	43.3161
4.30277	43.8358
4.2992	44.4171
4.29564	45.1522
4.29208	46.0579
4.28853	47.0228
4.28499	47.9673
4.28145	48.6263
4.27792	48.8947
4.27439	48.871
4.27087	48.7251
4.26735	48.6487
4.26384	48.6503
4.26034	48.765
4.25684	49.0456
4.25335	49.3131
4.24986	49.4966
4.24638	49.4221
4.24291	49.1012
4.23944	48.8417
4.23598	48.6923
4.23252	48.6034
4.22906	48.5022
4.22562	48.3454
4.22218	48.012
4.21874	47.6897
4.21531	47.4012
4.21189	46.9721
4.20847	46.5251
4.20506	46.0867
4.20165	45.5104
4.19825	44.8562
4.19485	44.1368
4.19146	43.46
4.18807	42.8167
4.18469	42.2411
4.18132	41.8372
4.17795	41.5834
4.17458	41.464
4.17123	41.4886
4.16787	41.6469
4.16453	41.8229
4.16118	42.1104
4.15785	42.4513
4.15451	42.6743
4.15119	42.8056
4.14787	42.8991
4.14455	42.9525
4.14124	42.9078
4.13794	42.815
4.13464	42.6154
4.13134	42.3481
4.12805	42.1056
4.12477	41.6505
4.12149	41.0861
4.11822	40.4725
4.11495	39.6787
4.11168	38.6829
4.10843	37.5215
4.10517	36.1784
4.10192	34.5334
4.09868	32.456
4.09545	30.1987
4.09221	27.9021
4.08899	25.4111
4.08576	23.0073
4.08255	20.726
4.07933	18.5621
4.07613	16.4533
4.07292	14.2824
4.06973	12.1389
4.06654	10.1314
4.06335	8.40101
4.06017	7.02009
4.05699	6.03756
4.05382	5.34315
4.05065	4.90304
4.04749	4.59021
4.04433	4.39683
4.04118	4.14803
4.03803	3.80771
4.03489	3.54318
4.03175	3.33416
4.02862	3.17503
4.02549	3.10378
4.02237	2.96505
4.01925	2.89905
4.01614	2.92519
4.01303	3.03588
4.00993	3.08784
4.00683	3.10439
4.00373	3.20111
4.00064	3.19633
3.99756	3.1791
3.99448	3.1931
3.9914	3.182
3.98833	3.28807
3.98527	3.54433
3.98221	3.6731
3.97915	3.62133
3.9761	3.65721
3.97305	3.72292
3.97001	3.79944
3.96697	3.96227
3.96394	4.16576
3.96091	4.45353
3.95789	4.78144
3.95487	5.00234
3.95186	5.26688
3.94885	5.54273
3.94584	5.91622
3.94284	6.42265
3.93984	6.83444
3.93685	7.17636
3.93386	7.39987
3.93088	7.40268
3.9279	7.43379
3.92493	7.69726
3.92196	8.02772
3.919	8.36725
3.91604	8.64619
3.91308	8.90278
3.91013	9.18214
3.90718	9.44553
3.90424	9.7558
3.9013	9.89296
3.89837	9.99434
3.89544	10.1404
3.89252	10.1717
3.8896	10.1475
3.88668	10.1481
3.88377	10.0794
3.88086	9.90645
3.87796	9.77339
3.87506	9.70874
3.87217	9.61377
3.86928	9.5726
3.86639	9.54022
3.86351	9.4483
3.86064	9.35657
3.85776	9.29283
3.8549	9.35204
3.85203	9.47492
3.84917	9.57586
3.84631	9.68063
3.84346	9.79395
3.84062	10.1314
3.83777	10.4982
3.83494	10.8416
3.8321	11.4545
3.82927	12.3568
3.82644	13.3758
3.82362	14.6966
3.82081	16.3308
3.81799	18.0615
3.81518	19.9029
3.81238	22.0033
3.80958	24.2589
3.80678	26.6735
3.80399	29.1281
3.8012	31.371
3.79841	33.5595
3.79563	35.7011
3.79286	37.4547
3.79008	38.9972
3.78731	40.3383
3.78455	41.4065
3.78179	42.2808
3.77903	43.0382
3.77628	43.6887
3.77353	44.2163
3.77079	44.7106
3.76805	45.1606
3.76531	45.5136
3.76258	45.9482
3.75985	46.3395
3.75713	46.5877
3.7544	46.694
3.75169	46.8609
3.74898	47.1768
3.74627	47.5851
3.74356	47.8786
3.74086	48.0747
3.73816	48.3408
3.73547	48.7107
3.73278	49.0414
3.7301	49.3179
3.72741	49.6235
3.72474	49.9534
3.72206	50.1723
3.71939	50.4507
3.71673	50.7488
3.71406	50.9774
3.71141	51.1986
3.70875	51.4207
3.7061	51.6118
3.70345	51.8714
3.70081	52.0444
3.69817	52.2403
3.69553	52.5163
3.6929	52.6785
3.69027	52.7945
3.68765	52.9045
3.68503	52.937
3.68241	53.0086
3.6798	53.0652
3.67719	53.0595
3.67458	53.097
3.67198	53.2013
3.66938	53.1994
3.66678	53.1821
3.66419	53.1567
3.66161	53.1882
3.65902	53.1621
3.65644	53.0466
3.65387	53.0327
3.65129	53.0034
3.64872	52.7872
3.64616	52.6797
3.64359	52.6248
3.64103	52.447
3.63848	52.2487
3.63593	52.092
3.63338	51.7865
3.63084	51.5655
3.6283	51.3852
3.62576	51.1886
3.62322	50.9553
3.62069	50.7135
3.61817	50.4666
3.61564	50.3378
3.61312	50.3954
3.61061	50.4218
3.6081	50.2427
3.60559	49.9683
3.60308	49.581
3.60058	48.9992
3.59808	48.2003
3.59558	47.2697
3.59309	46.3124
3.59061	45.404
3.58812	44.4837
3.58564	43.877
3.58316	43.4468
3.58069	42.9716
3.57822	42.3213
3.57575	41.5073
3.57328	40.706
3.57082	39.9886
3.56836	39.1811
3.56591	38.2902
3.56346	37.2212
3.56101	35.8694
3.55857	34.4031
3.55613	32.8422
3.55369	31.1124
3.55126	29.1338
3.54883	27.0135
3.5464	24.7331
3.54397	22.4759
3.54155	20.2894
3.53914	18.1861
3.53672	16.2603
3.53431	14.5737
3.5319	12.996
3.5295	11.6055
3.5271	10.7172
3.5247	10.2909
3.52231	10.2147
3.51991	10.4538
3.51753	10.7911
3.51514	11.1964
3.51276	11.5727
3.51038	11.7692
3.50801	11.6855
3.50563	11.3976
3.50327	10.9988
3.5009	10.3824
3.49854	9.54977
3.49618	8.58727
3.49382	7.5838
3.49147	6.78466
3.48912	6.12512
3.48677	5.64054
3.48443	5.23112
3.48209	4.92408
3.47975	4.76148
3.47742	4.60399
3.47509	4.36196
3.47276	4.2244
3.47044	4.20259
3.46812	4.3518
3.4658	4.58129
3.46348	4.70695
3.46117	4.81206
3.45886	5.01704
3.45656	5.31889
3.45425	5.66733
3.45195	5.9081
3.44966	6.12563
3.44736	6.32114
3.44507	6.48747
3.44279	6.73828
3.4405	6.97092
3.43822	7.14997
3.43594	7.38552
3.43367	7.45816
3.43139	7.44379
3.42912	7.48817
3.42686	7.38558
3.42459	7.33632
3.42233	7.21362
3.42007	7.00147
3.41782	6.95524
3.41557	6.92766
3.41332	6.86176
3.41108	6.79152
3.40883	6.63943
3.40659	6.46731
3.40435	6.5011
3.40212	6.49745
3.39989	6.40998
3.39766	6.39191
3.39544	6.49105
3.39322	6.65922
3.391	6.84364
3.38878	7.00416
3.38657	7.29918
3.38436	7.69549
3.38215	8.14592
3.37994	8.71469
3.37774	9.41473
3.37554	10.0599
3.37335	10.8116
3.37115	11.6872
3.36896	12.6118
3.36678	13.4837
3.36459	14.3749
3.36241	15.4207
3.36023	16.4786
3.35805	17.5027
3.35588	18.6565
3.35371	19.8039
3.35154	20.9127
3.34938	21.9874
3.34721	22.937
3.34505	23.9302
3.3429	24.996
3.34074	25.9676
3.33859	26.9833
3.33644	28.1497
3.3343	29.3667
3.33215	30.6215
3.33001	31.727
3.32788	32.7469
3.32574	33.8143
3.32361	34.8829
3.32148	35.7999
3.31936	36.5931
3.31723	37.2942
3.31511	37.9201
3.31299	38.5358
3.31088	39.1387
3.30876	39.6461
3.30665	40.053
3.30455	40.4642
3.30244	40.9409
3.30034	41.4052
3.29824	41.8544
3.29614	42.2215
3.29405	42.5089
3.29196	42.8023
3.28987	43.1648
3.28778	43.4786
3.2857	43.6992
3.28362	44.0075
3.28154	44.339
3.27946	44.6448
3.27739	44.9746
3.27532	45.2137
3.27325	45.4045
3.27119	45.6288
3.26913	45.837
3.26707	46.0668
3.26501	46.27
3.26295	46.4818
3.2609	46.7712
3.25885	46.9813
3.2568	47.1342
3.25476	47.3624
3.25272	47.5588
3.25068	47.6564
3.24864	47.8411
3.24661	48.1503
3.24458	48.301
3.24255	48.4381
3.24052	48.6312
3.2385	48.8492
3.23648	49.0858
3.23446	49.2878
3.23244	49.3414
3.23043	49.5355
3.22841	49.7902
3.2264	49.9378
3.2244	50.0894
3.22239	50.3099
3.22039	50.3821
3.21839	50.4924
3.2164	50.746
3.2144	50.9135
3.21241	51.0033
3.21042	51.214
3.20844	51.4979
3.20645	51.5845
3.20447	51.7105
3.20249	51.9491
3.20051	52.0553
3.19854	52.1783
3.19657	52.2581
3.1946	52.2366
3.19263	52.2927
3.19067	52.3464
3.1887	52.3362
3.18674	52.2623
3.18479	52.0746
3.18283	51.759
3.18088	51.4973
3.17893	51.3525
3.17698	51.0679
3.17504	50.7656
3.17309	50.47
3.17115	50.1928
3.16921	49.8255
3.16728	49.4902
3.16534	49.1074
3.16341	48.5661
3.16148	48.0011
3.15956	47.3661
3.15763	46.7468
3.15571	46.2312
3.15379	45.8421
3.15187	45.4909
3.14996	45.1283
3.14805	44.8986
3.14614	44.7693
3.14423	44.6397
3.14232	44.5822
3.14042	44.4816
3.13852	44.3282
3.13662	44.1603
3.13472	44.0896
3.13283	44.1751
3.13094	44.4441
3.12905	44.9021
3.12716	45.4828
3.12528	45.9827
3.12339	46.5553
3.12151	47.1868
3.11964	47.7541
3.11776	48.2858
3.11589	48.7888
3.11401	49.2035
3.11214	49.5036
3.11028	49.7689
3.10841	50.0899
3.10655	50.5031
3.10469	50.899
3.10283	51.2004
3.10098	51.488
3.09912	51.7853
3.09727	52.167
3.09542	52.4981
3.09358	52.7434
3.09173	52.8782
3.08989	52.9756
3.08805	53.17
3.08621	53.3665
3.08437	53.4198
3.08254	53.5714
3.08071	53.7951
3.07888	53.9745
3.07705	54.0897
3.07523	54.1539
3.0734	54.3667
3.07158	54.5467
3.06977	54.5157
3.06795	54.4978
3.06613	54.5901
3.06432	54.7597
3.06251	54.8247
3.0607	54.7873
3.0589	54.9189
3.0571	55.0994
3.05529	55.1124
3.05349	55.074
3.0517	55.0819
3.0499	55.1603
3.04811	55.1148
3.04632	55.0654
3.04453	55.1433
3.04274	55.2115
3.04096	55.2029
3.03918	55.1148
3.0374	55.0877
3.03562	55.1302
3.03384	55.1008
3.03207	55.0579
3.03029	55.0884
3.02852	55.1556
3.02676	55.2875
3.02499	55.4082
3.02323	55.3878
3.02146	55.3543
3.0197	55.4487
3.01795	55.4912
3.01619	55.5389
3.01444	55.684
3.01269	55.7661
3.01094	55.751
3.00919	55.6755
3.00744	55.686
3.0057	55.7001
3.00396	55.7687
3.00222	55.9158
3.00048	55.996
2.99875	56.024
2.99701	56.0871
2.99528	56.0381
2.99355	55.9456
2.99183	55.9614
2.9901	56.0189
2.98838	56.0533
2.98666	56.0567
2.98494	56.1065
2.98322	56.196
2.9815	56.258
2.97979	56.2878
2.97808	56.1493
2.97637	55.9901
2.97466	55.9713
2.97295	55.99
2.97125	55.9746
2.96955	55.9738
2.96785	56.0157
2.96615	56.0601
2.96446	56.0554
2.96276	55.9266
2.96107	55.9115
2.95938	56.0257
2.95769	56.0499
2.95601	56.0549
2.95432	56.0542
2.95264	55.9819
2.95096	56.0551
2.94928	56.1281
2.9476	56.1939
2.94593	56.2157
2.94425	56.1966
2.94258	56.1652
2.94092	56.2096
2.93925	56.3126
2.93758	56.3536
2.93592	56.4341
2.93426	56.3886
2.9326	56.3572
2.93094	56.4869
2.92928	56.504
2.92763	56.5088
2.92598	56.5785
2.92433	56.5573
2.92268	56.5204
2.92103	56.6545
2.91939	56.7118
2.91775	56.6268
2.9161	56.5792
2.91447	56.5789
2.91283	56.6335
2.91119	56.6965
2.90956	56.7426
2.90793	56.7187
2.9063	56.6867
2.90467	56.8078
2.90304	56.8678
2.90142	56.9321
2.89979	57.0745
2.89817	57.244
2.89656	57.217
2.89494	57.1358
2.89332	57.2894
2.89171	57.3628
2.8901	57.3232
2.88849	57.4496
2.88688	57.6847
2.88527	57.8019
2.88367	57.8083
2.88206	57.8013
2.88046	57.8063
2.87886	57.9326
2.87727	57.9771
2.87567	57.9635
2.87408	58.0545
2.87248	58.2054
2.87089	58.2901
2.8693	58.2774
2.86772	58.3144
2.86613	58.2643
2.86455	58.1791
2.86297	58.1377
2.86139	58.1109
2.85981	58.1267
2.85823	58.0965
2.85666	57.8629
2.85508	57.6364
2.85351	57.4385
2.85194	57.2627
2.85038	57.0741
2.84881	56.8036
2.84724	56.2935
2.84568	55.7267
2.84412	55.2049
2.84256	54.6372
2.841	53.8758
2.83945	52.9925
2.83789	52.1047
2.83634	51.2511
2.83479	50.3904
2.83324	49.5375
2.83169	48.791
2.83015	48.2442
2.82861	47.838
2.82706	47.5147
2.82552	47.2001
2.82398	46.8178
2.82245	46.3987
2.82091	45.9336
2.81938	45.5303
2.81784	45.1813
2.81631	44.8775
2.81479	44.936
2.81326	45.5244
2.81173	46.6645
2.81021	48.0823
2.80869	49.4214
2.80716	50.497
2.80565	51.5475
2.80413	52.6037
2.80261	53.3705
2.8011	53.9813
2.79959	54.6593
2.79808	55.2209
2.79657	55.7194
2.79506	56.1996
2.79355	56.6807
2.79205	57.2843
2.79055	57.9916
2.78904	58.8021
2.78754	59.6776
2.78605	60.2552
2.78455	60.6817
2.78306	61.2323
2.78156	61.7367
2.78007	62.0571
2.77858	62.4258
2.77709	62.8178
2.77561	63.1289
2.77412	63.436
2.77264	63.8972
2.77116	64.3807
2.76968	64.5491
2.7682	64.7363
2.76672	64.9171
2.76524	64.996
2.76377	65.3491
2.7623	65.672
2.76083	65.6956
2.75936	65.8106
2.75789	66.0331
2.75642	66.6344
2.75496	67.1901
2.7535	67.0608
2.75203	66.9063
2.75057	67.0079
2.74912	67.2337
2.74766	67.5741
2.7462	67.8711
2.74475	68.0867
2.7433	68.4497
2.74185	68.978
2.7404	69.5851
2.73895	69.7328
2.7375	69.5363
2.73606	69.7959
2.73462	70.2426
2.73318	70.4009
2.73174	70.6073
2.7303	70.9904
2.72886	71.4984
2.72742	71.995
2.72599	72.7589
2.72456	73.6525
2.72313	74.0739
2.7217	74.8471
2.72027	75.8841
2.71884	76.1
2.71742	76.5213
2.71599	77.0612
2.71457	77.7273
2.71315	78.4294
2.71173	79.542
2.71032	80.2324
2.7089	80.3616
2.70748	80.5138
2.70607	80.7565
2.70466	81.2305
2.70325	81.6089
2.70184	82.0647
2.70043	82.424
2.69903	82.4561
2.69762	82.592
2.69622	83.1508
2.69482	83.7973
2.69342	83.9598
2.69202	83.6723
2.69062	83.7272
2.68923	83.9767
2.68783	84.1689
2.68644	84.3651
2.68505	84.4743
2.68366	84.5879
2.68227	84.5074
2.68089	84.5594
2.6795	85.0284
2.67812	85.241
2.67673	85.4677
2.67535	85.2832
2.67397	85.0148
2.6726	85.1864
2.67122	86.046
2.66984	86.2349
2.66847	85.8023
2.6671	86.1206
2.66572	86.2288
2.66435	86.0328
2.66299	85.532
2.66162	85.5306
2.66025	85.6452
2.65889	85.6933
2.65753	85.5881
2.65616	85.7361
2.65481	85.7308
2.65345	85.7695
2.65209	85.9302
2.65073	85.8216
2.64938	85.5982
2.64803	85.5628
2.64667	85.7357
2.64532	85.8505
2.64397	85.798
2.64263	85.7641
2.64128	85.5861
2.63994	85.4918
2.63859	85.4544
2.63725	85.473
2.63591	85.5071
2.63457	85.6707
2.63323	85.6406
2.6319	85.8271
2.63056	86.147
2.62923	85.6488
2.62789	85.4973
2.62656	85.7336
2.62523	85.3381
2.6239	84.9862
2.62258	84.9448
2.62125	85.3757
2.61993	85.4305
2.6186	85.0583
2.61728	85.1528
2.61596	84.945
2.61464	84.604
2.61332	84.458
2.61201	84.2205
2.61069	84.1316
2.60938	83.9383
2.60807	83.6804
2.60675	83.6407
2.60544	83.4653
2.60414	82.6093
2.60283	81.7049
2.60152	80.9377
2.60022	80.3309
2.59891	79.9511
2.59761	79.6726
2.59631	79.6992
2.59501	79.7853
2.59371	78.4968
2.59242	77.0041
2.59112	76.0521
2.58983	75.3038
2.58853	74.5183
2.58724	73.6598
2.58595	72.4811
2.58466	71.7199
2.58338	70.7328
2.58209	69.5326
2.5808	68.5999
2.57952	67.4727
2.57824	66.5706
2.57695	65.6674
2.57567	64.4703
2.5744	63.5199
2.57312	62.5898
2.57184	61.3431
2.57057	60.4116
2.56929	59.3599
2.56802	58.1862
2.56675	57.1758
2.56548	56.2918
2.56421	55.5373
2.56294	54.7797
2.56168	53.9814
2.56041	53.1477
2.55915	52.3485
2.55789	51.7943
2.55662	51.592
2.55536	51.4091
2.5541	51.4239
2.55285	51.6381
2.55159	51.841
2.55034	51.9297
2.54908	52.0534
2.54783	52.3644
2.54658	52.5798
2.54533	52.8255
2.54408	53.0794
2.54283	53.3172
2.54159	53.6005
2.54034	54.0359
2.5391	54.6098
2.53785	55.2144
2.53661	55.7015
2.53537	56.1621
2.53413	56.7678
2.53289	57.4931
2.53166	58.042
2.53042	58.525
2.52919	59.058
2.52795	59.6172
2.52672	60.0958
2.52549	60.6376
2.52426	61.2232
2.52303	61.5177
2.52181	61.9074
2.52058	62.3957
2.51936	62.7984
2.51813	63.2152
2.51691	63.5863
2.51569	63.8731
2.51447	64.193
2.51325	64.5819
2.51203	64.9389
2.51082	65.0911
2.5096	65.251
2.50839	65.5217
2.50717	65.7235
2.50596	65.7616
2.50475	65.8908
2.50354	66.1483
2.50233	66.1779
2.50113	66.2057
2.49992	66.3126
2.49872	66.4682
2.49751	66.6148
2.49631	66.7942
2.49511	66.9307
2.49391	66.9515
2.49271	67.0889
2.49151	67.3928
2.49031	67.6371
2.48912	67.781
2.48792	67.9261
2.48673	68.1608
2.48554	68.4846
2.48435	68.8419
2.48316	69.2331
2.48197	69.6867
2.48078	70.1084
2.4796	70.5497
2.47841	71.0267
2.47723	71.5236
2.47604	72.0654
2.47486	72.5871
2.47368	72.9906
2.4725	73.4307
2.47132	74.0261
2.47014	74.6224
2.46897	75.1433
2.46779	75.5308
2.46662	75.8928
2.46545	76.3465
2.46427	76.9007
2.4631	77.3898
2.46193	77.7675
2.46077	78.1507
2.4596	78.4619
2.45843	78.7447
2.45727	79.1345
2.4561	79.5982
2.45494	79.9614
2.45378	80.2679
2.45262	80.613
2.45146	80.851
2.4503	81.0092
2.44914	81.2035
2.44799	81.4322
2.44683	81.4614
2.44568	81.5886
2.44452	81.8596
2.44337	82.108
2.44222	82.3437
2.44107	82.4921
2.43992	82.7153
2.43877	82.823
2.43763	82.782
2.43648	82.8483
2.43534	83.1016
2.43419	83.3436
2.43305	83.3096
2.43191	83.2633
2.43077	83.419
2.42963	83.557
2.42849	83.6099
2.42736	83.6881
2.42622	83.8247
2.42509	83.8938
2.42395	83.9694
2.42282	84.052
2.42169	83.9899
2.42056	83.9651
2.41943	84.1087
2.4183	84.245
2.41717	84.3563
2.41605	84.3734
2.41492	84.4181
2.4138	84.506
2.41267	84.676
2.41155	84.7017
2.41043	84.6836
2.40931	84.755
2.40819	84.7813
2.40707	84.7242
2.40595	84.692
2.40484	84.628
2.40372	84.588
2.40261	84.5476
2.4015	84.5835
2.40039	84.6331
2.39928	84.4679
2.39817	84.3808
2.39706	84.2782
2.39595	84.2004
2.39484	84.0332
2.39374	83.7185
2.39263	83.4645
2.39153	83.2894
2.39043	83.1189
2.38932	82.7894
2.38822	82.4117
2.38712	82.1143
2.38603	81.7681
2.38493	81.3007
2.38383	80.9179
2.38274	80.5085
2.38164	79.9748
2.38055	79.3322
2.37946	78.6236
2.37836	77.9465
2.37727	77.4391
2.37618	76.8709
2.3751	76.145
2.37401	75.4818
2.37292	74.9249
2.37184	74.3461
2.37075	73.7306
2.36967	73.1218
2.36859	72.4646
2.3675	71.9056
2.36642	71.2501
2.36534	70.66
2.36427	70.1454
2.36319	69.5061
2.36211	69.0303
2.36104	68.8181
2.35996	68.4927
2.35889	67.9215
2.35781	67.4751
2.35674	67.1982
2.35567	66.8556
2.3546	66.4063
2.35353	65.9424
2.35247	65.5452
2.3514	65.2481
2.35033	65.0702
2.34927	64.7735
2.3482	64.4319
2.34714	64.4089
2.34608	64.4609
2.34502	64.4835
2.34396	64.6626
2.3429	64.8625
2.34184	65.1493
2.34078	65.525
2.33973	65.9289
2.33867	66.3823
2.33762	66.8433
2.33656	67.3065
2.33551	67.7279
2.33446	68.1074
2.33341	68.6165
2.33236	69.0792
2.33131	69.2095
2.33026	69.3572
2.32922	69.7928
2.32817	70.1489
2.32712	70.3925
2.32608	70.8354
2.32504	71.181
2.324	71.3349
2.32295	71.695
2.32191	71.9609
2.32087	72.055
2.31984	72.2144
2.3188	72.4096
2.31776	72.631
2.31673	72.8969
2.31569	73.0587
2.31466	73.1701
2.31362	73.3261
2.31259	73.6195
2.31156	73.9563
2.31053	74.1309
2.3095	74.187
2.30847	74.415
2.30745	74.4595
2.30642	74.4432
2.3054	74.5616
2.30437	74.9039
2.30335	75.1832
2.30232	75.3475
2.3013	75.5032
2.30028	75.6312
2.29926	75.7417
2.29824	75.8615
2.29722	76.0205
2.29621	76.2536
2.29519	76.5088
2.29417	76.6544
2.29316	76.7399
2.29215	76.783
2.29113	76.796
2.29012	76.9833
2.28911	77.2555
2.2881	77.5306
2.28709	77.7681
2.28608	77.9141
2.28507	78.0726
2.28407	78.2244
2.28306	78.3704
2.28206	78.5943
2.28105	78.7879
2.28005	78.9242
2.27905	79.1013
2.27805	79.2797
2.27705	79.3457
2.27605	79.5922
2.27505	79.7781
2.27405	80.0192
2.27305	80.3083
2.27206	80.4355
2.27106	80.5778
2.27007	80.8137
2.26907	81.1355
2.26808	81.3093
2.26709	81.4206
2.2661	81.5587
2.26511	81.7252
2.26412	81.8874
2.26313	82.042
2.26214	82.2331
2.26116	82.5084
2.26017	82.6499
2.25919	82.6412
2.2582	82.856
2.25722	83.129
2.25624	83.3192
2.25526	83.4959
2.25428	83.6277
2.2533	83.8192
2.25232	83.9161
2.25134	83.9715
2.25036	84.1462
2.24939	84.2294
2.24841	84.3225
2.24744	84.4373
2.24646	84.5711
2.24549	84.845
2.24452	85.0639
2.24355	85.1219
2.24257	85.2796
2.24161	85.2987
2.24064	85.3911
2.23967	85.6268
2.2387	85.7608
2.23774	85.8604
2.23677	86.1182
2.23581	86.2226
2.23484	86.1856
2.23388	86.2734
2.23292	86.4598
2.23196	86.5954
2.231	86.6537
2.23004	86.7872
2.22908	86.9179
2.22812	87.044
2.22716	87.1655
2.22621	87.1706
2.22525	87.2439
2.2243	87.4979
2.22334	87.7319
2.22239	87.8404
2.22144	87.8905
2.22049	87.8837
2.21953	87.8263
2.21859	87.901
2.21764	88.0658
2.21669	88.2616
2.21574	88.3193
2.21479	88.3218
2.21385	88.4474
2.2129	88.6063
2.21196	88.6302
2.21102	88.6478
2.21007	88.7064
2.20913	88.8581
2.20819	88.9563
2.20725	88.9732
2.20631	89.0043
2.20537	88.9855
2.20444	89.0031
2.2035	89.1369
2.20256	89.2994
2.20163	89.2527
2.20069	89.152
2.19976	89.0546
2.19883	88.9531
2.19789	88.9068
2.19696	88.9276
2.19603	88.9799
2.1951	88.8306
2.19417	88.6917
2.19325	88.7403
2.19232	88.6393
2.19139	88.5107
2.19047	88.4825
2.18954	88.4253
2.18862	88.3316
2.18769	88.208
2.18677	88.1201
2.18585	88.0734
2.18493	87.87
2.18401	87.7189
2.18309	87.6567
2.18217	87.5196
2.18125	87.4903
2.18033	87.5073
2.17942	87.4889
2.1785	87.4286
2.17759	87.366
2.17667	87.464
2.17576	87.5163
2.17485	87.3883
2.17393	87.197
2.17302	87.107
2.17211	87.2328
2.1712	87.3511
2.17029	87.5291
2.16939	87.9655
2.16848	88.3161
2.16757	88.4478
2.16667	88.5952
2.16576	88.8798
2.16486	89.0085
2.16395	89.247
2.16305	89.4465
2.16215	89.431
2.16125	89.4281
2.16035	89.5841
2.15945	89.6666
2.15855	89.8225
2.15765	89.9277
2.15675	90.0159
2.15586	90.0571
2.15496	90.0947
2.15406	90.1634
2.15317	90.397
2.15228	90.5347
2.15138	90.5058
2.15049	90.5644
2.1496	90.5804
2.14871	90.5694
2.14782	90.6388
2.14693	90.7006
2.14604	90.7556
2.14515	90.9091
2.14427	91.1634
2.14338	91.1743
2.14249	91.0358
2.14161	90.9816
2.14072	91.1024
2.13984	91.2435
2.13896	91.1621
2.13808	91.0511
2.13719	91.0835
2.13631	91.4088
2.13543	91.6811
2.13455	91.5943
2.13368	91.475
2.1328	91.2642
2.13192	91.2174
2.13105	91.2588
2.13017	91.3809
2.1293	91.4948
2.12842	91.4084
2.12755	91.4625
2.12668	91.5805
2.1258	91.4321
2.12493	91.4051
2.12406	91.5127
2.12319	91.6799
2.12232	91.7664
2.12145	91.7085
2.12059	91.6064
2.11972	91.5939
2.11885	91.5692
2.11799	91.5734
2.11712	91.711
2.11626	91.6801
2.1154	91.6352
2.11453	91.7382
2.11367	91.951
2.11281	92.0486
2.11195	91.9179
2.11109	91.9124
2.11023	91.9965
2.10937	91.866
2.10851	91.8383
2.10766	92.1618
2.1068	92.1727
2.10594	92.0762
2.10509	92.1833
2.10423	92.2192
2.10338	92.1404
2.10253	92.0253
2.10168	92.1178
2.10082	92.2651
2.09997	92.3523
2.09912	92.4054
2.09827	92.3517
2.09742	92.2027
2.09658	92.221
2.09573	92.2328
2.09488	92.2558
2.09404	92.3605
2.09319	92.3018
2.09235	92.3786
2.0915	92.5344
2.09066	92.4498
2.08982	92.3139
2.08897	92.2767
2.08813	92.1531
2.08729	92.2088
2.08645	92.199
2.08561	92.2513
2.08477	92.3258
2.08394	92.5203
2.0831	92.5952
2.08226	92.5516
2.08143	92.5883
2.08059	92.7708
2.07976	92.878
2.07892	92.8378
2.07809	92.5144
2.07726	92.1813
2.07643	92.2534
2.07559	92.2012
2.07476	92.1884
2.07393	92.1757
2.0731	92.2284
2.07228	92.5308
2.07145	92.6381
2.07062	92.4283
2.06979	92.3678
2.06897	92.1097
2.06814	92.0399
2.06732	92.3102
2.06649	92.628
2.06567	92.5253
2.06485	92.3333
2.06403	92.3223
2.0632	92.7033
2.06238	92.7499
2.06156	92.245
2.06074	92.1223
2.05993	92.3841
2.05911	92.5062
2.05829	92.5409
2.05747	92.6306
2.05666	92.5688
2.05584	92.4763
2.05503	92.4756
2.05421	92.4987
2.0534	92.4982
2.05259	92.4653
2.05177	92.6368
2.05096	92.6904
2.05015	92.4884
2.04934	92.2854
2.04853	92.3704
2.04772	92.2442
2.04691	92.0233
2.04611	91.9544
2.0453	92.0186
2.04449	92.1886
2.04369	92.1549
2.04288	92.0281
2.04208	91.9182
2.04127	91.8208
2.04047	91.8956
2.03967	91.9579
2.03886	91.74
2.03806	91.6246
2.03726	91.6925
2.03646	91.4613
2.03566	91.4481
2.03486	91.4965
2.03407	91.3583
2.03327	90.9368
2.03247	90.824
2.03167	90.8407
2.03088	90.8573
2.03008	90.8013
2.02929	90.5861
2.0285	90.4528
2.0277	90.3995
2.02691	90.3312
2.02612	90.0667
2.02533	89.9385
2.02453	89.6151
2.02374	89.271
2.02295	89.3922
2.02217	89.2826
2.02138	88.9756
2.02059	88.8622
2.0198	88.6814
2.01902	88.4162
2.01823	88.2059
2.01744	88.158
2.01666	88.2973
2.01588	88.1416
2.01509	87.8638
2.01431	87.9569
2.01353	88.0612
2.01275	88.1703
2.01196	88.1904
2.01118	88.3971
2.0104	88.7127
2.00963	88.712
2.00885	88.6771
2.00807	88.8929
2.00729	88.8994
2.00651	88.8561
2.00574	88.9461
2.00496	89.1267
2.00419	89.3905
2.00341	89.4501
2.00264	89.5318
2.00187	89.572
2.00109	89.6297
2.00032	89.7343
