Name: Barite BaSO_4
Type: Mineral
Class: Sulfates
Subclass: 
Particle Size: 125-500um
Sample No.: SO-3A
Owner: JPL
Wavelength range: IR
Origin: USA, South Carolina, Cherokee County, Kings Creek
Collected by Ward's
Description: 





Measurement: Hemispherical reflectance
First Column: X
Second Column: Y
X Units:  Wavelength (micrometers)
Y Units:  Reflectance (percent)
First X Value: 15.3853
Last X Value: 2.00032
Number of X Values: 2256
Additional information: so03aa.txt
 
15.3853	3.86571
15.3397	2.69088
15.2945	1.65825
15.2495	1.16798
15.2048	0.841346
15.1603	0.826737
15.1161	1.09738
15.0722	1.28899
15.0285	1.16503
14.9851	1.28659
14.9419	1.60239
14.8989	2.08366
14.8563	2.28557
14.8138	2.42482
14.7716	2.97903
14.7296	3.43866
14.6879	3.7398
14.6464	3.88166
14.6052	4.0123
14.5641	4.16172
14.5233	4.06477
14.4828	4.06553
14.4424	4.45178
14.4023	4.58662
14.3624	4.4411
14.3227	4.41113
14.2833	4.40085
14.244	4.42763
14.205	4.56824
14.1662	4.55817
14.1276	4.55227
14.0892	4.79666
14.051	5.05479
14.0131	5.2183
13.9753	5.54801
13.9377	5.94902
13.9004	6.39639
13.8632	6.67193
13.8262	6.65625
13.7895	6.7661
13.7529	6.91346
13.7165	7.0094
13.6803	7.10793
13.6443	7.38461
13.6085	7.52823
13.5729	7.6971
13.5374	7.94751
13.5022	7.98291
13.4671	8.03487
13.4322	8.18762
13.3975	8.35311
13.363	8.46154
13.3286	8.64645
13.2944	8.74572
13.2604	8.83345
13.2266	8.98248
13.193	9.00306
13.1595	8.9558
13.1262	8.82677
13.093	8.7731
13.06	8.62094
13.0272	8.32695
12.9946	7.89165
12.9621	7.54063
12.9298	7.292
12.8976	7.01032
12.8656	6.95047
12.8337	7.02175
12.8021	6.89764
12.7705	6.68863
12.7391	6.52021
12.7079	6.59026
12.6769	6.59873
12.6459	6.64364
12.6152	6.60506
12.5845	6.61223
12.5541	6.68718
12.5238	6.63461
12.4936	6.64338
12.4635	6.67856
12.4337	6.63214
12.4039	6.568
12.3743	6.47116
12.3448	6.55463
12.3155	6.7201
12.2863	6.83938
12.2573	6.87326
12.2284	7.08992
12.1996	7.31052
12.171	7.32298
12.1425	7.44984
12.1141	7.76794
12.0859	8.06312
12.0578	8.47634
12.0298	8.77547
12.0019	9.03714
11.9742	9.42171
11.9466	10.1067
11.9192	10.6732
11.8918	11.1763
11.8646	11.6515
11.8375	12.1635
11.8106	12.594
11.7837	13.1637
11.757	13.6649
11.7304	13.9317
11.7039	14.1398
11.6776	14.2665
11.6513	14.2268
11.6252	14.2947
11.5992	14.1513
11.5733	13.8752
11.5475	13.5338
11.5219	13.0469
11.4963	12.482
11.4709	11.9719
11.4455	11.4617
11.4203	11.1268
11.3952	11.0859
11.3702	10.9242
11.3454	10.468
11.3206	9.88169
11.2959	9.39309
11.2714	9.11633
11.2469	8.84913
11.2226	8.74339
11.1983	8.66206
11.1742	8.4433
11.1502	8.33558
11.1263	8.26997
11.1024	8.09928
11.0787	7.9091
11.0551	7.74337
11.0316	7.54979
11.0081	7.505
10.9848	7.51446
10.9616	7.29977
10.9385	7.17333
10.9154	6.99205
10.8925	6.90218
10.8697	6.97048
10.8469	7.09743
10.8243	7.10627
10.8017	7.21736
10.7793	7.28773
10.7569	7.2694
10.7346	7.28749
10.7125	7.34166
10.6904	7.48374
10.6684	7.55108
10.6465	7.30402
10.6247	7.11929
10.6029	7.09506
10.5813	6.98054
10.5597	6.92462
10.5383	7.02656
10.5169	6.9048
10.4956	6.53172
10.4744	6.50795
10.4533	6.58529
10.4323	6.40354
10.4113	6.12559
10.3904	5.81118
10.3697	5.63291
10.349	5.64702
10.3284	5.64717
10.3078	5.65915
10.2874	5.69099
10.267	5.5913
10.2467	5.57836
10.2265	5.54647
10.2064	5.66931
10.1863	5.77529
10.1663	5.57149
10.1464	4.96863
10.1266	4.61334
10.1069	4.90859
10.0872	5.31158
10.0676	5.45741
10.0481	5.56
10.0287	5.75765
10.0093	5.8829
9.99005	5.90902
9.97084	6.01763
9.95169	6.09491
9.93263	6.21529
9.91364	6.24103
9.89472	6.32352
9.87587	6.32303
9.8571	6.39529
9.83839	6.6074
9.81976	6.62694
9.80119	6.53998
9.78271	6.64523
9.76428	6.80694
9.74592	6.9464
9.72764	7.13915
9.70943	7.34143
9.69128	7.42896
9.6732	7.61931
9.65518	7.88092
9.63724	8.06311
9.61935	8.29299
9.60155	8.48565
9.5838	8.7436
9.56611	9.02501
9.5485	9.21801
9.53094	9.56633
9.51345	10.1338
9.49604	10.5298
9.47867	11.1016
9.46137	11.7105
9.44414	12.1845
9.42697	12.7825
9.40986	13.4318
9.39281	14.2248
9.37583	15.065
9.35891	15.8338
9.34204	16.5046
9.32524	17.2336
9.3085	17.8451
9.29182	18.348
9.27519	18.8227
9.25863	19.4667
9.24213	20.2495
9.22568	21.0261
9.2093	21.8994
9.19297	22.7439
9.17669	23.5211
9.16048	24.3945
9.14433	25.3485
9.12823	26.1998
9.11218	27.0459
9.0962	27.9016
9.08027	28.4878
9.06439	28.9426
9.04858	29.4726
9.03281	29.9908
9.0171	30.454
9.00145	30.9925
8.98585	31.4076
8.9703	31.713
8.9548	32.0115
8.93937	32.3804
8.92398	32.5901
8.90865	32.7727
8.89337	32.9716
8.87814	32.9487
8.86296	32.8251
8.84784	32.6669
8.83277	32.5566
8.81774	32.2377
8.80277	31.6835
8.78786	31.1081
8.77298	30.2402
8.75816	29.1199
8.7434	27.5883
8.72868	25.6339
8.714	23.6697
8.69938	21.8576
8.68481	20.2745
8.67029	19.1552
8.65581	18.4462
8.64139	17.8321
8.62701	17.1868
8.61268	16.6461
8.5984	16.1639
8.58416	15.6638
8.56997	15.0705
8.55583	14.4572
8.54174	13.947
8.52769	13.2974
8.51368	12.3504
8.49973	11.3714
8.48582	10.5084
8.47195	9.86166
8.45813	9.42862
8.44436	9.11816
8.43062	8.76065
8.41693	8.45316
8.4033	8.42493
8.3897	8.46829
8.37614	8.43963
8.36264	8.40394
8.34917	8.47262
8.33574	8.45938
8.32236	8.50191
8.30903	8.63881
8.29573	8.70795
8.28248	8.71058
8.26927	8.81705
8.2561	9.2254
8.24298	9.58491
8.2299	9.74814
8.21685	9.88711
8.20385	10.0871
8.19089	10.2348
8.17797	10.3417
8.16509	10.3896
8.15225	10.368
8.13946	10.1736
8.1267	9.74033
8.11398	9.13574
8.10131	8.21378
8.08867	6.95003
8.07606	5.74928
8.0635	4.7472
8.05099	3.85479
8.0385	3.04992
8.02606	2.53112
8.01366	2.08669
8.00129	1.56606
7.98896	1.2929
7.97667	1.08808
7.96442	0.827761
7.9522	0.678102
7.94002	0.570729
7.92788	0.511032
7.91578	0.398557
7.90371	0.382675
7.89168	0.359093
7.87969	0.326252
7.86773	0.384721
7.85581	0.465978
7.84392	0.438347
7.83207	0.417613
7.82026	0.447384
7.80849	0.460556
7.79674	0.484432
7.78503	0.537511
7.77337	0.563548
7.76173	0.537772
7.75012	0.582274
7.73856	0.619237
7.72703	0.667209
7.71553	0.665854
7.70406	0.675071
7.69263	0.805677
7.68123	0.973329
7.66987	1.01408
7.65855	1.06175
7.64725	1.221
7.63598	1.24289
7.62475	1.24424
7.61356	1.3126
7.60239	1.42782
7.59126	1.5786
7.58017	1.66862
7.5691	1.75874
7.55806	1.85909
7.54707	1.92494
7.5361	2.06052
7.52516	2.2374
7.51425	2.35098
7.50338	2.37077
7.49253	2.41689
7.48172	2.5019
7.47094	2.54522
7.46019	2.62299
7.44947	2.78562
7.43879	2.88121
7.42813	2.99938
7.4175	3.18944
7.4069	3.3885
7.39634	3.57346
7.3858	3.79212
7.37529	4.13348
7.36482	4.41785
7.35437	4.60751
7.34396	4.95674
7.33357	5.31374
7.32321	5.62022
7.31288	6.03827
7.30258	6.53321
7.29231	7.11802
7.28207	7.74219
7.27185	8.34518
7.26167	9.02314
7.25152	9.83576
7.24139	10.7336
7.23129	11.5949
7.22122	12.3835
7.21117	13.0344
7.20116	13.6508
7.19117	14.2465
7.18121	14.7174
7.17128	15.1135
7.16137	15.2109
7.1515	14.7535
7.14164	14.5319
7.13182	15.6288
7.12203	17.3601
7.11225	18.7093
7.10251	19.8718
7.0928	21.0331
7.08311	21.9039
7.07344	22.4808
7.06381	23.098
7.0542	23.8333
7.04461	24.4136
7.03506	24.5547
7.02552	24.7705
7.01601	24.7745
7.00653	24.4887
6.99708	24.0593
6.98765	23.2183
6.97824	21.8081
6.96886	20.1398
6.95951	19.5734
6.95018	20.8826
6.94087	22.7855
6.9316	24.1182
6.92234	24.9862
6.91311	25.656
6.90391	26.1423
6.89473	26.412
6.88557	26.777
6.87644	27.2385
6.86733	28.0743
6.85824	28.5245
6.84918	28.5904
6.84015	28.9765
6.83114	29.6888
6.82215	30.295
6.81319	30.617
6.80424	31.1516
6.79532	31.8426
6.78643	32.1885
6.77756	32.1994
6.76871	32.2714
6.75989	32.387
6.75109	32.5709
6.74231	32.5732
6.73355	32.6331
6.72482	32.7929
6.71611	32.8653
6.70742	32.6975
6.69875	32.13
6.69011	31.7128
6.68149	31.3068
6.67289	30.4313
6.66431	29.2969
6.65576	28.0496
6.64722	27.1471
6.63871	26.1718
6.63022	24.1012
6.62175	21.8696
6.61331	19.9655
6.60488	18.1711
6.59648	16.5839
6.5881	14.9705
6.57974	13.4764
6.5714	12.1826
6.56308	10.9002
6.55478	9.84827
6.54651	8.97978
6.53825	8.31052
6.53001	7.81459
6.5218	7.47227
6.51361	7.13599
6.50544	6.98071
6.49729	7.13547
6.48915	7.24422
6.48104	7.24053
6.47295	7.24674
6.46488	7.20656
6.45683	7.24535
6.4488	7.32852
6.44079	7.45851
6.4328	7.70664
6.42482	8.03955
6.41687	8.72436
6.40894	9.20877
6.40103	9.39288
6.39314	9.70616
6.38526	10.1763
6.37741	10.7482
6.36957	11.3686
6.36176	11.8074
6.35396	12.2298
6.34618	12.825
6.33843	12.9163
6.33069	12.5734
6.32297	12.2117
6.31527	11.5112
6.30758	10.444
6.29992	9.14776
6.29227	7.89839
6.28465	7.16068
6.27704	7.09974
6.26945	7.42253
6.26188	7.78543
6.25432	7.87677
6.24679	7.7253
6.23927	7.55157
6.23177	7.57972
6.22429	7.94564
6.21683	8.59827
6.20938	9.38329
6.20195	10.0671
6.19454	10.5698
6.18715	11.1113
6.17978	11.437
6.17242	11.6857
6.16508	12.1734
6.15776	12.7486
6.15045	13.3377
6.14317	14.3126
6.1359	15.4799
6.12864	16.5825
6.12141	17.8877
6.11419	19.6451
6.10699	21.0764
6.0998	22.4039
6.09263	23.8666
6.08549	25.2764
6.07835	26.7498
6.07123	27.7215
6.06413	28.0154
6.05705	28.8306
6.04998	30.155
6.04293	30.0556
6.0359	29.7945
6.02888	30.107
6.02187	30.6165
6.01489	31.2877
6.00792	31.7164
6.00096	32.0713
5.99403	32.7846
5.98711	33.3801
5.9802	33.6618
5.97331	34.2742
5.96644	34.7659
5.95958	34.7719
5.95274	34.9932
5.94591	35.3063
5.9391	35.9815
5.9323	35.9285
5.92552	35.4679
5.91876	35.4514
5.91201	35.3707
5.90528	35.4677
5.89856	36.0046
5.89186	35.8289
5.88517	35.9178
5.8785	35.8328
5.87184	34.926
5.8652	34.6382
5.85857	34.3149
5.85196	33.9035
5.84536	33.5771
5.83878	33.5517
5.83221	33.9069
5.82566	34.6303
5.81912	34.9076
5.81259	34.6903
5.80608	34.8415
5.79959	35.1967
5.79311	35.6511
5.78665	36.1614
5.78019	36.6224
5.77376	37.3357
5.76734	38.1877
5.76093	37.9256
5.75453	37.6272
5.74815	37.8672
5.74179	37.864
5.73543	37.9305
5.7291	38.0597
5.72277	38.2706
5.71646	38.4131
5.71017	38.4357
5.70389	38.2249
5.69762	38.2295
5.69136	38.3246
5.68513	38.3144
5.6789	38.5753
5.67268	38.7238
5.66648	38.6574
5.6603	38.8205
5.65413	39.1149
5.64797	39.5199
5.64182	39.9865
5.63569	39.8839
5.62957	39.9014
5.62347	40.0621
5.61737	40.2116
5.61129	40.3352
5.60522	40.4916
5.59917	40.5832
5.59313	40.5579
5.5871	40.6503
5.58109	40.8544
5.57509	40.7243
5.5691	40.4262
5.56312	40.3733
5.55716	40.467
5.55121	40.6655
5.54528	40.7915
5.53935	40.863
5.53344	40.872
5.52754	40.9778
5.52166	41.1669
5.51578	41.2711
5.50992	41.3705
5.50407	41.5958
5.49823	41.7169
5.49241	41.8778
5.4866	42.1717
5.4808	42.5092
5.47501	42.6518
5.46923	42.9101
5.46347	43.2271
5.45772	43.3326
5.45198	43.5371
5.44625	43.8393
5.44054	44.1149
5.43484	44.3954
5.42914	44.8834
5.42347	45.623
5.4178	45.9259
5.41214	46.2232
5.4065	46.7502
5.40087	47.3469
5.39525	48.0425
5.38964	48.6782
5.38404	49.2569
5.37846	49.8609
5.37288	50.4391
5.36732	50.9902
5.36177	51.4928
5.35623	52.0734
5.35071	52.6893
5.34519	52.9159
5.33968	53.0787
5.33419	53.4195
5.32871	53.7725
5.32324	54.0587
5.31778	54.278
5.31233	54.5047
5.30689	54.6323
5.30147	54.6731
5.29605	54.8075
5.29065	54.8973
5.28525	54.7419
5.27987	54.6593
5.2745	54.6013
5.26914	54.526
5.26379	54.4069
5.25845	54.3665
5.25312	54.3925
5.24781	54.3579
5.2425	54.3368
5.23721	54.3414
5.23192	54.2834
5.22665	54.187
5.22138	54.0763
5.21613	53.9679
5.21089	53.5669
5.20566	52.9538
5.20044	52.2069
5.19522	51.2436
5.19002	50.5392
5.18483	50.5069
5.17965	50.8045
5.17448	50.8513
5.16933	50.4766
5.16418	49.8417
5.15904	49.1131
5.15391	48.3707
5.14879	47.5075
5.14368	46.3697
5.13859	45.0176
5.1335	43.4386
5.12842	41.6582
5.12335	39.4764
5.1183	36.7262
5.11325	33.3681
5.10821	29.3475
5.10318	24.5445
5.09817	19.4742
5.09316	14.7315
5.08816	11.5343
5.08317	11.4305
5.07819	14.7152
5.07322	20.088
5.06826	26.0595
5.06331	31.201
5.05837	34.7574
5.05344	36.7571
5.04852	37.6872
5.04361	38.0156
5.03871	37.915
5.03382	37.6615
5.02894	37.2969
5.02406	36.748
5.0192	36.167
5.01435	35.466
5.0095	34.7416
5.00467	34.0659
4.99984	33.3107
4.99502	32.4607
4.99021	31.5403
4.98542	30.5645
4.98063	29.4702
4.97585	28.3239
4.97108	27.1177
4.96632	25.798
4.96156	24.3547
4.95682	22.8584
4.95209	21.3652
4.94736	19.8708
4.94264	18.3984
4.93794	16.9797
4.93324	15.5129
4.92855	13.9675
4.92387	12.4514
4.9192	11.0433
4.91453	9.72721
4.90988	8.52128
4.90524	7.52665
4.9006	6.66917
4.89597	5.96856
4.89135	5.34029
4.88674	4.83352
4.88214	4.61385
4.87755	4.57555
4.87296	4.43086
4.86839	4.32807
4.86382	4.21344
4.85926	4.00273
4.85471	3.73064
4.85017	3.5788
4.84564	3.5274
4.84111	3.44434
4.8366	3.42552
4.83209	3.51443
4.82759	3.5503
4.8231	3.55163
4.81862	3.66982
4.81415	3.89605
4.80968	3.98127
4.80522	3.97574
4.80077	4.0045
4.79633	4.01517
4.7919	4.00762
4.78747	4.09152
4.78306	4.19317
4.77865	4.22454
4.77425	4.29924
4.76986	4.28925
4.76547	4.23791
4.7611	4.39437
4.75673	4.58248
4.75237	4.64696
4.74802	4.66373
4.74367	4.59923
4.73934	4.43372
4.73501	4.27726
4.73069	4.20873
4.72638	4.14414
4.72207	4.04622
4.71777	3.92835
4.71348	3.86141
4.7092	3.84372
4.70493	3.81416
4.70066	3.77104
4.69641	3.70902
4.69216	3.66684
4.68791	3.68465
4.68368	3.67369
4.67945	3.64495
4.67523	3.61735
4.67102	3.65427
4.66682	3.67719
4.66262	3.74123
4.65843	3.93476
4.65425	4.2539
4.65007	4.56729
4.64591	4.76885
4.64175	4.8904
4.6376	4.97957
4.63345	4.96153
4.62932	4.92036
4.62519	4.96889
4.62106	4.943
4.61695	4.82517
4.61284	4.781
4.60874	4.86434
4.60465	4.9918
4.60056	5.03752
4.59648	4.98664
4.59241	4.9252
4.58835	4.9071
4.58429	4.87359
4.58024	4.83222
4.5762	4.74776
4.57216	4.57146
4.56814	4.5135
4.56411	4.5185
4.5601	4.47103
4.55609	4.51389
4.55209	4.64513
4.5481	4.73115
4.54411	4.74162
4.54013	4.84598
4.53616	4.97025
4.5322	5.05351
4.52824	5.20932
4.52429	5.46938
4.52034	5.65549
4.51641	5.82433
4.51247	6.10359
4.50855	6.31615
4.50463	6.45344
4.50072	6.5836
4.49682	6.72413
4.49292	6.88527
4.48903	7.02119
4.48515	7.17157
4.48127	7.29581
4.4774	7.38992
4.47354	7.43971
4.46968	7.42467
4.46584	7.40491
4.46199	7.45296
4.45815	7.44164
4.45432	7.47242
4.4505	7.56288
4.44668	7.66853
4.44287	7.79596
4.43907	7.87782
4.43527	7.9983
4.43148	8.19379
4.4277	8.35283
4.42392	8.42982
4.42015	8.59014
4.41638	8.76982
4.41262	8.94798
4.40887	9.05005
4.40513	9.14716
4.40139	9.39004
4.39765	9.64778
4.39393	9.82922
4.39021	10.033
4.38649	10.1856
4.38278	10.1976
4.37908	10.3185
4.37539	10.4401
4.3717	10.5033
4.36801	10.6526
4.36434	10.7935
4.36067	10.9847
4.357	11.197
4.35335	11.3408
4.34969	11.4106
4.34605	11.5497
4.34241	11.6963
4.33877	11.8247
4.33514	11.8895
4.33152	11.8412
4.32791	11.7364
4.3243	11.5226
4.32069	11.217
4.3171	11.0216
4.31351	10.7801
4.30992	10.4571
4.30634	10.1877
4.30277	9.91783
4.2992	9.70007
4.29564	9.55518
4.29208	9.46086
4.28853	9.34019
4.28499	9.25672
4.28145	9.23392
4.27792	9.13782
4.27439	9.04914
4.27087	9.07886
4.26735	9.26787
4.26384	9.46924
4.26034	9.70548
4.25684	9.95324
4.25335	10.166
4.24986	10.3109
4.24638	10.5089
4.24291	10.72
4.23944	10.9494
4.23598	11.2085
4.23252	11.605
4.22906	12.0654
4.22562	12.5596
4.22218	13.1721
4.21874	13.7739
4.21531	14.4343
4.21189	15.0752
4.20847	15.6661
4.20506	16.3715
4.20165	17.1297
4.19825	17.9536
4.19485	18.7662
4.19146	19.7218
4.18807	20.8011
4.18469	21.9912
4.18132	23.2401
4.17795	24.5102
4.17458	25.8256
4.17123	27.129
4.16787	28.4355
4.16453	29.7386
4.16118	30.9037
4.15785	32.013
4.15451	33.1186
4.15119	34.1503
4.14787	35.1718
4.14455	36.1703
4.14124	37.1527
4.13794	38.073
4.13464	38.9705
4.13134	39.8562
4.12805	40.6993
4.12477	41.5148
4.12149	42.3607
4.11822	43.1896
4.11495	43.9554
4.11168	44.7252
4.10843	45.5385
4.10517	46.3301
4.10192	47.0916
4.09868	47.8183
4.09545	48.4636
4.09221	49.0074
4.08899	49.674
4.08576	50.4679
4.08255	51.2173
4.07933	51.8857
4.07613	52.5753
4.07292	53.3109
4.06973	54.011
4.06654	54.5465
4.06335	55.114
4.06017	55.6787
4.05699	56.1917
4.05382	56.6801
4.05065	57.1872
4.04749	57.6681
4.04433	58.1447
4.04118	58.6357
4.03803	59.0507
4.03489	59.4013
4.03175	59.7076
4.02862	59.9451
4.02549	60.2981
4.02237	60.7069
4.01925	61.1252
4.01614	61.4783
4.01303	61.6996
4.00993	61.8707
4.00683	62.0087
4.00373	62.0416
4.00064	62.1289
3.99756	62.1513
3.99448	62.1002
3.9914	62.1027
3.98833	62.1304
3.98527	62.1905
3.98221	62.2398
3.97915	62.3332
3.9761	62.5329
3.97305	62.8049
3.97001	63.0113
3.96697	63.2117
3.96394	63.4915
3.96091	63.8426
3.95789	64.1983
3.95487	64.6183
3.95186	65.034
3.94885	65.4558
3.94584	65.8145
3.94284	66.117
3.93984	66.4679
3.93685	66.8773
3.93386	67.297
3.93088	67.723
3.9279	68.1253
3.92493	68.491
3.92196	68.8298
3.919	69.089
3.91604	69.2853
3.91308	69.4608
3.91013	69.4804
3.90718	69.2605
3.90424	68.9137
3.9013	68.4198
3.89837	67.6596
3.89544	66.7498
3.89252	65.9181
3.8896	65.2256
3.88668	64.9463
3.88377	64.9949
3.88086	65.311
3.87796	65.7307
3.87506	65.895
3.87217	65.8564
3.86928	65.936
3.86639	66.141
3.86351	66.4703
3.86064	67.0004
3.85776	67.5891
3.8549	68.0372
3.85203	68.4027
3.84917	68.8258
3.84631	69.2466
3.84346	69.6602
3.84062	70.1631
3.83777	70.6901
3.83494	71.1931
3.8321	71.7188
3.82927	72.3791
3.82644	73.0051
3.82362	73.5855
3.82081	74.1937
3.81799	74.7249
3.81518	75.215
3.81238	75.678
3.80958	75.9837
3.80678	76.2622
3.80399	76.5058
3.8012	76.7057
3.79841	76.8593
3.79563	76.8859
3.79286	76.8803
3.79008	76.9344
3.78731	76.9506
3.78455	76.9605
3.78179	76.9703
3.77903	76.9381
3.77628	76.8644
3.77353	76.7732
3.77079	76.6948
3.76805	76.598
3.76531	76.4848
3.76258	76.4705
3.75985	76.3824
3.75713	76.2059
3.7544	76.0899
3.75169	76.0006
3.74898	75.9518
3.74627	75.9777
3.74356	76.0761
3.74086	76.0976
3.73816	76.0577
3.73547	76.1082
3.73278	76.2423
3.7301	76.3119
3.72741	76.2965
3.72474	76.2996
3.72206	76.3749
3.71939	76.4617
3.71673	76.5316
3.71406	76.589
3.71141	76.606
3.70875	76.6722
3.7061	76.7781
3.70345	76.8264
3.70081	76.8044
3.69817	76.813
3.69553	76.9027
3.6929	76.9736
3.69027	77.0321
3.68765	77.0442
3.68503	77.0882
3.68241	77.1422
3.6798	77.1427
3.67719	77.1123
3.67458	77.0372
3.67198	76.9998
3.66938	76.9649
3.66678	76.921
3.66419	76.8408
3.66161	76.6927
3.65902	76.6322
3.65644	76.5612
3.65387	76.3962
3.65129	76.2587
3.64872	76.1458
3.64616	76.0803
3.64359	75.9453
3.64103	75.7885
3.63848	75.6803
3.63593	75.6393
3.63338	75.4888
3.63084	75.2886
3.6283	75.1511
3.62576	75.0681
3.62322	74.9384
3.62069	74.8051
3.61817	74.6705
3.61564	74.4769
3.61312	74.3442
3.61061	74.2658
3.6081	74.1619
3.60559	74.1176
3.60308	74.0556
3.60058	73.9685
3.59808	73.9399
3.59558	73.8954
3.59309	73.8525
3.59061	73.7962
3.58812	73.7307
3.58564	73.6169
3.58316	73.5256
3.58069	73.5259
3.57822	73.4405
3.57575	73.4236
3.57328	73.4102
3.57082	73.3256
3.56836	73.2357
3.56591	73.1674
3.56346	73.1442
3.56101	73.0438
3.55857	72.9229
3.55613	72.8291
3.55369	72.7163
3.55126	72.6181
3.54883	72.5422
3.5464	72.4593
3.54397	72.3524
3.54155	72.2351
3.53914	72.1406
3.53672	72.0308
3.53431	71.9356
3.5319	71.711
3.5295	71.4952
3.5271	71.4582
3.5247	71.3958
3.52231	71.2496
3.51991	71.0651
3.51753	70.9319
3.51514	70.7655
3.51276	70.5491
3.51038	70.3892
3.50801	70.1519
3.50563	69.8477
3.50327	69.7271
3.5009	69.6046
3.49854	69.4336
3.49618	69.3172
3.49382	69.2356
3.49147	69.1509
3.48912	69.0911
3.48677	69.0312
3.48443	68.943
3.48209	68.8468
3.47975	68.7727
3.47742	68.6257
3.47509	68.5164
3.47276	68.4366
3.47044	68.421
3.46812	68.4323
3.4658	68.4455
3.46348	68.4676
3.46117	68.3977
3.45886	68.35
3.45656	68.2907
3.45425	68.1947
3.45195	68.0656
3.44966	67.8822
3.44736	67.7494
3.44507	67.6481
3.44279	67.5246
3.4405	67.3796
3.43822	67.1821
3.43594	66.9951
3.43367	66.8823
3.43139	66.6909
3.42912	66.499
3.42686	66.2671
3.42459	66.0574
3.42233	65.8783
3.42007	65.6616
3.41782	65.4364
3.41557	65.1981
3.41332	64.9602
3.41108	64.7843
3.40883	64.4969
3.40659	64.1348
3.40435	63.7291
3.40212	63.2035
3.39989	62.7302
3.39766	62.3934
3.39544	62.3252
3.39322	62.531
3.391	62.8366
3.38878	63.1445
3.38657	63.3256
3.38436	63.4193
3.38215	63.4869
3.37994	63.3825
3.37774	63.2114
3.37554	63.1305
3.37335	63.057
3.37115	62.9282
3.36896	62.7806
3.36678	62.6309
3.36459	62.4704
3.36241	62.2998
3.36023	62.1132
3.35805	61.838
3.35588	61.6162
3.35371	61.4682
3.35154	61.3266
3.34938	61.0962
3.34721	60.9222
3.34505	60.715
3.3429	60.4482
3.34074	60.1959
3.33859	59.8499
3.33644	59.485
3.3343	59.0287
3.33215	58.5699
3.33001	58.0453
3.32788	57.4306
3.32574	56.7989
3.32361	56.1367
3.32148	55.4407
3.31936	54.5696
3.31723	53.6218
3.31511	52.6607
3.31299	51.6194
3.31088	50.6224
3.30876	49.7984
3.30665	49.2399
3.30455	49.0996
3.30244	49.2955
3.30034	49.5388
3.29824	49.6985
3.29614	49.7667
3.29405	49.8428
3.29196	49.8099
3.28987	49.7069
3.28778	49.6245
3.2857	49.5441
3.28362	49.533
3.28154	49.4884
3.27946	49.5671
3.27739	49.7564
3.27532	49.919
3.27325	50.0387
3.27119	50.1369
3.26913	50.0975
3.26707	50.0111
3.26501	49.9911
3.26295	49.9284
3.2609	49.8105
3.25885	49.7188
3.2568	49.6926
3.25476	49.6822
3.25272	49.6254
3.25068	49.6142
3.24864	49.6407
3.24661	49.6249
3.24458	49.5908
3.24255	49.4785
3.24052	49.3118
3.2385	49.0812
3.23648	48.8341
3.23446	48.668
3.23244	48.4581
3.23043	48.0835
3.22841	47.6475
3.2264	47.2743
3.2244	46.9464
3.22239	46.6448
3.22039	46.3803
3.21839	46.125
3.2164	45.7927
3.2144	45.4368
3.21241	45.2141
3.21042	45.0613
3.20844	44.8682
3.20645	44.738
3.20447	44.496
3.20249	44.3057
3.20051	44.1976
3.19854	44.1489
3.19657	44.0487
3.1946	43.9896
3.19263	43.9825
3.19067	43.8306
3.1887	43.6125
3.18674	43.3883
3.18479	43.2197
3.18283	43.0926
3.18088	42.9353
3.17893	42.7275
3.17698	42.5256
3.17504	42.4635
3.17309	42.3288
3.17115	42.2088
3.16921	42.1222
3.16728	41.9967
3.16534	41.8344
3.16341	41.7021
3.16148	41.6698
3.15956	41.497
3.15763	41.3061
3.15571	41.2092
3.15379	41.0883
3.15187	41.0718
3.14996	41.0383
3.14805	40.8936
3.14614	40.75
3.14423	40.6159
3.14232	40.5085
3.14042	40.4543
3.13852	40.4127
3.13662	40.2821
3.13472	40.1436
3.13283	40.1051
3.13094	39.9294
3.12905	39.7496
3.12716	39.6878
3.12528	39.5976
3.12339	39.4987
3.12151	39.3319
3.11964	39.1752
3.11776	39.071
3.11589	38.9492
3.11401	38.8592
3.11214	38.7668
3.11028	38.7189
3.10841	38.6607
3.10655	38.4948
3.10469	38.2618
3.10283	38.1318
3.10098	38.1395
3.09912	38.0831
3.09727	37.9925
3.09542	37.9228
3.09358	37.8776
3.09173	37.8636
3.08989	37.7113
3.08805	37.6895
3.08621	37.6512
3.08437	37.5884
3.08254	37.5176
3.08071	37.4803
3.07888	37.4946
3.07705	37.4024
3.07523	37.427
3.0734	37.4981
3.07158	37.4213
3.06977	37.3143
3.06795	37.2535
3.06613	37.0977
3.06432	36.9991
3.06251	36.9453
3.0607	36.956
3.0589	36.9409
3.0571	36.9478
3.05529	36.9281
3.05349	36.8322
3.0517	36.7674
3.0499	36.729
3.04811	36.8043
3.04632	36.8274
3.04453	36.7688
3.04274	36.6819
3.04096	36.6136
3.03918	36.5579
3.0374	36.5329
3.03562	36.5932
3.03384	36.643
3.03207	36.5194
3.03029	36.4683
3.02852	36.4716
3.02676	36.4464
3.02499	36.4534
3.02323	36.4051
3.02146	36.4127
3.0197	36.3703
3.01795	36.2542
3.01619	36.3366
3.01444	36.3328
3.01269	36.2417
3.01094	36.2014
3.00919	36.1461
3.00744	36.068
3.0057	36.075
3.00396	36.1018
3.00222	36.0954
3.00048	36.0878
2.99875	36.1168
2.99701	36.0839
2.99528	36.1033
2.99355	36.153
2.99183	36.0384
2.9901	35.866
2.98838	35.8203
2.98666	35.7934
2.98494	35.7747
2.98322	35.8997
2.9815	35.8784
2.97979	35.7559
2.97808	35.8003
2.97637	35.7461
2.97466	35.7086
2.97295	35.7026
2.97125	35.7193
2.96955	35.683
2.96785	35.6269
2.96615	35.707
2.96446	35.6812
2.96276	35.4866
2.96107	35.4507
2.95938	35.4391
2.95769	35.413
2.95601	35.4544
2.95432	35.4367
2.95264	35.3571
2.95096	35.4138
2.94928	35.5663
2.9476	35.647
2.94593	35.6123
2.94425	35.5544
2.94258	35.4124
2.94092	35.4335
2.93925	35.6303
2.93758	35.634
2.93592	35.5974
2.93426	35.5875
2.9326	35.5795
2.93094	35.6172
2.92928	35.6605
2.92763	35.703
2.92598	35.7705
2.92433	35.8422
2.92268	35.8016
2.92103	35.8295
2.91939	35.8167
2.91775	36.1059
2.9161	36.2765
2.91447	36.0846
2.91283	35.9985
2.91119	36.0681
2.90956	36.2688
2.90793	36.4572
2.9063	36.4374
2.90467	36.4738
2.90304	36.6968
2.90142	36.7204
2.89979	36.6659
2.89817	36.6322
2.89656	36.7472
2.89494	36.9347
2.89332	36.8979
2.89171	36.8695
2.8901	37.0301
2.88849	37.1778
2.88688	37.2095
2.88527	37.1854
2.88367	37.3847
2.88206	37.6306
2.88046	37.7509
2.87886	37.7872
2.87727	37.7816
2.87567	37.8875
2.87408	37.9099
2.87248	37.9758
2.87089	38.1253
2.8693	38.2693
2.86772	38.3922
2.86613	38.366
2.86455	38.4618
2.86297	38.6451
2.86139	38.8311
2.85981	38.9268
2.85823	39.0151
2.85666	39.1673
2.85508	39.3907
2.85351	39.5106
2.85194	39.5939
2.85038	39.7477
2.84881	39.9106
2.84724	40.0947
2.84568	40.2753
2.84412	40.3289
2.84256	40.439
2.841	40.6289
2.83945	40.77
2.83789	41.0317
2.83634	41.1732
2.83479	41.1741
2.83324	41.4509
2.83169	41.6464
2.83015	41.7205
2.82861	41.9048
2.82706	42.1284
2.82552	42.3981
2.82398	42.5259
2.82245	42.7633
2.82091	42.9435
2.81938	43.0721
2.81784	43.3513
2.81631	43.5904
2.81479	43.7508
2.81326	43.9388
2.81173	43.9955
2.81021	44.1164
2.80869	44.36
2.80716	44.6588
2.80565	44.9374
2.80413	45.3646
2.80261	45.7382
2.8011	45.6197
2.79959	45.7175
2.79808	46.0448
2.79657	46.2302
2.79506	46.3286
2.79355	46.5705
2.79205	46.7715
2.79055	46.997
2.78904	47.4105
2.78754	47.7889
2.78605	47.8343
2.78455	47.7687
2.78306	47.9432
2.78156	48.1021
2.78007	48.1609
2.77858	48.2756
2.77709	48.5507
2.77561	48.8442
2.77412	49.117
2.77264	49.5651
2.77116	50.2154
2.76968	50.5425
2.7682	50.7337
2.76672	51.0599
2.76524	51.5622
2.76377	52.1128
2.7623	52.2732
2.76083	52.2749
2.75936	52.4466
2.75789	53.0542
2.75642	54.1536
2.75496	54.7124
2.7535	54.6472
2.75203	54.871
2.75057	55.0965
2.74912	55.5582
2.74766	55.9946
2.7462	56.3717
2.74475	56.8343
2.7433	57.474
2.74185	58.5143
2.7404	59.5239
2.73895	59.8038
2.7375	59.6413
2.73606	60.1803
2.73462	60.9509
2.73318	61.1334
2.73174	61.5276
2.7303	62.188
2.72886	62.7874
2.72742	63.5478
2.72599	64.7705
2.72456	65.8768
2.72313	66.095
2.7217	66.8987
2.72027	67.8836
2.71884	67.7499
2.71742	68.0538
2.71599	68.3838
2.71457	68.8711
2.71315	69.5165
2.71173	70.4919
2.71032	70.8845
2.7089	70.6954
2.70748	70.3545
2.70607	70.0099
2.70466	69.9391
2.70325	69.8828
2.70184	69.9315
2.70043	69.7757
2.69903	69.5523
2.69762	69.8359
2.69622	70.5077
2.69482	71.5214
2.69342	72.444
2.69202	72.7201
2.69062	73.2201
2.68923	74.0034
2.68783	74.7978
2.68644	75.5764
2.68505	76.2367
2.68366	76.918
2.68227	77.354
2.68089	77.9468
2.6795	78.9715
2.67812	79.6462
2.67673	80.3338
2.67535	80.4543
2.67397	80.5634
2.6726	81.0745
2.67122	82.5627
2.66984	83.0495
2.66847	82.4673
2.6671	83.3434
2.66572	83.8302
2.66435	83.5621
2.66299	82.9017
2.66162	83.0112
2.66025	83.3208
2.65889	83.4516
2.65753	83.3659
2.65616	83.7245
2.65481	83.835
2.65345	84.0684
2.65209	84.2358
2.65073	84.0413
2.64938	83.9648
2.64803	84.1807
2.64667	84.4232
2.64532	84.5512
2.64397	84.5447
2.64263	84.6689
2.64128	84.5955
2.63994	84.5564
2.63859	84.7009
2.63725	84.8578
2.63591	85.0049
2.63457	85.3646
2.63323	85.445
2.6319	85.757
2.63056	86.5524
2.62923	86.16
2.62789	85.9609
2.62656	86.2431
2.62523	85.709
2.6239	85.5218
2.62258	85.7791
2.62125	86.5636
2.61993	86.6811
2.6186	86.2494
2.61728	86.8745
2.61596	86.7691
2.61464	86.2153
2.61332	86.232
2.61201	86.1411
2.61069	86.3673
2.60938	86.6871
2.60807	86.736
2.60675	87.0652
2.60544	87.575
2.60414	87.1468
2.60283	86.7523
2.60152	86.6719
2.60022	86.5294
2.59891	86.4641
2.59761	86.8784
2.59631	87.9699
2.59501	89.0347
2.59371	88.0148
2.59242	86.7815
2.59112	86.6592
2.58983	86.8281
2.58853	87.1345
2.58724	87.3084
2.58595	87.003
2.58466	87.4202
2.58338	87.5619
2.58209	87.1231
2.5808	86.996
2.57952	86.746
2.57824	86.9979
2.57695	87.2417
2.57567	86.9894
2.5744	87.1882
2.57312	87.3732
2.57184	86.8997
2.57057	87.0923
2.56929	87.2518
2.56802	86.9063
2.56675	86.7946
2.56548	87.0576
2.56421	87.3796
2.56294	87.5388
2.56168	87.6084
2.56041	87.3131
2.55915	86.9204
2.55789	86.7164
2.55662	86.5722
2.55536	86.5698
2.5541	86.7687
2.55285	87.017
2.55159	87.065
2.55034	87.0389
2.54908	86.9222
2.54783	86.8366
2.54658	86.6696
2.54533	86.6266
2.54408	86.7612
2.54283	86.9211
2.54159	86.7876
2.54034	86.6613
2.5391	86.7184
2.53785	86.8041
2.53661	86.9001
2.53537	86.8887
2.53413	86.8169
2.53289	86.7099
2.53166	86.6895
2.53042	86.7618
2.52919	86.8146
2.52795	86.8054
2.52672	86.8433
2.52549	86.8835
2.52426	86.8758
2.52303	86.762
2.52181	86.7409
2.52058	86.7152
2.51936	86.7163
2.51813	86.7554
2.51691	86.691
2.51569	86.6777
2.51447	86.7605
2.51325	86.7542
2.51203	86.7413
2.51082	86.7767
2.5096	86.7481
2.50839	86.6916
2.50717	86.6649
2.50596	86.6065
2.50475	86.6425
2.50354	86.7164
2.50233	86.6125
2.50113	86.5153
2.49992	86.5726
2.49872	86.6465
2.49751	86.7402
2.49631	86.9052
2.49511	86.9472
2.49391	86.9375
2.49271	86.8597
2.49151	86.845
2.49031	86.7839
2.48912	86.7772
2.48792	86.9163
2.48673	87.0237
2.48554	87.0702
2.48435	87.1836
2.48316	87.2712
2.48197	87.2025
2.48078	87.0937
2.4796	87.1654
2.47841	87.1724
2.47723	87.2314
2.47604	87.3317
2.47486	87.3492
2.47368	87.3895
2.4725	87.4687
2.47132	87.5083
2.47014	87.4749
2.46897	87.5256
2.46779	87.6219
2.46662	87.7361
2.46545	87.7754
2.46427	87.7231
2.4631	87.7525
2.46193	87.7054
2.46077	87.6673
2.4596	87.6225
2.45843	87.6084
2.45727	87.7313
2.4561	87.7549
2.45494	87.8126
2.45378	87.9895
2.45262	87.9283
2.45146	87.8372
2.4503	87.815
2.44914	87.8503
2.44799	88.0443
2.44683	88.0887
2.44568	87.9286
2.44452	87.9041
2.44337	88.0935
2.44222	88.006
2.44107	87.9671
2.43992	88.1083
2.43877	88.0611
2.43763	88.0561
2.43648	88.1471
2.43534	88.1569
2.43419	88.164
2.43305	88.3489
2.43191	88.4235
2.43077	88.3189
2.42963	88.2303
2.42849	88.2939
2.42736	88.3412
2.42622	88.3829
2.42509	88.467
2.42395	88.4603
2.42282	88.4845
2.42169	88.4563
2.42056	88.4699
2.41943	88.5201
2.4183	88.5305
2.41717	88.6206
2.41605	88.6622
2.41492	88.6551
2.4138	88.7564
2.41267	88.8619
2.41155	88.7993
2.41043	88.6891
2.40931	88.7292
2.40819	88.7378
2.40707	88.747
2.40595	88.7497
2.40484	88.8031
2.40372	88.8052
2.40261	88.8038
2.4015	88.9638
2.40039	89.0403
2.39928	88.9677
2.39817	88.9669
2.39706	88.9937
2.39595	89.0413
2.39484	89.0533
2.39374	89.0299
2.39263	88.9819
2.39153	88.9259
2.39043	88.9574
2.38932	89.0918
2.38822	89.2209
2.38712	89.2744
2.38603	89.2161
2.38493	89.2543
2.38383	89.3416
2.38274	89.2804
2.38164	89.2665
2.38055	89.2862
2.37946	89.298
2.37836	89.3299
2.37727	89.4119
2.37618	89.459
2.3751	89.4587
2.37401	89.3781
2.37292	89.3172
2.37184	89.3079
2.37075	89.4594
2.36967	89.6156
2.36859	89.566
2.3675	89.5715
2.36642	89.7573
2.36534	89.7819
2.36427	89.6486
2.36319	89.5723
2.36211	89.5198
2.36104	89.614
2.35996	89.597
2.35889	89.5805
2.35781	89.6585
2.35674	89.7344
2.35567	89.7975
2.3546	89.87
2.35353	89.8409
2.35247	89.7963
2.3514	89.8066
2.35033	89.8936
2.34927	89.9392
2.3482	89.8528
2.34714	89.8446
2.34608	89.9179
2.34502	89.9054
2.34396	89.8854
2.3429	89.7513
2.34184	89.6878
2.34078	89.8176
2.33973	89.8285
2.33867	89.8244
2.33762	89.9395
2.33656	89.9833
2.33551	90.0584
2.33446	90.1902
2.33341	90.2305
2.33236	90.2205
2.33131	90.2879
2.33026	90.2347
2.32922	90.0758
2.32817	90.0145
2.32712	90.0665
2.32608	90.0724
2.32504	90.1843
2.324	90.2535
2.32295	90.2253
2.32191	90.2635
2.32087	90.4317
2.31984	90.4389
2.3188	90.2385
2.31776	90.1257
2.31673	90.1931
2.31569	90.2681
2.31466	90.3614
2.31362	90.431
2.31259	90.355
2.31156	90.3516
2.31053	90.4192
2.3095	90.3788
2.30847	90.4425
2.30745	90.568
2.30642	90.5679
2.3054	90.4709
2.30437	90.511
2.30335	90.5972
2.30232	90.4441
2.3013	90.4074
2.30028	90.4093
2.29926	90.3904
2.29824	90.4201
2.29722	90.4775
2.29621	90.5339
2.29519	90.5202
2.29417	90.4343
2.29316	90.4354
2.29215	90.5615
2.29113	90.6275
2.29012	90.6393
2.28911	90.6545
2.2881	90.6595
2.28709	90.6552
2.28608	90.5988
2.28507	90.6538
2.28407	90.6096
2.28306	90.6511
2.28206	90.8177
2.28105	90.7442
2.28005	90.6654
2.27905	90.6069
2.27805	90.6781
2.27705	90.8393
2.27605	90.8164
2.27505	90.7136
2.27405	90.7134
2.27305	90.7429
2.27206	90.7828
2.27106	90.858
2.27007	90.8154
2.26907	90.5886
2.26808	90.5245
2.26709	90.4913
2.2661	90.5524
2.26511	90.6904
2.26412	90.8083
2.26313	90.7829
2.26214	90.8278
2.26116	90.8181
2.26017	90.7412
2.25919	90.7819
2.2582	90.8412
2.25722	90.7357
2.25624	90.627
2.25526	90.6474
2.25428	90.7516
2.2533	90.8232
2.25232	90.8365
2.25134	90.831
2.25036	90.735
2.24939	90.7439
2.24841	90.8738
2.24744	90.9686
2.24646	90.9346
2.24549	90.8309
2.24452	90.8482
2.24355	90.8757
2.24257	90.9505
2.24161	90.9467
2.24064	90.8342
2.23967	90.8817
2.2387	91.0262
2.23774	91.1176
2.23677	91.0923
2.23581	91.0574
2.23484	90.9758
2.23388	90.9786
2.23292	90.8646
2.23196	90.7748
2.231	90.8629
2.23004	91.0008
2.22908	90.8566
2.22812	90.7808
2.22716	90.8769
2.22621	90.9631
2.22525	91.0547
2.2243	91.0089
2.22334	90.9073
2.22239	90.9799
2.22144	91.1087
2.22049	91.0422
2.21953	90.9158
2.21859	90.9461
2.21764	90.9052
2.21669	90.8716
2.21574	90.9525
2.21479	90.9547
2.21385	90.97
2.2129	90.9272
2.21196	90.9202
2.21102	90.9552
2.21007	91.1113
2.20913	91.1054
2.20819	91.0705
2.20725	90.9472
2.20631	90.8914
2.20537	90.9505
2.20444	91.0563
2.2035	91.0422
2.20256	90.9745
2.20163	91.1525
2.20069	91.2238
2.19976	91.1159
2.19883	91.0414
2.19789	91.0457
2.19696	91.0471
2.19603	91.0823
2.1951	91.0576
2.19417	90.988
2.19325	91.0716
2.19232	91.055
2.19139	91.0897
2.19047	91.0912
2.18954	90.9598
2.18862	91.0712
2.18769	91.0439
2.18677	90.9109
2.18585	90.9308
2.18493	90.9582
2.18401	90.9524
2.18309	91.0389
2.18217	91.1349
2.18125	91.1485
2.18033	91.2078
2.17942	91.229
2.1785	91.212
2.17759	91.1135
2.17667	90.986
2.17576	91.0988
2.17485	91.2262
2.17393	91.2478
2.17302	91.1468
2.17211	91.0885
2.1712	91.0199
2.17029	90.9749
2.16939	91.074
2.16848	91.086
2.16757	91.0295
2.16667	90.9997
2.16576	91.0074
2.16486	91.028
2.16395	90.9956
2.16305	90.9999
2.16215	91.2031
2.16125	91.2264
2.16035	91.0437
2.15945	91.0456
2.15855	91.1477
2.15765	91.2385
2.15675	91.3177
2.15586	91.2553
2.15496	91.1958
2.15406	91.0755
2.15317	91.0175
2.15228	91.0502
2.15138	90.9971
2.15049	91.0379
2.1496	91.0945
2.14871	91.134
2.14782	91.1431
2.14693	91.1252
2.14604	91.1109
2.14515	91.2556
2.14427	91.3574
2.14338	91.1191
2.14249	90.9662
2.14161	90.9589
2.14072	91.0557
2.13984	91.0178
2.13896	90.8723
2.13808	90.9583
2.13719	91.0489
2.13631	91.156
2.13543	91.2319
2.13455	91.1899
2.13368	91.061
2.1328	91.0821
2.13192	91.131
2.13105	91.0597
2.13017	90.9501
2.1293	90.9128
2.12842	90.9506
2.12755	91.1544
2.12668	91.0929
2.1258	90.9554
2.12493	90.9165
2.12406	90.7902
2.12319	90.8588
2.12232	91.0376
2.12145	91.0311
2.12059	91.0203
2.11972	90.9319
2.11885	90.9116
2.11799	91.0603
2.11712	91.0054
2.11626	90.8471
2.1154	90.9227
2.11453	90.8523
2.11367	90.7441
2.11281	90.7414
2.11195	90.6505
2.11109	90.6638
2.11023	90.7881
2.10937	90.9594
2.10851	90.9072
2.10766	90.8399
2.1068	90.85
2.10594	90.8255
2.10509	90.6324
2.10423	90.7084
2.10338	90.757
2.10253	90.5225
2.10168	90.4933
2.10082	90.6378
2.09997	90.7206
2.09912	90.6987
2.09827	90.6759
2.09742	90.7566
2.09658	90.9007
2.09573	90.7949
2.09488	90.5403
2.09404	90.6522
2.09319	90.711
2.09235	90.7186
2.0915	90.9319
2.09066	90.7769
2.08982	90.6794
2.08897	90.7989
2.08813	90.8292
2.08729	90.6566
2.08645	90.4585
2.08561	90.2974
2.08477	90.426
2.08394	90.4826
2.0831	90.3753
2.08226	90.7265
2.08143	90.9678
2.08059	90.6994
2.07976	90.5567
2.07892	90.7093
2.07809	90.6109
2.07726	90.4643
2.07643	90.6565
2.07559	90.7488
2.07476	90.6847
2.07393	90.8761
2.0731	91.02
2.07228	90.9405
2.07145	90.87
2.07062	90.6178
2.06979	90.5895
2.06897	90.5692
2.06814	90.4716
2.06732	90.3271
2.06649	90.2065
2.06567	90.3207
2.06485	90.2578
2.06403	90.2772
2.0632	90.3304
2.06238	90.474
2.06156	90.6003
2.06074	90.6361
2.05993	90.7173
2.05911	90.561
2.05829	90.136
2.05747	90.2122
2.05666	90.4135
2.05584	90.2475
2.05503	90.1208
2.05421	89.7934
2.0534	89.8769
2.05259	90.2479
2.05177	90.2785
2.05096	90.3124
2.05015	90.3366
2.04934	90.5681
2.04853	90.5454
2.04772	90.2622
2.04691	89.983
2.04611	90.1155
2.0453	90.2085
2.04449	89.9623
2.04369	89.9492
2.04288	90.2505
2.04208	90.4474
2.04127	90.3479
2.04047	90.1742
2.03967	90.0773
2.03886	89.9604
2.03806	89.9595
2.03726	89.9829
2.03646	90.1478
2.03566	90.2607
2.03486	90.3189
2.03407	90.2463
2.03327	90.1029
2.03247	89.7859
2.03167	89.7904
2.03088	89.6971
2.03008	89.667
2.02929	89.8351
2.0285	89.872
2.0277	89.9567
2.02691	90.1857
2.02612	89.945
2.02533	89.8624
2.02453	89.8811
2.02374	90.0325
2.02295	90.3047
2.02217	90.0403
2.02138	89.6491
2.02059	89.7315
2.0198	89.8227
2.01902	89.5434
2.01823	89.3401
2.01744	89.2967
2.01666	89.3244
2.01588	89.0605
2.01509	89.1924
2.01431	89.4477
2.01353	89.2702
2.01275	88.6398
2.01196	88.6568
2.01118	88.8489
2.0104	88.8164
2.00963	89.2122
2.00885	89.2311
2.00807	89.0423
2.00729	89.4639
2.00651	89.817
2.00574	89.6413
2.00496	89.1387
2.00419	88.9581
2.00341	89.1935
2.00264	89.4228
2.00187	89.3264
2.00109	89.1571
2.00032	89.0654
