Name: Micaceous Sandstone (Brownstone)
Type: Rock
Class: Sedimentary
Subclass:  Sandstone 
Particle Size: Solid surface
Sample No.: Ward60.txt
Owner: JPL
Wavelength range:  IR 
Origin: Ward's Collection of American Rocks.  Sample locality - Portland, Middlesex County, Connecticut.
Collected by:  Ward's Natural Science
Description: A dark reddish-brown sandstone composed of grains of quartz
feldspar and muscovite with a ferruginous cement.
Geologic age - Upper Triassic.



Measurement: Hemispherical reflectance
First Column: X
Second Column: Y
X Units: Wavelength (micrometers)
Y Units: Reflectance (percent)
First X Value: 15.3871
Last X Value: 1.9998
Number of X Values: 2257
Additional information: None

15.3871   3.88600
15.3416   4.02651
15.2964   4.14347
15.2514   4.29386
15.2066   4.16621
15.1622   3.99103
15.1180   3.87209
15.0740   3.89246
15.0303   3.65805
14.9869   3.30563
14.9437   3.37918
14.9008   3.52907
14.8581   3.29825
14.8156   3.36547
14.7734   3.58031
14.7314   3.47252
14.6897   3.39014
14.6482   3.51560
14.6069   3.73526
14.5659   3.86453
14.5251   3.77455
14.4845   3.62014
14.4442   3.64155
14.4041   3.81372
14.3642   3.70156
14.3245   3.27522
14.2850   3.03675
14.2458   2.98968
14.2068   3.24035
14.1679   3.61247
14.1293   3.61843
14.0909   3.55824
14.0528   3.46336
14.0148   3.53099
13.9770   3.63566
13.9394   3.79751
13.9021   3.77346
13.8649   3.70745
13.8279   3.90053
13.7911   4.04788
13.7546   3.99455
13.7182   3.80276
13.6820   3.73483
13.6460   3.65414
13.6101   3.68801
13.5745   4.07523
13.5391   4.32889
13.5038   4.18063
13.4687   4.20711
13.4339   4.40962
13.3991   4.29071
13.3646   4.19721
13.3302   4.42502
13.2961   4.54042
13.2621   4.28505
13.2282   4.39966
13.1946   4.53861
13.1611   4.49325
13.1278   4.65469
13.0946   4.79449
13.0616   4.69097
13.0288   4.71137
12.9962   4.88318
12.9637   5.07621
12.9313   5.23775
12.8992   5.58173
12.8672   5.88201
12.8353   5.90759
12.8036   5.99805
12.7721   5.99586
12.7407   5.63761
12.7095   5.05002
12.6784   4.59839
12.6475   4.30244
12.6167   4.27144
12.5861   4.52521
12.5556   4.75550
12.5253   4.76176
12.4951   4.72354
12.4651   4.56692
12.4352   4.18412
12.4054   3.71140
12.3758   3.12306
12.3463   2.76665
12.3170   2.65938
12.2878   2.40069
12.2588   2.44215
12.2299   2.60556
12.2011   2.55382
12.1725   2.60973
12.1439   2.94151
12.1156   3.06510
12.0873   2.95960
12.0592   3.09368
12.0312   3.31894
12.0034   3.35173
11.9757   3.40734
11.9481   3.47530
11.9206   3.52571
11.8933   3.42585
11.8661   3.36803
11.8390   3.55326
11.8120   3.83338
11.7852   4.00425
11.7584   3.87372
11.7318   3.80037
11.7053   3.94804
11.6790   4.01575
11.6527   4.07575
11.6266   4.06873
11.6006   4.03922
11.5747   4.05598
11.5489   4.18929
11.5233   4.33714
11.4977   4.40022
11.4723   4.34182
11.4469   4.45947
11.4217   4.53130
11.3966   4.49298
11.3716   4.48560
11.3468   4.53133
11.3220   4.70956
11.2973   4.73999
11.2728   4.71041
11.2483   4.75053
11.2240   4.77599
11.1997   4.88980
11.1756   5.04363
11.1515   5.16135
11.1276   5.19103
11.1038   5.19910
11.0801   5.19931
11.0564   5.17634
11.0329   5.32239
11.0095   5.30880
10.9862   5.27909
10.9629   5.42517
10.9398   5.59188
10.9168   5.72869
10.8938   5.66028
10.8710   5.57443
10.8483   5.68884
10.8256   5.85338
10.8031   6.05199
10.7806   6.31010
10.7582   6.25457
10.7360   6.30616
10.7138   6.52763
10.6917   6.68973
10.6697   6.91441
10.6478   7.16612
10.6260   7.27512
10.6042   7.33549
10.5826   7.49267
10.5610   7.83017
10.5396   7.95899
10.5182   8.12013
10.4969   8.45449
10.4757   8.70307
10.4546   8.76604
10.4335   8.85917
10.4126   8.99943
10.3917   9.20098
10.3709   9.43604
10.3502   9.69449
10.3296   9.84812
10.3091  10.02700
10.2886  10.27360
10.2683  10.65400
10.2480  11.03830
10.2277  11.22390
10.2076  11.24700
10.1876  11.47600
10.1676  11.87350
10.1477  12.27790
10.1279  12.54230
10.1081  12.78220
10.0885  13.17910
10.0689  13.44570
10.0494  13.67390
10.0299  13.89300
10.0106  14.19950
 9.9913  14.51320
 9.9720  14.74790
 9.9529  14.92530
 9.9338  15.09670
 9.9148  15.23030
 9.8959  15.41380
 9.8771  15.61220
 9.8583  15.71090
 9.8396  15.75580
 9.8210  15.61380
 9.8024  15.62280
 9.7839  15.75870
 9.7655  15.90760
 9.7471  16.21500
 9.7288  16.63230
 9.7106  16.92460
 9.6925  17.30760
 9.6744  17.82120
 9.6564  18.15890
 9.6384  18.34130
 9.6205  18.41900
 9.6027  18.40770
 9.5850  18.35390
 9.5673  18.19320
 9.5497  18.01570
 9.5321  17.89080
 9.5146  17.67790
 9.4972  17.53270
 9.4798  17.52660
 9.4625  17.50660
 9.4453  17.53190
 9.4281  17.81830
 9.4110  18.37590
 9.3940  18.99180
 9.3770  19.42940
 9.3600  19.79910
 9.3432  20.21700
 9.3264  20.58520
 9.3096  20.76240
 9.2930  20.83470
 9.2763  20.91760
 9.2598  21.00360
 9.2432  21.15430
 9.2268  21.16230
 9.2104  21.18590
 9.1941  21.09860
 9.1778  20.99480
 9.1616  20.90260
 9.1454  20.88220
 9.1293  20.67820
 9.1133  20.55070
 9.0973  20.43950
 9.0814  20.22670
 9.0655  20.12210
 9.0497  20.13030
 9.0339  20.10000
 9.0182  20.03800
 9.0025  19.94150
 8.9870  19.98000
 8.9714  20.01780
 8.9559  20.05170
 8.9405  19.99040
 8.9251  20.06770
 8.9097  20.21520
 8.8945  20.25690
 8.8792  20.18470
 8.8641  20.18410
 8.8489  20.38970
 8.8338  20.49970
 8.8188  20.38510
 8.8039  20.23810
 8.7889  20.19550
 8.7741  20.28150
 8.7592  20.27130
 8.7445  20.13170
 8.7297  20.12820
 8.7151  19.88560
 8.7005  19.44490
 8.6859  19.04180
 8.6714  18.57760
 8.6569  17.97910
 8.6425  17.08100
 8.6281  16.64820
 8.6137  17.34290
 8.5994  18.58380
 8.5852  19.76310
 8.5710  20.46430
 8.5569  20.90120
 8.5428  21.26870
 8.5287  21.51480
 8.5147  21.73570
 8.5008  21.99590
 8.4869  22.15670
 8.4730  22.32960
 8.4592  22.60920
 8.4454  22.86800
 8.4316  23.05280
 8.4180  23.13750
 8.4043  23.22130
 8.3907  23.32380
 8.3772  23.35530
 8.3637  23.32440
 8.3502  23.35270
 8.3368  23.27950
 8.3234  23.22250
 8.3100  23.24560
 8.2967  23.04840
 8.2835  22.84870
 8.2703  22.71300
 8.2571  22.52250
 8.2440  22.24090
 8.2309  21.93910
 8.2179  21.66220
 8.2049  21.26030
 8.1919  20.79190
 8.1790  20.10250
 8.1661  19.36090
 8.1532  18.61510
 8.1404  17.66240
 8.1277  16.55640
 8.1150  15.35990
 8.1023  14.32400
 8.0897  13.49410
 8.0770  12.75230
 8.0645  12.00790
 8.0520  11.21040
 8.0395  10.38670
 8.0270   9.67970
 8.0146   9.08715
 8.0023   8.53748
 7.9899   8.06294
 7.9776   7.51976
 7.9654   7.03534
 7.9532   6.65646
 7.9410   6.20822
 7.9288   5.67963
 7.9167   5.37632
 7.9047   5.12264
 7.8926   4.87708
 7.8807   4.58158
 7.8687   4.32246
 7.8568   4.11408
 7.8449   3.90306
 7.8330   3.70537
 7.8212   3.63135
 7.8094   3.52960
 7.7977   3.29409
 7.7860   3.12730
 7.7743   3.18896
 7.7627   3.12537
 7.7511   3.01813
 7.7395   2.96415
 7.7280   2.93747
 7.7165   2.89092
 7.7050   2.75283
 7.6936   2.65202
 7.6822   2.53093
 7.6708   2.47313
 7.6595   2.50614
 7.6482   2.43201
 7.6369   2.30592
 7.6257   2.19955
 7.6145   2.02278
 7.6033   1.83475
 7.5922   1.80288
 7.5811   1.83496
 7.5700   1.80597
 7.5590   1.73359
 7.5480   1.85679
 7.5370   1.95846
 7.5261   1.91656
 7.5152   1.78721
 7.5043   1.78306
 7.4935   1.92901
 7.4826   1.96925
 7.4718   1.98520
 7.4611   1.97062
 7.4504   1.92752
 7.4397   1.90231
 7.4290   1.85011
 7.4184   1.85019
 7.4078   1.86777
 7.3972   1.81788
 7.3867   1.79566
 7.3762   1.85835
 7.3657   1.92504
 7.3553   1.94821
 7.3449   1.91102
 7.3345   1.80380
 7.3241   1.77290
 7.3138   1.79367
 7.3035   1.81552
 7.2932   1.88836
 7.2830   1.95146
 7.2727   1.88525
 7.2626   1.83271
 7.2524   1.83010
 7.2423   1.89840
 7.2322   1.97379
 7.2221   1.96301
 7.2120   1.96623
 7.2020   1.94300
 7.1921   1.89884
 7.1821   1.91280
 7.1722   1.87588
 7.1623   1.84606
 7.1524   1.96686
 7.1425   1.97965
 7.1327   1.98521
 7.1229   1.97092
 7.1131   1.90463
 7.1034   1.93952
 7.0937   2.02112
 7.0840   2.03612
 7.0743   2.01301
 7.0647   2.02632
 7.0551   2.11853
 7.0455   2.09121
 7.0359   1.97989
 7.0264   1.95816
 7.0169   1.98240
 7.0074   1.99774
 6.9979   2.06399
 6.9885   2.11388
 6.9791   2.14065
 6.9697   2.12979
 6.9604   2.09181
 6.9510   2.06172
 6.9417   2.03327
 6.9324   2.03443
 6.9232   2.06346
 6.9140   2.13311
 6.9047   2.16362
 6.8956   2.07464
 6.8864   2.01175
 6.8773   2.09778
 6.8682   2.20040
 6.8591   2.16795
 6.8500   2.11634
 6.8410   2.17099
 6.8320   2.16736
 6.8230   2.12054
 6.8140   2.15582
 6.8051   2.08711
 6.7962   2.04539
 6.7873   2.18236
 6.7784   2.16537
 6.7695   2.09265
 6.7607   2.10476
 6.7519   2.14700
 6.7431   2.26947
 6.7344   2.36583
 6.7256   2.36611
 6.7169   2.39652
 6.7082   2.45500
 6.6996   2.37332
 6.6909   2.28481
 6.6823   2.30511
 6.6737   2.30701
 6.6651   2.31072
 6.6566   2.33555
 6.6480   2.36191
 6.6395   2.45185
 6.6310   2.42185
 6.6226   2.36160
 6.6141   2.38656
 6.6057   2.41187
 6.5973   2.47460
 6.5889   2.57123
 6.5805   2.66036
 6.5722   2.60762
 6.5639   2.46953
 6.5556   2.36988
 6.5473   2.44300
 6.5390   2.56748
 6.5308   2.61667
 6.5226   2.68375
 6.5144   2.69621
 6.5062   2.62409
 6.4981   2.57130
 6.4900   2.57727
 6.4818   2.64424
 6.4737   2.62533
 6.4657   2.50902
 6.4576   2.50824
 6.4496   2.62903
 6.4416   2.69041
 6.4336   2.65532
 6.4256   2.54924
 6.4177   2.43352
 6.4097   2.46870
 6.4018   2.45318
 6.3939   2.44113
 6.3860   2.51945
 6.3782   2.54910
 6.3704   2.41280
 6.3625   2.32923
 6.3547   2.31503
 6.3470   2.38026
 6.3392   2.39271
 6.3315   2.45042
 6.3237   2.37844
 6.3160   2.33958
 6.3083   2.35740
 6.3007   2.40120
 6.2930   2.43731
 6.2854   2.44769
 6.2778   2.42309
 6.2702   2.37519
 6.2626   2.33594
 6.2551   2.30706
 6.2476   2.28892
 6.2400   2.30173
 6.2325   2.29519
 6.2251   2.29726
 6.2176   2.29902
 6.2101   2.31612
 6.2027   2.21684
 6.1953   2.25380
 6.1879   2.28548
 6.1805   2.24312
 6.1732   2.30285
 6.1658   2.24007
 6.1585   2.16926
 6.1512   2.11588
 6.1439   2.14024
 6.1367   2.34874
 6.1294   2.37918
 6.1222   2.24544
 6.1149   2.24211
 6.1077   2.27012
 6.1006   2.26630
 6.0934   2.26630
 6.0862   2.22794
 6.0791   2.22596
 6.0720   2.26310
 6.0649   2.29258
 6.0578   2.31853
 6.0507   2.34290
 6.0437   2.34531
 6.0366   2.33216
 6.0296   2.34281
 6.0226   2.29096
 6.0156   2.26326
 6.0087   2.24381
 6.0017   2.28576
 5.9948   2.30642
 5.9878   2.29569
 5.9809   2.28467
 5.9740   2.35490
 5.9672   2.45244
 5.9603   2.35987
 5.9535   2.35189
 5.9466   2.37902
 5.9398   2.23895
 5.9330   2.19489
 5.9262   2.24555
 5.9195   2.38782
 5.9127   2.46464
 5.9060   2.37466
 5.8993   2.34285
 5.8926   2.35258
 5.8859   2.38345
 5.8792   2.37032
 5.8726   2.29481
 5.8659   2.33818
 5.8593   2.47618
 5.8527   2.46825
 5.8461   2.35173
 5.8395   2.45951
 5.8329   2.53879
 5.8264   2.55672
 5.8198   2.56736
 5.8133   2.50225
 5.8068   2.49446
 5.8003   2.63488
 5.7938   2.61341
 5.7874   2.55755
 5.7809   2.57579
 5.7745   2.65821
 5.7680   2.71311
 5.7616   2.70298
 5.7552   2.68502
 5.7489   2.68093
 5.7425   2.64913
 5.7361   2.59749
 5.7298   2.67161
 5.7235   2.73816
 5.7172   2.76535
 5.7109   2.84150
 5.7046   2.85156
 5.6983   2.82666
 5.6921   2.73786
 5.6858   2.70108
 5.6796   2.79545
 5.6734   2.87557
 5.6672   2.89101
 5.6610   2.90487
 5.6548   2.82818
 5.6487   2.70629
 5.6425   2.71341
 5.6364   2.80488
 5.6303   2.82682
 5.6242   2.78907
 5.6181   2.80120
 5.6120   2.90573
 5.6059   2.83135
 5.5999   2.70100
 5.5938   2.76531
 5.5878   2.79713
 5.5818   2.84279
 5.5758   2.85615
 5.5698   2.77132
 5.5638   2.68517
 5.5578   2.74004
 5.5519   2.90759
 5.5460   2.91487
 5.5400   2.76601
 5.5341   2.73868
 5.5282   2.89343
 5.5223   2.97588
 5.5164   2.95247
 5.5106   2.93151
 5.5047   2.99291
 5.4989   2.98429
 5.4931   3.00614
 5.4873   3.05971
 5.4815   3.10596
 5.4757   3.10873
 5.4699   3.10262
 5.4641   3.09789
 5.4584   3.11063
 5.4527   3.22694
 5.4469   3.22999
 5.4412   3.09465
 5.4355   3.03698
 5.4298   3.12816
 5.4241   3.21039
 5.4185   3.18792
 5.4128   3.15127
 5.4072   3.18297
 5.4015   3.18708
 5.3959   3.12790
 5.3903   3.14215
 5.3847   3.18037
 5.3791   3.17976
 5.3735   3.24135
 5.3680   3.24508
 5.3624   3.21263
 5.3569   3.19763
 5.3514   3.20149
 5.3458   3.26736
 5.3403   3.31777
 5.3348   3.29759
 5.3294   3.23896
 5.3239   3.20569
 5.3184   3.22451
 5.3130   3.30132
 5.3075   3.34051
 5.3021   3.33975
 5.2967   3.37666
 5.2913   3.36349
 5.2859   3.36357
 5.2805   3.35748
 5.2751   3.37003
 5.2698   3.36742
 5.2644   3.45597
 5.2591   3.50309
 5.2538   3.46156
 5.2485   3.47867
 5.2431   3.51471
 5.2378   3.50708
 5.2326   3.51189
 5.2273   3.66346
 5.2220   3.69502
 5.2168   3.62737
 5.2115   3.62956
 5.2063   3.64189
 5.2011   3.65396
 5.1959   3.66490
 5.1907   3.68596
 5.1855   3.71383
 5.1803   3.70798
 5.1751   3.76423
 5.1700   3.82364
 5.1648   3.84933
 5.1597   3.78207
 5.1545   3.74431
 5.1494   3.85118
 5.1443   3.88489
 5.1392   3.85248
 5.1341   3.90023
 5.1291   3.94780
 5.1240   3.92674
 5.1189   3.93381
 5.1139   3.91658
 5.1088   3.96697
 5.1038   4.01305
 5.0988   3.99625
 5.0938   3.99256
 5.0888   3.94055
 5.0838   3.93233
 5.0788   3.92503
 5.0738   3.92149
 5.0689   4.02881
 5.0639   4.03258
 5.0590   4.01402
 5.0541   4.08972
 5.0491   4.18149
 5.0442   4.14205
 5.0393   4.09995
 5.0344   4.06501
 5.0296   4.07273
 5.0247   4.02196
 5.0198   3.99645
 5.0150   4.06659
 5.0101   4.07909
 5.0053   4.14317
 5.0004   4.23806
 4.9956   4.26042
 4.9908   4.21985
 4.9860   4.22085
 4.9812   4.25633
 4.9765   4.29849
 4.9717   4.31966
 4.9669   4.26207
 4.9622   4.23222
 4.9574   4.28155
 4.9527   4.36301
 4.9480   4.42321
 4.9432   4.48939
 4.9385   4.52995
 4.9338   4.56963
 4.9291   4.59160
 4.9245   4.64726
 4.9198   4.64323
 4.9151   4.62057
 4.9105   4.61251
 4.9058   4.62507
 4.9012   4.69128
 4.8966   4.73613
 4.8919   4.86726
 4.8873   5.08510
 4.8827   5.07324
 4.8781   5.07599
 4.8736   5.30579
 4.8690   5.42090
 4.8644   5.46816
 4.8599   5.46002
 4.8553   5.51226
 4.8508   5.70483
 4.8462   5.80460
 4.8417   5.82765
 4.8372   5.86696
 4.8327   6.00577
 4.8282   6.09839
 4.8237   6.09460
 4.8192   6.09185
 4.8147   6.15461
 4.8103   6.23153
 4.8058   6.28233
 4.8014   6.39520
 4.7969   6.44318
 4.7925   6.37668
 4.7881   6.40728
 4.7836   6.48150
 4.7792   6.46481
 4.7748   6.55205
 4.7704   6.61948
 4.7660   6.60242
 4.7617   6.68452
 4.7573   6.81181
 4.7530   6.79074
 4.7486   6.87355
 4.7443   6.84494
 4.7399   6.86494
 4.7356   7.02267
 4.7313   7.11026
 4.7270   7.12986
 4.7226   7.11548
 4.7184   7.02032
 4.7141   7.01799
 4.7098   7.12688
 4.7055   7.12797
 4.7012   6.97893
 4.6970   6.87425
 4.6927   6.85738
 4.6885   6.81331
 4.6842   6.69274
 4.6800   6.75116
 4.6758   6.87040
 4.6716   7.04914
 4.6674   7.11845
 4.6632   7.17826
 4.6590   7.30406
 4.6548   7.47800
 4.6506   7.59595
 4.6465   7.69754
 4.6423   7.81507
 4.6382   7.83198
 4.6340   8.00717
 4.6299   8.21952
 4.6258   8.26645
 4.6216   8.34944
 4.6175   8.46287
 4.6134   8.55216
 4.6093   8.64078
 4.6052   8.73879
 4.6011   8.85144
 4.5971   8.90571
 4.5930   8.94662
 4.5889   9.04771
 4.5849   9.14104
 4.5808   9.20261
 4.5768   9.17706
 4.5727   9.22466
 4.5687   9.28202
 4.5647   9.29694
 4.5607   9.29302
 4.5567   9.24094
 4.5526   9.23780
 4.5487   9.19402
 4.5447   9.12054
 4.5407   9.04472
 4.5367   8.96019
 4.5328   8.95970
 4.5288   8.91785
 4.5248   8.75992
 4.5209   8.64637
 4.5170   8.51772
 4.5130   8.45619
 4.5091   8.50109
 4.5052   8.47357
 4.5013   8.31195
 4.4974   8.21338
 4.4935   8.16799
 4.4896   8.23111
 4.4857   8.25226
 4.4818   8.19952
 4.4779   8.17648
 4.4741   8.20705
 4.4702   8.16141
 4.4664   8.07643
 4.4625   8.15876
 4.4587   8.33422
 4.4549   8.45690
 4.4510   8.56959
 4.4472   8.73887
 4.4434   8.90214
 4.4396   8.92085
 4.4358   8.89977
 4.4320   8.91872
 4.4282   8.96341
 4.4245   9.12125
 4.4207   9.20116
 4.4169   9.26893
 4.4132   9.32678
 4.4094   9.45387
 4.4057   9.64318
 4.4019   9.71691
 4.3982   9.81509
 4.3945  10.00020
 4.3907  10.09160
 4.3870  10.14800
 4.3833  10.21580
 4.3796  10.38160
 4.3759  10.56090
 4.3722  10.71240
 4.3685  10.81100
 4.3649  10.98910
 4.3612  11.12110
 4.3575  11.32110
 4.3539  11.54470
 4.3502  11.63380
 4.3466  11.64880
 4.3429  11.72680
 4.3393  11.80010
 4.3357  11.94950
 4.3320  12.12950
 4.3284  12.15850
 4.3248  12.06570
 4.3212  12.00770
 4.3176  12.13220
 4.3140  12.19010
 4.3105  12.12220
 4.3069  12.19130
 4.3033  12.29780
 4.2997  12.27520
 4.2962  12.24010
 4.2926  12.28450
 4.2890  12.36170
 4.2855  12.39670
 4.2820  12.46050
 4.2784  12.48470
 4.2749  12.45700
 4.2714  12.62040
 4.2679  12.79620
 4.2644  12.87130
 4.2609  12.99710
 4.2574  13.09860
 4.2539  13.05910
 4.2504  13.17360
 4.2469  13.18730
 4.2434  13.12770
 4.2400  13.11020
 4.2365  13.04600
 4.2330  13.03990
 4.2296  13.15640
 4.2261  13.24850
 4.2227  13.24100
 4.2193  13.28310
 4.2158  13.33770
 4.2124  13.44350
 4.2090  13.51280
 4.2056  13.55710
 4.2022  13.62370
 4.1988  13.56130
 4.1954  13.40870
 4.1920  13.47720
 4.1886  13.65760
 4.1852  13.81490
 4.1818  13.90270
 4.1785  13.85900
 4.1751  13.88890
 4.1717  14.00250
 4.1684  14.01480
 4.1650  14.09130
 4.1617  14.20040
 4.1584  14.14810
 4.1550  14.16390
 4.1517  14.27960
 4.1484  14.19930
 4.1451  14.27410
 4.1418  14.40480
 4.1384  14.47010
 4.1351  14.51900
 4.1319  14.47380
 4.1286  14.58940
 4.1253  14.69310
 4.1220  14.66850
 4.1187  14.64980
 4.1155  14.65400
 4.1122  14.67260
 4.1089  14.80980
 4.1057  14.92580
 4.1024  15.02270
 4.0992  15.06540
 4.0959  15.08090
 4.0927  15.11710
 4.0895  15.14750
 4.0863  15.19610
 4.0830  15.26240
 4.0798  15.30760
 4.0766  15.31360
 4.0734  15.33710
 4.0702  15.30320
 4.0670  15.39950
 4.0639  15.47150
 4.0607  15.44920
 4.0575  15.47290
 4.0543  15.42740
 4.0511  15.46310
 4.0480  15.49550
 4.0448  15.48160
 4.0417  15.45620
 4.0385  15.45820
 4.0354  15.40610
 4.0323  15.37620
 4.0291  15.32980
 4.0260  15.15800
 4.0229  15.14490
 4.0197  15.14800
 4.0166  15.10650
 4.0135  15.20800
 4.0104  15.37420
 4.0073  15.36530
 4.0042  15.29780
 4.0011  15.23220
 3.9981  15.32220
 3.9950  15.36510
 3.9919  15.26650
 3.9888  15.23020
 3.9857  15.40330
 3.9827  15.51090
 3.9796  15.41150
 3.9766  15.43010
 3.9735  15.46900
 3.9705  15.37310
 3.9675  15.32870
 3.9644  15.51050
 3.9614  15.66950
 3.9584  15.79570
 3.9554  15.89770
 3.9523  15.97320
 3.9493  15.87270
 3.9463  15.86010
 3.9433  15.88550
 3.9403  15.98180
 3.9373  16.05800
 3.9343  16.01090
 3.9314  16.04860
 3.9284  16.11080
 3.9254  16.11340
 3.9224  16.11190
 3.9195  16.16010
 3.9165  16.31690
 3.9136  16.35910
 3.9106  16.15710
 3.9077  16.05060
 3.9047  16.12110
 3.9018  16.05920
 3.8988  16.00380
 3.8959  16.00350
 3.8930  16.01080
 3.8901  16.05130
 3.8872  16.16240
 3.8842  16.15900
 3.8813  16.02000
 3.8784  16.05000
 3.8755  16.08640
 3.8726  15.94000
 3.8697  15.87120
 3.8669  15.89800
 3.8640  15.92570
 3.8611  15.88450
 3.8582  15.94530
 3.8554  16.04780
 3.8525  16.02550
 3.8496  15.99830
 3.8468  16.19070
 3.8439  16.18100
 3.8411  16.02420
 3.8382  16.07800
 3.8354  16.02750
 3.8326  15.95680
 3.8297  16.11400
 3.8269  16.26790
 3.8241  16.49010
 3.8213  16.45280
 3.8185  16.30250
 3.8157  16.28510
 3.8128  16.31850
 3.8100  16.33760
 3.8072  16.28400
 3.8045  16.17790
 3.8017  16.25830
 3.7989  16.38810
 3.7961  16.40670
 3.7933  16.37720
 3.7906  16.53280
 3.7878  16.45430
 3.7850  16.25420
 3.7822  16.39520
 3.7795  16.41960
 3.7767  16.33260
 3.7740  16.22710
 3.7713  16.21010
 3.7685  16.31320
 3.7658  16.31600
 3.7630  16.24090
 3.7603  16.18720
 3.7576  16.18990
 3.7549  16.25160
 3.7521  16.22250
 3.7494  16.07720
 3.7467  15.96030
 3.7440  15.96970
 3.7413  15.97760
 3.7386  16.07840
 3.7359  16.27240
 3.7332  16.32450
 3.7306  16.18580
 3.7279  16.07810
 3.7252  16.19000
 3.7225  16.17750
 3.7199  16.09110
 3.7172  16.11430
 3.7145  16.32240
 3.7119  16.47420
 3.7092  16.45650
 3.7066  16.38080
 3.7039  16.34590
 3.7013  16.25080
 3.6986  16.23630
 3.6960  16.38480
 3.6934  16.51230
 3.6907  16.53420
 3.6881  16.49880
 3.6855  16.46730
 3.6829  16.43790
 3.6803  16.52100
 3.6776  16.57940
 3.6750  16.57740
 3.6724  16.64150
 3.6698  16.71060
 3.6672  16.63530
 3.6646  16.53880
 3.6620  16.56160
 3.6595  16.59620
 3.6569  16.60370
 3.6543  16.62430
 3.6517  16.57990
 3.6492  16.55090
 3.6466  16.51340
 3.6440  16.42700
 3.6415  16.44450
 3.6389  16.48100
 3.6364  16.50890
 3.6338  16.56030
 3.6313  16.53550
 3.6287  16.53980
 3.6262  16.55140
 3.6237  16.53690
 3.6211  16.60090
 3.6186  16.50510
 3.6161  16.33730
 3.6136  16.30700
 3.6111  16.30160
 3.6085  16.29840
 3.6060  16.23630
 3.6035  16.15100
 3.6010  15.89190
 3.5985  15.89600
 3.5960  16.05780
 3.5935  16.10150
 3.5910  16.11260
 3.5886  16.14160
 3.5861  16.15460
 3.5836  16.18860
 3.5811  16.21530
 3.5787  16.09410
 3.5762  16.01500
 3.5737  15.95060
 3.5713  15.90120
 3.5688  15.81660
 3.5663  15.82040
 3.5639  15.88960
 3.5614  15.84350
 3.5590  15.74380
 3.5566  15.64010
 3.5541  15.56760
 3.5517  15.63510
 3.5493  15.61790
 3.5468  15.46470
 3.5444  15.46860
 3.5420  15.57730
 3.5396  15.59890
 3.5372  15.43670
 3.5347  15.33260
 3.5323  15.42510
 3.5299  15.44910
 3.5275  15.35780
 3.5251  15.30520
 3.5227  15.25690
 3.5203  15.17700
 3.5180  15.12910
 3.5156  15.04570
 3.5132  14.84370
 3.5108  14.75080
 3.5084  14.76470
 3.5061  14.88200
 3.5037  14.99870
 3.5013  14.87440
 3.4990  14.70890
 3.4966  14.58400
 3.4943  14.49940
 3.4919  14.53620
 3.4895  14.64640
 3.4872  14.57470
 3.4849  14.51180
 3.4825  14.60020
 3.4802  14.66840
 3.4778  14.66330
 3.4755  14.55610
 3.4732  14.53290
 3.4709  14.69440
 3.4685  14.62550
 3.4662  14.41290
 3.4639  14.46750
 3.4616  14.58550
 3.4593  14.53620
 3.4570  14.39000
 3.4547  14.31730
 3.4524  14.28400
 3.4501  14.20210
 3.4478  14.23150
 3.4455  14.22500
 3.4432  14.13610
 3.4409  14.09190
 3.4386  14.10260
 3.4364  13.90850
 3.4341  13.66020
 3.4318  13.72440
 3.4295  13.77220
 3.4273  13.75900
 3.4250  13.63630
 3.4228  13.47570
 3.4205  13.62520
 3.4182  13.43990
 3.4160  13.21440
 3.4137  13.37600
 3.4115  13.37430
 3.4093  13.21520
 3.4070  13.01250
 3.4048  12.89190
 3.4025  12.96390
 3.4003  13.01410
 3.3981  13.02150
 3.3958  13.08840
 3.3936  13.06740
 3.3914  12.89540
 3.3892  12.88700
 3.3870  12.99010
 3.3848  13.02170
 3.3826  12.98980
 3.3804  12.81360
 3.3782  12.64540
 3.3760  12.69390
 3.3738  12.78810
 3.3716  12.85620
 3.3694  12.73310
 3.3672  12.49350
 3.3650  12.61550
 3.3628  12.63830
 3.3606  12.59140
 3.3585  12.77630
 3.3563  12.88970
 3.3541  12.78750
 3.3520  12.47080
 3.3498  12.35210
 3.3476  12.47770
 3.3455  12.63250
 3.3433  12.42540
 3.3411  12.36580
 3.3390  12.34810
 3.3369  12.21160
 3.3347  12.29400
 3.3326  12.32670
 3.3304  12.21150
 3.3283  12.20180
 3.3262  12.25380
 3.3240  12.26710
 3.3219  12.10250
 3.3198  12.02990
 3.3176  12.11870
 3.3155  12.08800
 3.3134  11.99090
 3.3113  11.92970
 3.3092  11.68280
 3.3071  11.63010
 3.3049  11.88140
 3.3028  12.00350
 3.3007  11.84070
 3.2986  11.85200
 3.2965  11.72290
 3.2944  11.67530
 3.2924  11.62210
 3.2903  11.49530
 3.2882  11.37900
 3.2861  11.15480
 3.2840  11.04180
 3.2819  11.13670
 3.2799  11.12700
 3.2778  11.15880
 3.2757  11.27050
 3.2736  11.43130
 3.2716  11.45520
 3.2695  11.13320
 3.2675  10.85070
 3.2654  10.78630
 3.2634  10.91290
 3.2613  11.14770
 3.2593  11.11150
 3.2572  10.79810
 3.2552  10.54050
 3.2531  10.42820
 3.2511  10.65270
 3.2490  10.90570
 3.2470  10.74550
 3.2450  10.43950
 3.2429  10.38070
 3.2409  10.43540
 3.2389  10.20040
 3.2369  10.14580
 3.2348  10.25000
 3.2328  10.41410
 3.2308  10.49940
 3.2288  10.40230
 3.2268  10.26700
 3.2248  10.32800
 3.2228  10.25190
 3.2208  10.20360
 3.2188  10.24170
 3.2168  10.20660
 3.2148   9.99542
 3.2128   9.91274
 3.2108   9.91023
 3.2088   9.84580
 3.2068   9.76404
 3.2049   9.76206
 3.2029   9.69405
 3.2009   9.46592
 3.1989   9.39778
 3.1970   9.31654
 3.1950   9.33230
 3.1930   9.36567
 3.1911   9.52897
 3.1891   9.58467
 3.1871   9.39383
 3.1852   9.29002
 3.1832   9.38465
 3.1813   8.96141
 3.1793   8.85279
 3.1774   8.99325
 3.1754   9.25916
 3.1735   9.31918
 3.1715   9.17228
 3.1696   8.99552
 3.1677   8.90804
 3.1657   8.91568
 3.1638   8.91248
 3.1619   8.97745
 3.1599   8.93959
 3.1580   8.68888
 3.1561   8.49258
 3.1542   8.37404
 3.1523   8.46093
 3.1503   8.69504
 3.1484   8.55070
 3.1465   8.36347
 3.1446   8.42668
 3.1427   8.53125
 3.1408   8.40321
 3.1389   8.17488
 3.1370   7.94659
 3.1351   8.17584
 3.1332   8.34741
 3.1313   8.20612
 3.1294   7.98711
 3.1275   7.85082
 3.1257   7.78718
 3.1238   8.03856
 3.1219   8.37577
 3.1200   8.09986
 3.1181   7.81842
 3.1163   7.76935
 3.1144   7.70466
 3.1125   7.70794
 3.1107   7.62777
 3.1088   7.56300
 3.1069   7.38536
 3.1051   7.28866
 3.1032   7.42377
 3.1014   7.36642
 3.0995   7.39888
 3.0976   7.33463
 3.0958   6.95103
 3.0940   7.27155
 3.0921   7.65305
 3.0903   7.65878
 3.0884   7.62512
 3.0866   7.79325
 3.0848   7.60300
 3.0829   6.97434
 3.0811   6.72014
 3.0793   6.94546
 3.0774   7.16003
 3.0756   6.95175
 3.0738   6.91096
 3.0720   7.17434
 3.0701   6.83516
 3.0683   6.66150
 3.0665   6.97135
 3.0647   7.19614
 3.0629   7.01368
 3.0611   7.03978
 3.0593   7.04606
 3.0575   7.13553
 3.0557   7.26641
 3.0539   6.86717
 3.0521   6.57834
 3.0503   6.49397
 3.0485   6.45992
 3.0467   6.16865
 3.0449   6.45091
 3.0431   6.54306
 3.0413   6.71396
 3.0396   6.85925
 3.0378   6.18148
 3.0360   5.81170
 3.0342   5.90042
 3.0324   6.05854
 3.0307   6.04367
 3.0289   6.28862
 3.0271   6.55922
 3.0254   6.63502
 3.0236   6.57204
 3.0218   6.74739
 3.0201   6.75851
 3.0183   6.51483
 3.0166   6.58539
 3.0148   6.38292
 3.0130   6.11755
 3.0113   6.00053
 3.0096   5.82925
 3.0078   5.85941
 3.0061   6.07545
 3.0043   6.44168
 3.0026   6.27533
 3.0008   5.88043
 2.9991   5.96477
 2.9974   6.06501
 2.9956   5.84758
 2.9939   5.64142
 2.9922   5.45601
 2.9905   5.67813
 2.9887   5.95894
 2.9870   6.07321
 2.9853   6.17829
 2.9836   6.12344
 2.9819   6.07913
 2.9802   5.78618
 2.9784   5.55790
 2.9767   5.75803
 2.9750   6.07786
 2.9733   6.28323
 2.9716   6.04002
 2.9699   6.05185
 2.9682   5.98519
 2.9665   5.43169
 2.9648   5.47753
 2.9631   5.62973
 2.9614   5.79620
 2.9597   6.15142
 2.9581   6.10100
 2.9564   5.37628
 2.9547   5.33690
 2.9530   5.59258
 2.9513   5.71743
 2.9496   6.17920
 2.9480   6.00316
 2.9463   5.25807
 2.9446   5.40811
 2.9429   5.36224
 2.9413   5.12334
 2.9396   5.43164
 2.9379   5.64345
 2.9363   5.38026
 2.9346   5.05979
 2.9330   5.30525
 2.9313   5.63824
 2.9296   5.31272
 2.9280   5.07140
 2.9263   5.30674
 2.9247   5.74532
 2.9230   5.67186
 2.9214   5.42224
 2.9197   5.30750
 2.9181   5.41415
 2.9165   5.53958
 2.9148   5.52543
 2.9132   5.62626
 2.9116   5.54691
 2.9099   5.31876
 2.9083   4.98284
 2.9067   5.17613
 2.9050   5.53700
 2.9034   5.59655
 2.9018   5.65833
 2.9002   5.85484
 2.8985   6.32337
 2.8969   6.36331
 2.8953   6.15829
 2.8937   6.05396
 2.8921   5.90852
 2.8905   5.57246
 2.8888   5.54879
 2.8872   5.98790
 2.8856   6.36996
 2.8840   5.95958
 2.8824   5.70335
 2.8808   5.46206
 2.8792   5.55078
 2.8776   5.89776
 2.8760   6.00733
 2.8744   5.99798
 2.8728   5.58259
 2.8712   5.26040
 2.8697   5.53026
 2.8681   6.01316
 2.8665   5.72872
 2.8649   5.58984
 2.8633   6.13494
 2.8617   6.24666
 2.8602   5.86802
 2.8586   5.60538
 2.8570   5.60110
 2.8554   5.59644
 2.8539   5.64155
 2.8523   6.03988
 2.8507   6.13482
 2.8492   5.93623
 2.8476   5.96525
 2.8460   6.14455
 2.8445   6.01675
 2.8429   5.82663
 2.8413   5.61048
 2.8398   5.60129
 2.8382   5.59291
 2.8367   5.44269
 2.8351   5.53812
 2.8336   5.68371
 2.8320   5.69876
 2.8305   5.51520
 2.8289   5.46788
 2.8274   5.49810
 2.8259   5.34701
 2.8243   5.31054
 2.8228   5.78863
 2.8213   6.40366
 2.8197   6.17414
 2.8182   5.62402
 2.8167   5.20577
 2.8151   5.64821
 2.8136   5.92545
 2.8121   5.72844
 2.8106   5.38915
 2.8090   5.24088
 2.8075   5.45337
 2.8060   5.35170
 2.8045   5.47593
 2.8030   5.59632
 2.8014   5.43653
 2.7999   5.31084
 2.7984   5.38040
 2.7969   5.30089
 2.7954   5.58831
 2.7939   5.76729
 2.7924   5.40127
 2.7909   4.97742
 2.7894   4.40374
 2.7879   4.74069
 2.7864   5.74977
 2.7849   5.94386
 2.7834   5.13111
 2.7819   5.54454
 2.7804   5.69854
 2.7789   5.83322
 2.7774   5.99407
 2.7759   6.52034
 2.7745   6.76041
 2.7730   6.32905
 2.7715   5.98848
 2.7700   5.31996
 2.7685   5.04954
 2.7671   5.64279
 2.7656   5.89516
 2.7641   5.55643
 2.7626   5.58536
 2.7612   5.88107
 2.7597   5.62204
 2.7582   5.33561
 2.7568   5.91984
 2.7553   6.46645
 2.7538   6.31558
 2.7524   6.25070
 2.7509   6.42421
 2.7494   6.30083
 2.7480   6.26604
 2.7465   6.51582
 2.7451   6.85795
 2.7436   7.04146
 2.7422   7.10838
 2.7407   7.16723
 2.7393   7.47272
 2.7378   7.56737
 2.7364   7.41420
 2.7350   7.57419
 2.7335   7.45929
 2.7321   7.65360
 2.7306   7.97528
 2.7292   7.86266
 2.7278   7.91190
 2.7263   8.54602
 2.7249   9.01087
 2.7235   9.05807
 2.7220   8.89041
 2.7206   9.16630
 2.7192   9.59646
 2.7178   9.82126
 2.7163  10.05200
 2.7149  10.74570
 2.7135  11.59240
 2.7121  12.09970
 2.7106  12.46910
 2.7092  12.88110
 2.7078  13.28390
 2.7064  13.40880
 2.7050  13.81560
 2.7036  14.41170
 2.7022  14.58270
 2.7008  14.95380
 2.6994  15.43660
 2.6980  15.83630
 2.6965  16.21340
 2.6951  16.36420
 2.6938  16.22750
 2.6923  16.41890
 2.6910  16.81180
 2.6896  17.06500
 2.6882  17.06260
 2.6868  17.47530
 2.6854  18.16310
 2.6840  18.07480
 2.6826  17.88900
 2.6812  18.15110
 2.6798  18.20460
 2.6784  18.30950
 2.6771  18.43980
 2.6757  18.63310
 2.6743  18.81400
 2.6729  19.04310
 2.6715  19.05100
 2.6702  19.00180
 2.6688  18.60920
 2.6674  18.68080
 2.6660  19.04910
 2.6647  19.12270
 2.6633  18.84720
 2.6619  18.72040
 2.6606  18.76850
 2.6592  18.71390
 2.6578  18.89440
 2.6565  19.03650
 2.6551  19.36660
 2.6538  19.46620
 2.6524  19.42060
 2.6511  19.36300
 2.6497  19.53790
 2.6484  19.38280
 2.6470  19.14680
 2.6456  19.22840
 2.6443  19.36780
 2.6429  19.36300
 2.6416  19.26120
 2.6403  19.26730
 2.6389  19.36880
 2.6376  19.47520
 2.6362  19.36710
 2.6349  19.20690
 2.6336  19.64740
 2.6322  19.76950
 2.6309  19.57320
 2.6296  19.08820
 2.6282  19.19920
 2.6269  19.69300
 2.6256  19.64130
 2.6242  19.46650
 2.6229  19.77750
 2.6216  19.75940
 2.6203  19.24800
 2.6189  18.95230
 2.6176  19.02610
 2.6163  19.13740
 2.6150  19.34160
 2.6136  19.63230
 2.6123  19.63820
 2.6110  19.69530
 2.6097  19.74690
 2.6084  19.79040
 2.6071  19.87560
 2.6058  19.86080
 2.6044  19.57970
 2.6031  18.99230
 2.6018  18.95320
 2.6005  19.59360
 2.5992  19.70670
 2.5979  19.82350
 2.5966  19.94590
 2.5953  19.65470
 2.5940  19.49540
 2.5927  19.32710
 2.5914  19.49670
 2.5901  19.56600
 2.5888  19.57630
 2.5876  19.20270
 2.5863  19.33130
 2.5850  19.70070
 2.5837  19.59660
 2.5824  19.72980
 2.5811  19.70540
 2.5798  19.58390
 2.5785  19.31690
 2.5773  19.45390
 2.5760  19.54440
 2.5747  19.39990
 2.5734  19.18530
 2.5722  19.07440
 2.5709  19.56230
 2.5696  19.78570
 2.5683  19.68210
 2.5671  19.41810
 2.5658  19.60590
 2.5645  19.98870
 2.5633  19.94840
 2.5620  19.63550
 2.5607  19.42510
 2.5595  19.19950
 2.5582  19.10290
 2.5569  19.50380
 2.5557  19.73770
 2.5544  19.48570
 2.5532  19.52560
 2.5519  19.72680
 2.5507  19.92340
 2.5494  19.96300
 2.5481  19.45230
 2.5469  19.30450
 2.5456  20.16820
 2.5444  20.13000
 2.5431  19.32320
 2.5419  19.07400
 2.5406  19.05430
 2.5394  19.28740
 2.5382  19.58050
 2.5369  19.66720
 2.5357  19.64990
 2.5344  19.57870
 2.5332  19.79590
 2.5320  19.77080
 2.5307  19.18320
 2.5295  19.15410
 2.5283  19.59730
 2.5270  19.61190
 2.5258  19.76420
 2.5246  19.96420
 2.5233  19.64400
 2.5221  19.29860
 2.5209  19.44400
 2.5197  19.70360
 2.5184  19.50740
 2.5172  19.55700
 2.5160  19.58270
 2.5148  19.32590
 2.5136  19.35730
 2.5123  19.50400
 2.5111  19.52520
 2.5099  19.39910
 2.5087  19.17070
 2.5075  19.22250
 2.5063  19.68070
 2.5051  19.94980
 2.5038  19.55990
 2.5026  19.50120
 2.5014  19.70690
 2.5002  19.69030
 2.4990  19.96630
 2.4978  20.19190
 2.4966  19.98930
 2.4954  19.56730
 2.4942  19.66710
 2.4930  19.81170
 2.4918  19.59440
 2.4906  19.50390
 2.4894  19.43690
 2.4882  18.98570
 2.4870  18.99480
 2.4858  19.39020
 2.4846  19.91720
 2.4835  20.05700
 2.4823  19.80990
 2.4811  19.80650
 2.4799  19.66250
 2.4787  19.51730
 2.4775  19.37340
 2.4764  19.19670
 2.4752  19.23440
 2.4740  19.44820
 2.4728  19.65330
 2.4716  19.90910
 2.4705  19.64140
 2.4693  19.71070
 2.4681  19.65850
 2.4669  19.70910
 2.4657  20.12030
 2.4646  19.95040
 2.4634  19.44960
 2.4622  19.45120
 2.4611  19.92380
 2.4599  20.08920
 2.4587  19.78000
 2.4576  19.00750
 2.4564  18.68340
 2.4552  19.17460
 2.4541  19.80930
 2.4529  19.80080
 2.4518  19.98410
 2.4506  19.70000
 2.4494  19.60530
 2.4483  19.97540
 2.4471  20.08850
 2.4460  19.77630
 2.4448  19.51730
 2.4437  19.49050
 2.4425  19.64920
 2.4414  19.51360
 2.4402  19.45810
 2.4391  19.78140
 2.4379  19.49400
 2.4368  19.41400
 2.4356  20.12730
 2.4345  20.51810
 2.4333  19.98120
 2.4322  19.66730
 2.4311  20.13060
 2.4299  20.18630
 2.4288  19.61520
 2.4276  19.30940
 2.4265  19.26380
 2.4254  19.09110
 2.4242  19.70670
 2.4231  20.09400
 2.4220  20.17400
 2.4209  19.88550
 2.4197  19.51120
 2.4186  19.72190
 2.4175  19.53340
 2.4163  19.56960
 2.4152  19.40530
 2.4141  19.13430
 2.4130  19.17280
 2.4118  19.08560
 2.4107  19.56830
 2.4096  20.43250
 2.4085  20.41550
 2.4074  19.92720
 2.4063  20.19660
 2.4051  19.79850
 2.4040  19.32650
 2.4029  19.61650
 2.4018  19.97320
 2.4007  20.40380
 2.3996  20.52400
 2.3985  20.24940
 2.3973  19.49040
 2.3962  19.41170
 2.3951  19.75060
 2.3940  19.81520
 2.3929  20.11600
 2.3918  20.47070
 2.3907  20.04680
 2.3896  19.84540
 2.3885  20.31910
 2.3874  19.90830
 2.3863  19.48050
 2.3852  19.71540
 2.3841  20.00090
 2.3830  19.82480
 2.3819  19.64380
 2.3808  19.90130
 2.3798  20.20880
 2.3786  19.91260
 2.3776  19.65050
 2.3765  19.44690
 2.3754  19.55530
 2.3743  19.69060
 2.3732  20.09780
 2.3721  19.81410
 2.3710  19.50760
 2.3700  19.64920
 2.3689  19.77700
 2.3678  20.02240
 2.3667  20.48980
 2.3656  20.46570
 2.3645  19.93120
 2.3635  19.56680
 2.3624  19.67630
 2.3613  19.69360
 2.3603  19.96770
 2.3592  20.01260
 2.3581  19.52540
 2.3570  19.49730
 2.3560  19.44120
 2.3549  19.14500
 2.3538  19.13230
 2.3527  19.43290
 2.3517  19.34910
 2.3506  19.35650
 2.3495  19.48450
 2.3485  19.40430
 2.3474  19.39160
 2.3464  19.30230
 2.3453  18.90750
 2.3442  19.23810
 2.3432  19.64940
 2.3421  19.52520
 2.3411  19.69600
 2.3400  19.51630
 2.3390  19.83830
 2.3379  20.43060
 2.3369  20.10660
 2.3358  19.44190
 2.3347  19.44050
 2.3337  19.45310
 2.3326  19.13960
 2.3316  19.39330
 2.3306  19.39450
 2.3295  19.38770
 2.3285  19.94340
 2.3274  20.20350
 2.3264  19.81190
 2.3253  19.35510
 2.3243  19.80030
 2.3232  19.86620
 2.3222  19.86590
 2.3212  20.30400
 2.3201  19.98460
 2.3191  19.48340
 2.3180  19.70510
 2.3170  19.95670
 2.3160  19.57940
 2.3149  19.67500
 2.3139  19.58680
 2.3129  19.64130
 2.3118  20.17110
 2.3108  19.93980
 2.3098  19.60630
 2.3088  20.14430
 2.3077  20.43990
 2.3067  20.03180
 2.3057  20.17860
 2.3047  20.08910
 2.3036  20.25160
 2.3026  20.57310
 2.3016  20.08130
 2.3006  19.70900
 2.2995  19.71930
 2.2985  19.79130
 2.2975  19.65670
 2.2965  19.80780
 2.2955  20.07070
 2.2944  20.64670
 2.2934  20.65860
 2.2924  20.13890
 2.2914  19.95180
 2.2904  20.24830
 2.2894  20.31730
 2.2884  19.82920
 2.2874  19.79430
 2.2864  19.90260
 2.2854  20.10330
 2.2843  20.29140
 2.2833  19.78510
 2.2823  19.85380
 2.2813  20.55770
 2.2803  20.40060
 2.2793  19.95180
 2.2783  20.24350
 2.2773  20.81700
 2.2763  20.67880
 2.2753  20.20000
 2.2743  20.10420
 2.2733  19.95330
 2.2723  20.05800
 2.2713  20.00360
 2.2703  19.95180
 2.2694  20.15540
 2.2684  20.69180
 2.2674  20.33230
 2.2664  19.35240
 2.2654  19.40340
 2.2644  19.89910
 2.2634  20.11450
 2.2624  20.35570
 2.2614  20.48220
 2.2605  20.18030
 2.2595  19.80040
 2.2585  19.77880
 2.2575  20.04960
 2.2565  20.00780
 2.2555  19.89440
 2.2546  19.88450
 2.2536  19.60690
 2.2526  19.88380
 2.2516  20.91830
 2.2506  20.89920
 2.2497  20.26550
 2.2487  19.82760
 2.2477  19.80070
 2.2467  20.03490
 2.2458  20.06270
 2.2448  20.19040
 2.2438  19.87760
 2.2428  19.69450
 2.2419  20.57810
 2.2409  20.76150
 2.2399  20.14480
 2.2390  20.32960
 2.2380  20.53070
 2.2370  20.29780
 2.2361  19.71260
 2.2351  19.82130
 2.2342  20.22400
 2.2332  20.32410
 2.2322  20.23930
 2.2313  20.40490
 2.2303  20.26760
 2.2294  19.99810
 2.2284  20.10050
 2.2274  20.20240
 2.2265  20.54170
 2.2255  20.63610
 2.2246  20.19900
 2.2236  20.07660
 2.2227  19.72630
 2.2217  20.02560
 2.2208  20.80320
 2.2198  20.55310
 2.2189  20.22680
 2.2179  20.02820
 2.2170  19.98540
 2.2160  19.80610
 2.2151  20.01030
 2.2141  19.78100
 2.2132  19.27670
 2.2122  19.38210
 2.2113  20.03630
 2.2103  20.53080
 2.2094  20.03760
 2.2085  19.61200
 2.2075  20.03720
 2.2066  20.05950
 2.2056  19.37030
 2.2047  19.35960
 2.2038  19.77930
 2.2028  20.04640
 2.2019  20.18030
 2.2010  19.73640
 2.2000  19.08960
 2.1991  18.92570
 2.1982  19.34630
 2.1972  19.73840
 2.1963  19.63530
 2.1954  19.61790
 2.1944  19.87170
 2.1935  19.75720
 2.1926  19.50320
 2.1917  19.38110
 2.1907  19.70560
 2.1898  19.82560
 2.1889  19.39400
 2.1880  18.97070
 2.1870  19.17340
 2.1861  20.05580
 2.1852  20.78380
 2.1843  20.52340
 2.1833  19.76750
 2.1824  19.72600
 2.1815  19.88670
 2.1806  19.51440
 2.1797  20.02240
 2.1788  19.95230
 2.1778  19.60680
 2.1769  20.00920
 2.1760  20.94550
 2.1751  20.87660
 2.1742  20.43660
 2.1733  19.76980
 2.1724  19.77150
 2.1715  20.83970
 2.1706  20.73570
 2.1696  20.33200
 2.1687  19.61140
 2.1678  19.24390
 2.1669  19.52910
 2.1660  19.80950
 2.1651  19.97910
 2.1642  20.08560
 2.1633  19.57500
 2.1624  19.31340
 2.1615  19.75410
 2.1606  20.16110
 2.1597  19.67870
 2.1588  20.06030
 2.1579  20.66570
 2.1570  20.55730
 2.1561  20.58290
 2.1552  20.88830
 2.1543  20.80370
 2.1534  20.29750
 2.1525  19.84260
 2.1517  19.30040
 2.1507  20.11170
 2.1499  20.73330
 2.1490  20.24130
 2.1481  20.06430
 2.1472  20.22320
 2.1463  19.86890
 2.1454  19.57130
 2.1445  19.84610
 2.1436  20.25400
 2.1428  19.92830
 2.1419  20.28120
 2.1410  19.99060
 2.1401  19.37860
 2.1392  19.20890
 2.1383  20.26740
 2.1375  21.27940
 2.1366  20.68850
 2.1357  20.06360
 2.1348  20.25260
 2.1339  20.66350
 2.1331  20.95040
 2.1322  20.87470
 2.1313  20.81300
 2.1304  20.98000
 2.1296  20.57530
 2.1287  19.86820
 2.1278  20.67050
 2.1269  20.43880
 2.1261  19.91360
 2.1252  19.94470
 2.1243  20.05850
 2.1235  20.15650
 2.1226  20.54410
 2.1217  20.31900
 2.1208  20.27260
 2.1200  20.57220
 2.1191  19.96220
 2.1183  20.25240
 2.1174  20.43070
 2.1165  19.87180
 2.1157  20.34450
 2.1148  20.08390
 2.1139  19.58500
 2.1131  19.25990
 2.1122  20.15870
 2.1113  19.98590
 2.1105  19.44270
 2.1096  19.66550
 2.1088  19.80450
 2.1079  19.97070
 2.1071  20.59340
 2.1062  21.19620
 2.1054  21.11240
 2.1045  20.98080
 2.1036  20.21340
 2.1028  19.78240
 2.1019  19.60700
 2.1011  19.18090
 2.1002  19.14520
 2.0994  19.21580
 2.0985  20.21970
 2.0977  21.03060
 2.0968  19.98660
 2.0960  19.48960
 2.0951  19.42710
 2.0943  19.48630
 2.0934  19.72430
 2.0926  20.13800
 2.0918  20.41160
 2.0909  19.24440
 2.0901  18.87030
 2.0892  20.63260
 2.0884  21.31300
 2.0875  20.80160
 2.0867  21.23640
 2.0859  20.45990
 2.0850  19.10170
 2.0842  19.43850
 2.0833  20.76170
 2.0825  20.26900
 2.0817  20.03900
 2.0808  19.74880
 2.0800  19.06150
 2.0792  19.36390
 2.0783  20.21400
 2.0775  21.17030
 2.0767  21.60530
 2.0759  21.17190
 2.0750  19.93410
 2.0742  18.27240
 2.0734  20.40760
 2.0725  21.81820
 2.0717  19.59180
 2.0709  18.86640
 2.0701  20.39200
 2.0692  20.65010
 2.0684  20.56390
 2.0676  21.25150
 2.0667  21.53540
 2.0659  21.02260
 2.0651  20.37500
 2.0643  19.68330
 2.0635  19.33130
 2.0626  19.94950
 2.0618  20.95270
 2.0610  22.10230
 2.0602  22.04960
 2.0594  21.16540
 2.0585  22.20170
 2.0577  21.36710
 2.0569  19.76190
 2.0561  20.71890
 2.0553  20.78890
 2.0545  20.15950
 2.0537  22.27920
 2.0528  22.94120
 2.0520  20.32600
 2.0512  19.70390
 2.0504  20.73600
 2.0496  19.63150
 2.0488  18.44440
 2.0480  19.41270
 2.0472  22.45600
 2.0464  22.66970
 2.0456  19.77600
 2.0447  19.51740
 2.0439  20.34330
 2.0431  20.28710
 2.0423  19.58010
 2.0415  18.74290
 2.0407  20.48550
 2.0399  21.95120
 2.0391  22.77910
 2.0383  23.32090
 2.0375  21.78860
 2.0367  21.58890
 2.0359  22.22760
 2.0351  20.53630
 2.0343  17.92160
 2.0335  17.68050
 2.0327  18.54260
 2.0319  19.66770
 2.0311  20.24270
 2.0303  20.10690
 2.0295  18.79410
 2.0287  18.88600
 2.0280  20.68830
 2.0272  21.31730
 2.0264  21.33980
 2.0256  20.90290
 2.0248  20.76680
 2.0240  19.32970
 2.0232  20.13760
 2.0224  20.07430
 2.0216  18.39290
 2.0208  18.61480
 2.0200  20.99750
 2.0193  21.47490
 2.0185  19.29320
 2.0177  17.91260
 2.0169  17.74120
 2.0161  18.55120
 2.0153  19.15650
 2.0146  19.65890
 2.0138  18.96970
 2.0130  18.90870
 2.0122  19.75180
 2.0114  19.45010
 2.0107  19.57940
 2.0099  20.15070
 2.0091  19.59730
 2.0083  19.19210
 2.0075  19.99880
 2.0068  20.00690
 2.0060  19.68910
 2.0052  20.60420
 2.0044  21.46720
 2.0037  20.41110
 2.0029  19.74390
 2.0021  20.57010
 2.0013  20.30600
 2.0006  19.37160
 1.9998  19.15130
