Name: Molybdenite MoS_2
Type: Mineral
Class: Sulfides
Subclass: 
Particle Size: 125-500um
Sample No.: S-11A
Owner: JPL
Wavelength range: IR
Origin: Norway, Arendal, Froland
Collected by JPL
Description: 





Measurement: Hemispherical reflectance
First Column: X
Second Column: Y
X Units:  Wavelength (micrometers)
Y Units:  Reflectance (percent)
First X Value: 15.3853
Last X Value: 2.00032
Number of X Values: 2256
Additional information: s11aa.txt
 
15.3853	33.0443
15.3397	32.9418
15.2945	32.8044
15.2495	32.5373
15.2048	32.3959
15.1603	32.3177
15.1161	32.5703
15.0722	32.9967
15.0285	33.0205
14.9851	32.6206
14.9419	32.8328
14.8989	33.1685
14.8563	32.9879
14.8138	32.7018
14.7716	32.544
14.7296	32.6141
14.6879	32.7527
14.6464	33.2205
14.6052	34.486
14.5641	35.7107
14.5233	36.385
14.4828	36.6804
14.4424	36.7269
14.4023	36.4165
14.3624	35.8992
14.3227	35.0724
14.2833	33.8584
14.244	32.7938
14.205	32.3608
14.1662	32.2664
14.1276	32.6196
14.0892	33.3377
14.051	33.7528
14.0131	33.7869
13.9753	33.7192
13.9377	33.5878
13.9004	32.9437
13.8632	32.1743
13.8262	31.8689
13.7895	32.2586
13.7529	32.7227
13.7165	32.8752
13.6803	32.8953
13.6443	32.7697
13.6085	32.6081
13.5729	32.3964
13.5374	32.031
13.5022	31.8832
13.4671	31.7494
13.4322	31.6654
13.3975	31.5573
13.363	31.305
13.3286	31.1855
13.2944	31.0405
13.2604	30.7938
13.2266	30.7273
13.193	30.8134
13.1595	30.9972
13.1262	30.9567
13.093	30.7387
13.06	30.6639
13.0272	31.133
12.9946	31.9643
12.9621	32.5077
12.9298	32.5957
12.8976	32.3902
12.8656	31.6736
12.8337	30.9735
12.8021	30.9773
12.7705	31.4839
12.7391	31.874
12.7079	32.1407
12.6769	32.6298
12.6459	33.1393
12.6152	33.7059
12.5845	34.5985
12.5541	35.4393
12.5238	35.8883
12.4936	36.0286
12.4635	36.0373
12.4337	36.1717
12.4039	36.2028
12.3743	35.9169
12.3448	35.5835
12.3155	35.3077
12.2863	35.1173
12.2573	34.8125
12.2284	34.3871
12.1996	33.9723
12.171	33.5725
12.1425	33.5957
12.1141	34.3915
12.0859	35.8548
12.0578	37.0927
12.0298	37.86
12.0019	38.4447
11.9742	38.8195
11.9466	39.0922
11.9192	39.1888
11.8918	39.2642
11.8646	39.3519
11.8375	39.3675
11.8106	39.3104
11.7837	39.3498
11.757	39.3935
11.7304	39.4423
11.7039	39.5612
11.6776	39.5603
11.6513	39.5459
11.6252	39.6646
11.5992	39.7615
11.5733	39.7431
11.5475	39.7589
11.5219	39.7699
11.4963	39.8019
11.4709	39.8206
11.4455	39.7791
11.4203	39.7265
11.3952	39.8188
11.3702	39.941
11.3454	39.8384
11.3206	39.7908
11.2959	39.7891
11.2714	39.7074
11.2469	39.6259
11.2226	39.4411
11.1983	39.2056
11.1742	38.9966
11.1502	38.8346
11.1263	38.8124
11.1024	38.7843
11.0787	38.6181
11.0551	38.4928
11.0316	38.4765
11.0081	38.5449
10.9848	38.5432
10.9616	38.5696
10.9385	38.6433
10.9154	38.7558
10.8925	38.9123
10.8697	39.0765
10.8469	39.2217
10.8243	39.2538
10.8017	39.4626
10.7793	39.7338
10.7569	39.7909
10.7346	39.7223
10.7125	39.6224
10.6904	39.5735
10.6684	39.5603
10.6465	39.5666
10.6247	39.4441
10.6029	39.3361
10.5813	39.2847
10.5597	39.2293
10.5383	39.2497
10.5169	39.3154
10.4956	39.3137
10.4744	39.3655
10.4533	39.4398
10.4323	39.5482
10.4113	39.6921
10.3904	39.8663
10.3697	39.9953
10.349	40.1989
10.3284	40.5617
10.3078	40.7602
10.2874	40.7402
10.267	40.7309
10.2467	40.7729
10.2265	40.8251
10.2064	40.802
10.1863	40.7366
10.1663	40.7344
10.1464	40.621
10.1266	40.4517
10.1069	40.38
10.0872	40.2971
10.0676	40.3114
10.0481	40.3504
10.0287	40.3449
10.0093	40.299
9.99005	40.3341
9.97084	40.3071
9.95169	40.1871
9.93263	40.161
9.91364	40.2646
9.89472	40.3704
9.87587	40.3624
9.8571	40.3964
9.83839	40.4616
9.81976	40.4557
9.80119	40.3374
9.78271	40.3593
9.76428	40.3797
9.74592	40.3064
9.72764	40.2796
9.70943	40.2371
9.69128	40.2713
9.6732	40.1957
9.65518	40.0253
9.63724	40.0359
9.61935	40.1439
9.60155	40.1339
9.5838	40.2112
9.56611	40.4641
9.5485	40.5948
9.53094	40.5212
9.51345	40.5092
9.49604	40.4719
9.47867	40.4383
9.46137	40.3433
9.44414	40.4061
9.42697	40.5547
9.40986	40.6442
9.39281	40.7599
9.37583	41.0234
9.35891	41.2395
9.34204	41.2693
9.32524	41.2626
9.3085	41.3874
9.29182	41.4571
9.27519	41.4528
9.25863	41.5162
9.24213	41.5034
9.22568	41.4545
9.2093	41.5302
9.19297	41.5521
9.17669	41.5818
9.16048	41.6502
9.14433	41.6876
9.12823	41.6591
9.11218	41.6412
9.0962	41.6911
9.08027	41.6442
9.06439	41.5801
9.04858	41.5585
9.03281	41.5525
9.0171	41.561
9.00145	41.5103
8.98585	41.5783
8.9703	41.6749
8.9548	41.5967
8.93937	41.5102
8.92398	41.5462
8.90865	41.6742
8.89337	41.6969
8.87814	41.6657
8.86296	41.7462
8.84784	41.743
8.83277	41.7267
8.81774	41.6456
8.80277	41.7734
8.78786	41.9592
8.77298	41.9508
8.75816	41.9281
8.7434	41.9996
8.72868	42.0712
8.714	42.001
8.69938	41.9265
8.68481	42.0632
8.67029	42.1935
8.65581	42.1855
8.64139	42.0678
8.62701	41.9206
8.61268	41.8613
8.5984	42.0464
8.58416	42.2984
8.56997	42.472
8.55583	42.571
8.54174	42.6375
8.52769	42.6043
8.51368	42.6603
8.49973	42.8214
8.48582	42.8559
8.47195	42.8685
8.45813	42.8834
8.44436	42.8376
8.43062	42.9403
8.41693	43.0093
8.4033	42.9676
8.3897	42.9709
8.37614	43.0131
8.36264	43.0121
8.34917	43.0361
8.33574	42.968
8.32236	42.9825
8.30903	43.0773
8.29573	43.1455
8.28248	43.068
8.26927	43.0764
8.2561	43.2373
8.24298	43.2687
8.2299	43.2218
8.21685	43.2775
8.20385	43.2888
8.19089	43.4132
8.17797	43.5436
8.16509	43.5865
8.15225	43.5719
8.13946	43.6186
8.1267	43.7643
8.11398	43.8291
8.10131	43.9164
8.08867	43.9967
8.07606	44.1579
8.0635	44.3403
8.05099	44.4685
8.0385	44.594
8.02606	44.7911
8.01366	45.0132
8.00129	45.052
7.98896	45.2151
7.97667	45.4522
7.96442	45.5641
7.9522	45.6729
7.94002	45.8421
7.92788	46.0107
7.91578	46.1813
7.90371	46.3654
7.89168	46.5881
7.87969	46.6883
7.86773	46.7975
7.85581	46.8914
7.84392	46.9987
7.83207	47.1717
7.82026	47.3302
7.80849	47.3992
7.79674	47.5359
7.78503	47.6083
7.77337	47.6396
7.76173	47.7741
7.75012	47.8865
7.73856	47.9292
7.72703	47.9921
7.71553	48.0666
7.70406	48.182
7.69263	48.2647
7.68123	48.3923
7.66987	48.5259
7.65855	48.6287
7.64725	48.6372
7.63598	48.5936
7.62475	48.6471
7.61356	48.7753
7.60239	48.8149
7.59126	48.8878
7.58017	48.9522
7.5691	48.9528
7.55806	48.9468
7.54707	49.0264
7.5361	49.1573
7.52516	49.1818
7.51425	49.2238
7.50338	49.2914
7.49253	49.3501
7.48172	49.4539
7.47094	49.5916
7.46019	49.5512
7.44947	49.3365
7.43879	49.2458
7.42813	49.1985
7.4175	49.1716
7.4069	49.1251
7.39634	49.1182
7.3858	49.1206
7.37529	49.1845
7.36482	49.2419
7.35437	49.262
7.34396	49.3722
7.33357	49.3046
7.32321	49.0822
7.31288	49.0556
7.30258	48.9902
7.29231	48.9857
7.28207	49.1231
7.27185	49.07
7.26167	48.7585
7.25152	48.7061
7.24139	48.6926
7.23129	48.6771
7.22122	48.6426
7.21117	48.8974
7.20116	48.7274
7.19117	48.3701
7.18121	48.4521
7.17128	48.736
7.16137	48.523
7.1515	48.3693
7.14164	48.1222
7.13182	47.6725
7.12203	47.5005
7.11225	47.2396
7.10251	46.8902
7.0928	46.6484
7.08311	46.3933
7.07344	46.1937
7.06381	46.1343
7.0542	46.605
7.04461	46.9248
7.03506	46.209
7.02552	45.8714
7.01601	45.7059
7.00653	45.5689
6.99708	45.802
6.98765	45.8127
6.97824	45.7675
6.96886	46.2865
6.95951	46.8475
6.95018	46.2133
6.94087	45.9092
6.9316	46.0369
6.92234	46.2045
6.91311	46.4896
6.90391	46.6875
6.89473	46.503
6.88557	46.5702
6.87644	47.0215
6.86733	48.4241
6.85824	48.5217
6.84918	47.4458
6.84015	47.2099
6.83114	47.8312
6.82215	48.0183
6.81319	47.8246
6.80424	48.3465
6.79532	49.6393
6.78643	50.1858
6.77756	49.858
6.76871	49.709
6.75989	49.6833
6.75109	49.8949
6.74231	49.9486
6.73355	50.1851
6.72482	50.5753
6.71611	50.9014
6.70742	50.9325
6.69875	50.5653
6.69011	50.9745
6.68149	51.6403
6.67289	51.3129
6.66431	50.8348
6.65576	50.7217
6.64722	51.7491
6.63871	53.2979
6.63022	52.4818
6.62175	51.1992
6.61331	50.9489
6.60488	50.8119
6.59648	51.1527
6.5881	51.3286
6.57974	51.7878
6.5714	52.3199
6.56308	51.4554
6.55478	51.0761
6.54651	50.7275
6.53825	50.3989
6.53001	50.5479
6.5218	51.076
6.51361	50.6505
6.50544	51.0141
6.49729	52.7701
6.48915	52.884
6.48104	51.7418
6.47295	51.0349
6.46488	50.365
6.45683	50.2222
6.4488	50.3389
6.44079	50.443
6.4328	50.7919
6.42482	51.3386
6.41687	52.9549
6.40894	52.3371
6.40103	50.2037
6.39314	49.5994
6.38526	49.4527
6.37741	49.5811
6.36957	49.7799
6.36176	49.19
6.35396	49.2155
6.34618	50.0856
6.33843	49.42
6.33069	48.3979
6.32297	48.1829
6.31527	48.0424
6.30758	47.9011
6.29992	47.7247
6.29227	47.6836
6.28465	47.5634
6.27704	47.4851
6.26945	47.3647
6.26188	47.161
6.25432	46.9097
6.24679	46.8182
6.23927	46.7269
6.23177	46.6258
6.22429	46.5166
6.21683	46.3903
6.20938	46.2607
6.20195	46.1583
6.19454	46.4059
6.18715	47.2737
6.17978	46.7832
6.17242	45.955
6.16508	46.3027
6.15776	46.4692
6.15045	46.088
6.14317	46.0168
6.1359	45.8009
6.12864	45.6927
6.12141	46.465
6.11419	47.4164
6.10699	46.7044
6.0998	45.9188
6.09263	45.8105
6.08549	45.9466
6.07835	46.7756
6.07123	47.1642
6.06413	46.5105
6.05705	47.2121
6.04998	49.2485
6.04293	47.9374
6.0359	46.1614
6.02888	45.8302
6.02187	46.0005
6.01489	46.3835
6.00792	46.1755
6.00096	46.0288
5.99403	46.6421
5.98711	46.7833
5.9802	46.3402
5.97331	46.6664
5.96644	46.7942
5.95958	46.0723
5.95274	46.0659
5.94591	46.607
5.9391	48.0928
5.9323	47.613
5.92552	46.3121
5.91876	46.1956
5.91201	46.1613
5.90528	46.5192
5.89856	47.7184
5.89186	47.6884
5.88517	48.1732
5.8785	48.3126
5.87184	46.8099
5.8652	46.773
5.85857	46.67
5.85196	46.3993
5.84536	46.3413
5.83878	46.6577
5.83221	47.3275
5.82566	48.3566
5.81912	48.5136
5.81259	47.5954
5.80608	47.3405
5.79959	47.4848
5.79311	47.5619
5.78665	47.8476
5.78019	48.1556
5.77376	48.9496
5.76734	50.2557
5.76093	49.6265
5.75453	49.0314
5.74815	49.4618
5.74179	49.2998
5.73543	49.3415
5.7291	49.5432
5.72277	49.8911
5.71646	50.3339
5.71017	50.6507
5.70389	50.2684
5.69762	50.2133
5.69136	50.4547
5.68513	50.3891
5.6789	50.6963
5.67268	50.8634
5.66648	50.6462
5.6603	50.976
5.65413	51.3236
5.64797	51.6575
5.64182	52.1556
5.63569	51.6778
5.62957	51.3113
5.62347	51.3417
5.61737	51.607
5.61129	51.6748
5.60522	51.7467
5.59917	51.836
5.59313	51.8498
5.5871	52.2768
5.58109	53.0234
5.57509	52.9876
5.5691	52.5944
5.56312	52.6813
5.55716	52.8932
5.55121	53.0488
5.54528	52.972
5.53935	53.0569
5.53344	53.133
5.52754	53.3671
5.52166	53.5821
5.51578	53.5889
5.50992	53.5841
5.50407	53.7137
5.49823	53.7794
5.49241	53.855
5.4866	53.9609
5.4808	54.3289
5.47501	54.3577
5.46923	54.4641
5.46347	54.6868
5.45772	54.4273
5.45198	54.3001
5.44625	54.3425
5.44054	54.3147
5.43484	54.3073
5.42914	54.6054
5.42347	55.1985
5.4178	54.905
5.41214	54.4481
5.4065	54.3854
5.40087	54.309
5.39525	54.3227
5.38964	54.2682
5.38404	54.2579
5.37846	54.2795
5.37288	54.2849
5.36732	54.2701
5.36177	54.3818
5.35623	54.6575
5.35071	54.8861
5.34519	54.6555
5.33968	54.442
5.33419	54.3962
5.32871	54.3552
5.32324	54.3979
5.31778	54.3919
5.31233	54.3741
5.30689	54.4197
5.30147	54.4159
5.29605	54.5153
5.29065	54.6764
5.28525	54.5417
5.27987	54.5532
5.2745	54.606
5.26914	54.603
5.26379	54.6408
5.25845	54.7197
5.25312	54.7566
5.24781	54.7515
5.2425	54.7304
5.23721	54.8408
5.23192	54.8784
5.22665	54.8975
5.22138	54.9915
5.21613	55.2534
5.21089	55.2441
5.20566	55.1766
5.20044	55.2422
5.19522	55.1162
5.19002	55.0828
5.18483	55.0426
5.17965	54.9949
5.17448	55.0227
5.16933	55.0242
5.16418	55.0216
5.15904	54.9717
5.15391	55.0886
5.14879	55.2593
5.14368	55.1812
5.13859	55.058
5.1335	55.04
5.12842	55.0335
5.12335	55.1011
5.1183	55.1879
5.11325	55.2309
5.10821	55.177
5.10318	55.1677
5.09817	55.1198
5.09316	55.0553
5.08816	55.0781
5.08317	55.1443
5.07819	55.1603
5.07322	55.1276
5.06826	55.1089
5.06331	55.1249
5.05837	55.0532
5.05344	55.0782
5.04852	55.1137
5.04361	55.101
5.03871	55.0404
5.03382	55.1363
5.02894	55.2012
5.02406	55.182
5.0192	55.24
5.01435	55.1654
5.0095	55.1243
5.00467	55.191
4.99984	55.1546
4.99502	55.0895
4.99021	55.07
4.98542	55.0937
4.98063	55.1615
4.97585	55.2197
4.97108	55.2253
4.96632	55.2919
4.96156	55.3393
4.95682	55.3714
4.95209	55.3787
4.94736	55.3979
4.94264	55.4278
4.93794	55.3975
4.93324	55.3772
4.92855	55.469
4.92387	55.4974
4.9192	55.5421
4.91453	55.6131
4.90988	55.6736
4.90524	55.7009
4.9006	55.7656
4.89597	55.9026
4.89135	55.9855
4.88674	56.0328
4.88214	56.1047
4.87755	56.2048
4.87296	56.2815
4.86839	56.3022
4.86382	56.2979
4.85926	56.3096
4.85471	56.3891
4.85017	56.3987
4.84564	56.455
4.84111	56.534
4.8366	56.5523
4.83209	56.6023
4.82759	56.6562
4.8231	56.6345
4.81862	56.6232
4.81415	56.5958
4.80968	56.6282
4.80522	56.7318
4.80077	56.7501
4.79633	56.7393
4.7919	56.7552
4.78747	56.766
4.78306	56.7201
4.77865	56.6758
4.77425	56.7276
4.76986	56.7767
4.76547	56.8057
4.7611	56.7881
4.75673	56.8289
4.75237	56.8567
4.74802	56.8089
4.74367	56.8017
4.73934	56.8855
4.73501	56.8622
4.73069	56.813
4.72638	56.8058
4.72207	56.8223
4.71777	56.832
4.71348	56.844
4.7092	56.843
4.70493	56.7818
4.70066	56.7023
4.69641	56.6826
4.69216	56.6747
4.68791	56.6629
4.68368	56.6185
4.67945	56.6178
4.67523	56.6429
4.67102	56.6536
4.66682	56.6683
4.66262	56.7543
4.65843	56.7803
4.65425	56.7316
4.65007	56.8077
4.64591	56.8613
4.64175	56.8467
4.6376	56.8418
4.63345	56.8551
4.62932	56.8562
4.62519	56.8803
4.62106	56.8975
4.61695	56.8939
4.61284	56.8512
4.60874	56.8281
4.60465	56.8813
4.60056	56.9137
4.59648	56.8635
4.59241	56.8746
4.58835	56.8747
4.58429	56.88
4.58024	56.9148
4.5762	56.9201
4.57216	56.915
4.56814	56.8965
4.56411	56.914
4.5601	56.8934
4.55609	56.842
4.55209	56.7862
4.5481	56.7379
4.54411	56.6631
4.54013	56.6509
4.53616	56.702
4.5322	56.7136
4.52824	56.6394
4.52429	56.583
4.52034	56.5731
4.51641	56.5592
4.51247	56.4763
4.50855	56.4154
4.50463	56.4059
4.50072	56.3581
4.49682	56.2387
4.49292	56.2238
4.48903	56.2488
4.48515	56.2226
4.48127	56.1693
4.4774	56.2141
4.47354	56.2312
4.46968	56.1436
4.46584	56.1043
4.46199	56.1297
4.45815	56.1535
4.45432	56.1579
4.4505	56.1735
4.44668	56.1924
4.44287	56.1683
4.43907	56.1669
4.43527	56.1942
4.43148	56.1511
4.4277	56.2
4.42392	56.2367
4.42015	56.2129
4.41638	56.199
4.41262	56.1698
4.40887	56.1999
4.40513	56.2163
4.40139	56.2218
4.39765	56.2003
4.39393	56.2154
4.39021	56.2257
4.38649	56.202
4.38278	56.1941
4.37908	56.2912
4.37539	56.3525
4.3717	56.3026
4.36801	56.2749
4.36434	56.3258
4.36067	56.372
4.357	56.3261
4.35335	56.2581
4.34969	56.2435
4.34605	56.2018
4.34241	56.1308
4.33877	56.1127
4.33514	56.1065
4.33152	56.0349
4.32791	55.9892
4.3243	55.9319
4.32069	55.8173
4.3171	55.6775
4.31351	55.559
4.30992	55.3912
4.30634	55.2696
4.30277	55.1552
4.2992	55.1048
4.29564	54.986
4.29208	54.8218
4.28853	54.7395
4.28499	54.6832
4.28145	54.6627
4.27792	54.6047
4.27439	54.5613
4.27087	54.649
4.26735	54.8371
4.26384	55.0382
4.26034	55.2901
4.25684	55.4721
4.25335	55.3108
4.24986	54.888
4.24638	54.4855
4.24291	54.2132
4.23944	54.0371
4.23598	53.9424
4.23252	53.8953
4.22906	53.9794
4.22562	54.1777
4.22218	54.3925
4.21874	54.6038
4.21531	54.8202
4.21189	55.0183
4.20847	55.2194
4.20506	55.4168
4.20165	55.5752
4.19825	55.6145
4.19485	55.6243
4.19146	55.6502
4.18807	55.6428
4.18469	55.6105
4.18132	55.5851
4.17795	55.6036
4.17458	55.6389
4.17123	55.6062
4.16787	55.5189
4.16453	55.5001
4.16118	55.5229
4.15785	55.4519
4.15451	55.4375
4.15119	55.4681
4.14787	55.4136
4.14455	55.363
4.14124	55.3119
4.13794	55.2755
4.13464	55.3582
4.13134	55.414
4.12805	55.4217
4.12477	55.3635
4.12149	55.2952
4.11822	55.2689
4.11495	55.2677
4.11168	55.289
4.10843	55.2783
4.10517	55.2167
4.10192	55.1649
4.09868	55.1371
4.09545	55.1295
4.09221	55.0903
4.08899	55.0891
4.08576	55.1566
4.08255	55.2046
4.07933	55.1501
4.07613	55.0961
4.07292	55.0757
4.06973	55.0207
4.06654	55.004
4.06335	55.0116
4.06017	54.8964
4.05699	54.8235
4.05382	54.8579
4.05065	54.9117
4.04749	54.9087
4.04433	54.8636
4.04118	54.8624
4.03803	54.8395
4.03489	54.8355
4.03175	54.8021
4.02862	54.723
4.02549	54.7329
4.02237	54.8044
4.01925	54.8167
4.01614	54.7362
4.01303	54.6615
4.00993	54.6729
4.00683	54.6719
4.00373	54.5988
4.00064	54.593
3.99756	54.6302
3.99448	54.6371
3.9914	54.6054
3.98833	54.6005
3.98527	54.5788
3.98221	54.4752
3.97915	54.4456
3.9761	54.462
3.97305	54.4896
3.97001	54.4937
3.96697	54.4616
3.96394	54.4376
3.96091	54.4817
3.95789	54.4797
3.95487	54.4447
3.95186	54.4407
3.94885	54.4762
3.94584	54.487
3.94284	54.4351
3.93984	54.4149
3.93685	54.4492
3.93386	54.394
3.93088	54.3234
3.9279	54.3565
3.92493	54.3262
3.92196	54.2671
3.919	54.3055
3.91604	54.3086
3.91308	54.3405
3.91013	54.3028
3.90718	54.2722
3.90424	54.3021
3.9013	54.1807
3.89837	54.1663
3.89544	54.1836
3.89252	54.1449
3.8896	54.1981
3.88668	54.2086
3.88377	54.1099
3.88086	54.0378
3.87796	54.1042
3.87506	54.1231
3.87217	54.0054
3.86928	53.9963
3.86639	54.0658
3.86351	54.0323
3.86064	54.0127
3.85776	53.9808
3.8549	53.9157
3.85203	53.9067
3.84917	53.9257
3.84631	53.8551
3.84346	53.8467
3.84062	53.8865
3.83777	53.9137
3.83494	53.8818
3.8321	53.8323
3.82927	53.8309
3.82644	53.7913
3.82362	53.792
3.82081	53.7746
3.81799	53.7202
3.81518	53.7577
3.81238	53.7973
3.80958	53.6725
3.80678	53.5758
3.80399	53.5286
3.8012	53.5459
3.79841	53.6139
3.79563	53.5971
3.79286	53.4881
3.79008	53.5162
3.78731	53.572
3.78455	53.5217
3.78179	53.3983
3.77903	53.3358
3.77628	53.3709
3.77353	53.3886
3.77079	53.4146
3.76805	53.421
3.76531	53.3519
3.76258	53.2817
3.75985	53.2553
3.75713	53.2946
3.7544	53.3098
3.75169	53.3006
3.74898	53.2565
3.74627	53.2413
3.74356	53.2346
3.74086	53.1793
3.73816	53.0767
3.73547	53.0529
3.73278	53.0388
3.7301	53.0408
3.72741	53.1217
3.72474	53.0781
3.72206	52.9964
3.71939	52.9639
3.71673	52.9083
3.71406	52.882
3.71141	52.8686
3.70875	52.8669
3.7061	52.8293
3.70345	52.8026
3.70081	52.7557
3.69817	52.6759
3.69553	52.6403
3.6929	52.6846
3.69027	52.7497
3.68765	52.7404
3.68503	52.6067
3.68241	52.4804
3.6798	52.4766
3.67719	52.5678
3.67458	52.5651
3.67198	52.4326
3.66938	52.4005
3.66678	52.3847
3.66419	52.3644
3.66161	52.3099
3.65902	52.2696
3.65644	52.2531
3.65387	52.2489
3.65129	52.1698
3.64872	52.1546
3.64616	52.1804
3.64359	52.1087
3.64103	52.0359
3.63848	51.9929
3.63593	51.9572
3.63338	51.8671
3.63084	51.8183
3.6283	51.8834
3.62576	51.8694
3.62322	51.7936
3.62069	51.7941
3.61817	51.7617
3.61564	51.6076
3.61312	51.5654
3.61061	51.5738
3.6081	51.5372
3.60559	51.4728
3.60308	51.471
3.60058	51.4403
3.59808	51.4205
3.59558	51.3839
3.59309	51.333
3.59061	51.3524
3.58812	51.2677
3.58564	51.1524
3.58316	51.1512
3.58069	51.1549
3.57822	51.0955
3.57575	51.0335
3.57328	50.9755
3.57082	50.9226
3.56836	50.8161
3.56591	50.7786
3.56346	50.7323
3.56101	50.6903
3.55857	50.6874
3.55613	50.5497
3.55369	50.4962
3.55126	50.5235
3.54883	50.4189
3.5464	50.3802
3.54397	50.3213
3.54155	50.2517
3.53914	50.1951
3.53672	50.0888
3.53431	50.0624
3.5319	49.9629
3.5295	49.7486
3.5271	49.5582
3.5247	49.4109
3.52231	49.215
3.51991	48.9639
3.51753	48.7651
3.51514	48.5998
3.51276	48.3691
3.51038	48.2863
3.50801	48.2981
3.50563	48.2291
3.50327	48.2285
3.5009	48.3269
3.49854	48.4155
3.49618	48.4852
3.49382	48.5105
3.49147	48.5007
3.48912	48.4744
3.48677	48.4383
3.48443	48.4606
3.48209	48.4677
3.47975	48.4032
3.47742	48.4102
3.47509	48.3934
3.47276	48.2664
3.47044	48.1911
3.46812	48.2542
3.4658	48.2558
3.46348	48.2046
3.46117	48.1353
3.45886	48.0327
3.45656	47.9614
3.45425	47.7755
3.45195	47.6071
3.44966	47.4599
3.44736	47.2159
3.44507	47.0423
3.44279	46.8982
3.4405	46.7448
3.43822	46.4934
3.43594	46.196
3.43367	45.9223
3.43139	45.6115
3.42912	45.308
3.42686	45.0104
3.42459	44.9633
3.42233	45.2275
3.42007	45.5102
3.41782	45.8029
3.41557	46.0313
3.41332	46.1392
3.41108	46.3197
3.40883	46.4322
3.40659	46.454
3.40435	46.4764
3.40212	46.5249
3.39989	46.5399
3.39766	46.5067
3.39544	46.4561
3.39322	46.341
3.391	46.2022
3.38878	46.1323
3.38657	46.2101
3.38436	46.2348
3.38215	46.2784
3.37994	46.379
3.37774	46.4399
3.37554	46.4879
3.37335	46.7293
3.37115	46.8593
3.36896	46.8729
3.36678	46.9138
3.36459	47.0619
3.36241	47.1767
3.36023	47.2316
3.35805	47.2365
3.35588	47.2246
3.35371	47.2085
3.35154	47.1132
3.34938	47.0858
3.34721	47.1981
3.34505	47.2499
3.3429	47.2495
3.34074	47.1896
3.33859	47.1476
3.33644	47.0567
3.3343	47.0518
3.33215	47.1116
3.33001	47.0242
3.32788	46.9503
3.32574	47.0043
3.32361	47.05
3.32148	47.0041
3.31936	46.9058
3.31723	46.8718
3.31511	46.9199
3.31299	46.8289
3.31088	46.7478
3.30876	46.76
3.30665	46.7518
3.30455	46.7058
3.30244	46.6255
3.30034	46.6338
3.29824	46.6829
3.29614	46.5631
3.29405	46.4825
3.29196	46.4641
3.28987	46.4361
3.28778	46.4636
3.2857	46.4809
3.28362	46.3772
3.28154	46.3395
3.27946	46.2578
3.27739	46.1485
3.27532	46.1001
3.27325	46.1231
3.27119	46.2353
3.26913	46.1691
3.26707	46.0933
3.26501	46.106
3.26295	46.0286
3.2609	45.9637
3.25885	45.9314
3.2568	45.9929
3.25476	46.0498
3.25272	45.9074
3.25068	45.8214
3.24864	45.916
3.24661	45.9371
3.24458	45.8603
3.24255	45.7773
3.24052	45.8811
3.2385	45.934
3.23648	45.8202
3.23446	45.6434
3.23244	45.615
3.23043	45.7436
3.22841	45.7288
3.2264	45.6639
3.2244	45.6203
3.22239	45.6346
3.22039	45.6397
3.21839	45.6013
3.2164	45.6111
3.2144	45.5754
3.21241	45.5303
3.21042	45.4965
3.20844	45.458
3.20645	45.433
3.20447	45.4366
3.20249	45.4411
3.20051	45.4376
3.19854	45.4623
3.19657	45.4328
3.1946	45.2701
3.19263	45.2693
3.19067	45.3409
3.1887	45.3635
3.18674	45.3488
3.18479	45.3362
3.18283	45.3147
3.18088	45.2993
3.17893	45.2364
3.17698	45.1034
3.17504	45.0188
3.17309	45.0837
3.17115	45.1792
3.16921	45.2872
3.16728	45.2035
3.16534	44.9746
3.16341	44.8444
3.16148	44.835
3.15956	44.9291
3.15763	44.8924
3.15571	44.857
3.15379	44.8946
3.15187	44.884
3.14996	44.848
3.14805	44.8613
3.14614	44.8265
3.14423	44.7266
3.14232	44.6335
3.14042	44.6262
3.13852	44.6494
3.13662	44.6343
3.13472	44.5791
3.13283	44.5008
3.13094	44.5537
3.12905	44.6416
3.12716	44.6491
3.12528	44.5762
3.12339	44.4971
3.12151	44.4993
3.11964	44.5166
3.11776	44.5412
3.11589	44.5359
3.11401	44.524
3.11214	44.4749
3.11028	44.4273
3.10841	44.3756
3.10655	44.3411
3.10469	44.466
3.10283	44.544
3.10098	44.4231
3.09912	44.401
3.09727	44.4799
3.09542	44.4576
3.09358	44.392
3.09173	44.3503
3.08989	44.3518
3.08805	44.4078
3.08621	44.4487
3.08437	44.4703
3.08254	44.4445
3.08071	44.4182
3.07888	44.4229
3.07705	44.3894
3.07523	44.4306
3.0734	44.4983
3.07158	44.4333
3.06977	44.4177
3.06795	44.4647
3.06613	44.5187
3.06432	44.5082
3.06251	44.6125
3.0607	44.5348
3.0589	44.4578
3.0571	44.5122
3.05529	44.4652
3.05349	44.5212
3.0517	44.5659
3.0499	44.5596
3.04811	44.5968
3.04632	44.6782
3.04453	44.6471
3.04274	44.6374
3.04096	44.7763
3.03918	44.8987
3.0374	44.8076
3.03562	44.7365
3.03384	44.8352
3.03207	44.8965
3.03029	44.8184
3.02852	44.7574
3.02676	44.8019
3.02499	44.8337
3.02323	44.8544
3.02146	44.847
3.0197	44.8577
3.01795	44.9018
3.01619	44.951
3.01444	45.0235
3.01269	45.0518
3.01094	44.968
3.00919	45.0092
3.00744	45.1447
3.0057	45.2452
3.00396	45.3028
3.00222	45.2183
3.00048	45.1478
2.99875	45.2522
2.99701	45.2799
2.99528	45.1782
2.99355	45.1039
2.99183	45.0539
2.9901	45.1195
2.98838	45.2439
2.98666	45.3452
2.98494	45.3509
2.98322	45.2591
2.9815	45.1985
2.97979	45.2527
2.97808	45.3596
2.97637	45.374
2.97466	45.3313
2.97295	45.2775
2.97125	45.2708
2.96955	45.2813
2.96785	45.3124
2.96615	45.2474
2.96446	45.1959
2.96276	45.1717
2.96107	45.2535
2.95938	45.3857
2.95769	45.4074
2.95601	45.3718
2.95432	45.3747
2.95264	45.3067
2.95096	45.2866
2.94928	45.3137
2.9476	45.3383
2.94593	45.2991
2.94425	45.2222
2.94258	45.2417
2.94092	45.1829
2.93925	45.1705
2.93758	45.3382
2.93592	45.4539
2.93426	45.4387
2.9326	45.3886
2.93094	45.3933
2.92928	45.4374
2.92763	45.4543
2.92598	45.3759
2.92433	45.3497
2.92268	45.4674
2.92103	45.5176
2.91939	45.5154
2.91775	45.572
2.9161	45.5276
2.91447	45.5193
2.91283	45.4401
2.91119	45.4526
2.90956	45.5951
2.90793	45.6654
2.9063	45.7683
2.90467	45.7526
2.90304	45.6695
2.90142	45.764
2.89979	45.7775
2.89817	45.7716
2.89656	45.7787
2.89494	45.8133
2.89332	45.8625
2.89171	45.9541
2.8901	46.1008
2.88849	46.1668
2.88688	46.1152
2.88527	45.9981
2.88367	45.9899
2.88206	46.0532
2.88046	46.153
2.87886	46.216
2.87727	46.2264
2.87567	46.2487
2.87408	46.3435
2.87248	46.3897
2.87089	46.4283
2.8693	46.433
2.86772	46.4986
2.86613	46.5832
2.86455	46.5491
2.86297	46.5271
2.86139	46.6074
2.85981	46.5582
2.85823	46.6248
2.85666	46.8275
2.85508	46.923
2.85351	46.9246
2.85194	46.8915
2.85038	46.9419
2.84881	46.9606
2.84724	46.94
2.84568	47.0037
2.84412	47.1232
2.84256	47.2687
2.841	47.2206
2.83945	47.1753
2.83789	47.2585
2.83634	47.456
2.83479	47.6358
2.83324	47.6281
2.83169	47.5585
2.83015	47.5415
2.82861	47.55
2.82706	47.4542
2.82552	47.5014
2.82398	47.7048
2.82245	47.8662
2.82091	48.0013
2.81938	48.0633
2.81784	47.9923
2.81631	48.0847
2.81479	48.2019
2.81326	48.1314
2.81173	48.0807
2.81021	48.2121
2.80869	48.3854
2.80716	48.4663
2.80565	48.6596
2.80413	49.2472
2.80261	49.287
2.8011	48.8793
2.79959	48.813
2.79808	48.8795
2.79657	48.7999
2.79506	48.8492
2.79355	49.0129
2.79205	49.1084
2.79055	49.221
2.78904	49.573
2.78754	50.0354
2.78605	49.9993
2.78455	49.6656
2.78306	49.7918
2.78156	49.9123
2.78007	49.9098
2.77858	49.9963
2.77709	50.0745
2.77561	50.0629
2.77412	50.1916
2.77264	50.5326
2.77116	50.9963
2.76968	50.9827
2.7682	51.032
2.76672	51.0358
2.76524	50.9904
2.76377	51.2908
2.7623	51.4404
2.76083	51.1444
2.75936	51.0945
2.75789	51.4564
2.75642	52.69
2.75496	53.1386
2.7535	52.202
2.75203	52.0117
2.75057	51.9522
2.74912	51.9759
2.74766	52.1715
2.7462	52.4469
2.74475	52.7001
2.7433	53.0716
2.74185	54.0685
2.7404	54.9155
2.73895	54.6359
2.7375	53.9363
2.73606	54.1254
2.73462	54.458
2.73318	54.0483
2.73174	54.0512
2.7303	54.2175
2.72886	54.3366
2.72742	54.6753
2.72599	55.5997
2.72456	56.4397
2.72313	56.1467
2.7217	56.69
2.72027	57.3848
2.71884	56.4191
2.71742	55.9326
2.71599	55.7225
2.71457	55.8885
2.71315	56.2922
2.71173	57.4104
2.71032	57.6802
2.7089	57.0612
2.70748	56.6124
2.70607	56.4042
2.70466	56.3833
2.70325	56.52
2.70184	57.0021
2.70043	57.0733
2.69903	56.8853
2.69762	57.1264
2.69622	57.7674
2.69482	58.4091
2.69342	58.5434
2.69202	57.8676
2.69062	57.603
2.68923	57.7558
2.68783	57.993
2.68644	58.1702
2.68505	58.3
2.68366	58.3259
2.68227	58.0392
2.68089	58.1682
2.6795	58.9838
2.67812	59.2756
2.67673	59.5929
2.67535	59.0539
2.67397	58.461
2.6726	58.6943
2.67122	60.2936
2.66984	60.4332
2.66847	59.3282
2.6671	60.2606
2.66572	60.6681
2.66435	59.8067
2.66299	58.7184
2.66162	58.7753
2.66025	58.8482
2.65889	58.6721
2.65753	58.3305
2.65616	58.5865
2.65481	58.5942
2.65345	58.9127
2.65209	59.02
2.65073	58.5591
2.64938	58.3946
2.64803	58.4337
2.64667	58.6144
2.64532	58.7683
2.64397	58.5032
2.64263	58.5881
2.64128	58.5669
2.63994	58.4709
2.63859	58.3464
2.63725	58.3552
2.63591	58.4715
2.63457	58.8101
2.63323	58.7948
2.6319	59.2579
2.63056	60.1242
2.62923	59.3288
2.62789	59.1426
2.62656	59.6886
2.62523	58.8708
2.6239	58.4045
2.62258	58.5084
2.62125	59.4155
2.61993	59.6608
2.6186	59.1486
2.61728	59.824
2.61596	59.5986
2.61464	58.7985
2.61332	58.8167
2.61201	58.7402
2.61069	58.8519
2.60938	59.1582
2.60807	59.3228
2.60675	59.8231
2.60544	60.3397
2.60414	59.6772
2.60283	59.1476
2.60152	58.9706
2.60022	58.6665
2.59891	58.4635
2.59761	58.8788
2.59631	60.2879
2.59501	61.9496
2.59371	60.7253
2.59242	59.0097
2.59112	58.6827
2.58983	58.9166
2.58853	59.1775
2.58724	59.3512
2.58595	59.0738
2.58466	59.6504
2.58338	59.6616
2.58209	59.0132
2.5808	59.0365
2.57952	58.7171
2.57824	58.8587
2.57695	59.1868
2.57567	58.903
2.5744	59.1802
2.57312	59.4674
2.57184	58.8226
2.57057	58.9721
2.56929	59.0118
2.56802	58.6281
2.56675	58.6226
2.56548	58.9755
2.56421	59.4299
2.56294	59.6063
2.56168	59.5663
2.56041	59.1303
2.55915	58.6875
2.55789	58.5157
2.55662	58.4638
2.55536	58.4783
2.5541	58.7087
2.55285	58.9639
2.55159	58.8305
2.55034	58.7061
2.54908	58.6531
2.54783	58.6345
2.54658	58.5576
2.54533	58.6402
2.54408	58.7527
2.54283	58.7352
2.54159	58.525
2.54034	58.4896
2.5391	58.5475
2.53785	58.5833
2.53661	58.6129
2.53537	58.5928
2.53413	58.5602
2.53289	58.588
2.53166	58.5847
2.53042	58.4985
2.52919	58.531
2.52795	58.5734
2.52672	58.5636
2.52549	58.5263
2.52426	58.5069
2.52303	58.4785
2.52181	58.3601
2.52058	58.4809
2.51936	58.5945
2.51813	58.5779
2.51691	58.5189
2.51569	58.5151
2.51447	58.4638
2.51325	58.4475
2.51203	58.4803
2.51082	58.5103
2.5096	58.4836
2.50839	58.4729
2.50717	58.4466
2.50596	58.4089
2.50475	58.4226
2.50354	58.3809
2.50233	58.4515
2.50113	58.5535
2.49992	58.5243
2.49872	58.4959
2.49751	58.4475
2.49631	58.4146
2.49511	58.4552
2.49391	58.5464
2.49271	58.531
2.49151	58.4959
2.49031	58.4765
2.48912	58.414
2.48792	58.3496
2.48673	58.3497
2.48554	58.4994
2.48435	58.5391
2.48316	58.4852
2.48197	58.4466
2.48078	58.5049
2.4796	58.6093
2.47841	58.5937
2.47723	58.6061
2.47604	58.6473
2.47486	58.5413
2.47368	58.5028
2.4725	58.6205
2.47132	58.5243
2.47014	58.3547
2.46897	58.3989
2.46779	58.5365
2.46662	58.5959
2.46545	58.6733
2.46427	58.6657
2.4631	58.5468
2.46193	58.4585
2.46077	58.5218
2.4596	58.5231
2.45843	58.3646
2.45727	58.3448
2.4561	58.4746
2.45494	58.5455
2.45378	58.5361
2.45262	58.5809
2.45146	58.4927
2.4503	58.5264
2.44914	58.5752
2.44799	58.6728
2.44683	58.5725
2.44568	58.4011
2.44452	58.4807
2.44337	58.6704
2.44222	58.7035
2.44107	58.5667
2.43992	58.5407
2.43877	58.5157
2.43763	58.4979
2.43648	58.5176
2.43534	58.5821
2.43419	58.6464
2.43305	58.5272
2.43191	58.5127
2.43077	58.5825
2.42963	58.602
2.42849	58.575
2.42736	58.525
2.42622	58.5013
2.42509	58.548
2.42395	58.6188
2.42282	58.5657
2.42169	58.5435
2.42056	58.698
2.41943	58.7778
2.4183	58.6815
2.41717	58.7348
2.41605	58.8186
2.41492	58.7544
2.4138	58.6773
2.41267	58.6828
2.41155	58.5744
2.41043	58.5612
2.40931	58.7369
2.40819	58.5832
2.40707	58.5486
2.40595	58.6959
2.40484	58.827
2.40372	58.8328
2.40261	58.7573
2.4015	58.7369
2.40039	58.8351
2.39928	58.7814
2.39817	58.6813
2.39706	58.6771
2.39595	58.6955
2.39484	58.7103
2.39374	58.7327
2.39263	58.603
2.39153	58.6875
2.39043	58.7621
2.38932	58.856
2.38822	58.8177
2.38712	58.6611
2.38603	58.7087
2.38493	58.7592
2.38383	58.6971
2.38274	58.6406
2.38164	58.6191
2.38055	58.6676
2.37946	58.648
2.37836	58.6485
2.37727	58.7352
2.37618	58.8091
2.3751	58.7106
2.37401	58.682
2.37292	58.7173
2.37184	58.7159
2.37075	58.6759
2.36967	58.6914
2.36859	58.7303
2.3675	58.7214
2.36642	58.6869
2.36534	58.6561
2.36427	58.6317
2.36319	58.5573
2.36211	58.6443
2.36104	58.7025
2.35996	58.6801
2.35889	58.7879
2.35781	58.8856
2.35674	58.8587
2.35567	58.805
2.3546	58.6993
2.35353	58.7281
2.35247	58.81
2.3514	58.8066
2.35033	58.7379
2.34927	58.6085
2.3482	58.6308
2.34714	58.6882
2.34608	58.6841
2.34502	58.6993
2.34396	58.712
2.3429	58.6209
2.34184	58.6767
2.34078	58.7933
2.33973	58.7357
2.33867	58.6957
2.33762	58.7451
2.33656	58.7998
2.33551	58.7798
2.33446	58.6072
2.33341	58.4985
2.33236	58.4762
2.33131	58.5822
2.33026	58.7292
2.32922	58.8505
2.32817	58.967
2.32712	58.9713
2.32608	58.8529
2.32504	58.7929
2.324	58.721
2.32295	58.647
2.32191	58.6453
2.32087	58.7223
2.31984	58.791
2.3188	58.764
2.31776	58.7245
2.31673	58.7648
2.31569	58.7958
2.31466	58.7112
2.31362	58.6451
2.31259	58.6941
2.31156	58.892
2.31053	58.9442
2.3095	58.7894
2.30847	58.678
2.30745	58.679
2.30642	58.8343
2.3054	58.8649
2.30437	58.9759
2.30335	59.0315
2.30232	58.8725
2.3013	58.7611
2.30028	58.7166
2.29926	58.6868
2.29824	58.7356
2.29722	58.7486
2.29621	58.6706
2.29519	58.6753
2.29417	58.7943
2.29316	58.827
2.29215	58.7786
2.29113	58.694
2.29012	58.8038
2.28911	58.816
2.2881	58.9558
2.28709	59.0165
2.28608	58.9449
2.28507	58.8197
2.28407	58.7858
2.28306	58.8969
2.28206	59.0034
2.28105	58.8732
2.28005	58.7062
2.27905	58.7287
2.27805	58.8516
2.27705	58.8898
2.27605	58.962
2.27505	59.0373
2.27405	59.0427
2.27305	58.9819
2.27206	58.9602
2.27106	58.8394
2.27007	58.7682
2.26907	58.782
2.26808	58.7884
2.26709	58.7602
2.2661	58.7529
2.26511	58.8045
2.26412	58.924
2.26313	58.9958
2.26214	58.9171
2.26116	58.8653
2.26017	58.8757
2.25919	58.8065
2.2582	58.7811
2.25722	58.8493
2.25624	58.8723
2.25526	58.7922
2.25428	58.8726
2.2533	58.9648
2.25232	58.8632
2.25134	58.7943
2.25036	58.8593
2.24939	58.8259
2.24841	58.8853
2.24744	58.8688
2.24646	58.8046
2.24549	58.8105
2.24452	58.8276
2.24355	58.7382
2.24257	58.6651
2.24161	58.7304
2.24064	58.8989
2.23967	58.8886
2.2387	58.8411
2.23774	58.9237
2.23677	58.9036
2.23581	58.7568
2.23484	58.7705
2.23388	58.8202
2.23292	58.8125
2.23196	58.8763
2.231	58.8698
2.23004	58.885
2.22908	58.9075
2.22812	58.7886
2.22716	58.7762
2.22621	58.787
2.22525	58.7904
2.2243	58.7281
2.22334	58.6616
2.22239	58.6368
2.22144	58.6512
2.22049	58.6224
2.21953	58.6221
2.21859	58.6698
2.21764	58.5929
2.21669	58.6253
2.21574	58.6939
2.21479	58.7243
2.21385	58.8348
2.2129	58.8342
2.21196	58.712
2.21102	58.6593
2.21007	58.741
2.20913	58.6171
2.20819	58.523
2.20725	58.6489
2.20631	58.775
2.20537	58.7148
2.20444	58.6247
2.2035	58.6272
2.20256	58.6694
2.20163	58.6418
2.20069	58.6637
2.19976	58.7385
2.19883	58.6586
2.19789	58.5007
2.19696	58.4808
2.19603	58.4874
2.1951	58.5044
2.19417	58.5535
2.19325	58.6663
2.19232	58.6904
2.19139	58.7156
2.19047	58.6108
2.18954	58.4772
2.18862	58.5466
2.18769	58.4643
2.18677	58.5065
2.18585	58.605
2.18493	58.6914
2.18401	58.8471
2.18309	58.8064
2.18217	58.6056
2.18125	58.6305
2.18033	58.6941
2.17942	58.7159
2.1785	58.8033
2.17759	58.7439
2.17667	58.5995
2.17576	58.5031
2.17485	58.5735
2.17393	58.6534
2.17302	58.5556
2.17211	58.4663
2.1712	58.5499
2.17029	58.7265
2.16939	58.946
2.16848	58.9724
2.16757	58.8644
2.16667	58.7807
2.16576	58.7105
2.16486	58.7276
2.16395	58.701
2.16305	58.5659
2.16215	58.575
2.16125	58.6422
2.16035	58.5527
2.15945	58.643
2.15855	58.7933
2.15765	58.6899
2.15675	58.6159
2.15586	58.5936
2.15496	58.6479
2.15406	58.6816
2.15317	58.6789
2.15228	58.5584
2.15138	58.5652
2.15049	58.7029
2.1496	58.8834
2.14871	58.8374
2.14782	58.6008
2.14693	58.4573
2.14604	58.4958
2.14515	58.6775
2.14427	58.7559
2.14338	58.7761
2.14249	58.5917
2.14161	58.5591
2.14072	58.5942
2.13984	58.45
2.13896	58.5381
2.13808	58.7047
2.13719	58.642
2.13631	58.7215
2.13543	58.8298
2.13455	58.7087
2.13368	58.7064
2.1328	58.7005
2.13192	58.5667
2.13105	58.617
2.13017	58.6464
2.1293	58.4403
2.12842	58.5167
2.12755	58.7094
2.12668	58.7303
2.1258	58.6227
2.12493	58.5485
2.12406	58.6444
2.12319	58.7938
2.12232	58.7271
2.12145	58.6235
2.12059	58.6568
2.11972	58.7058
2.11885	58.6154
2.11799	58.493
2.11712	58.4758
2.11626	58.463
2.1154	58.5008
2.11453	58.5495
2.11367	58.6065
2.11281	58.867
2.11195	58.9176
2.11109	58.7529
2.11023	58.5908
2.10937	58.6367
2.10851	58.457
2.10766	58.3608
2.1068	58.5016
2.10594	58.5582
2.10509	58.5608
2.10423	58.4459
2.10338	58.4349
2.10253	58.5448
2.10168	58.5922
2.10082	58.6607
2.09997	58.5463
2.09912	58.3172
2.09827	58.4488
2.09742	58.6577
2.09658	58.5351
2.09573	58.5043
2.09488	58.577
2.09404	58.3891
2.09319	58.4338
2.09235	58.5102
2.0915	58.3579
2.09066	58.4036
2.08982	58.4755
2.08897	58.4836
2.08813	58.5461
2.08729	58.7053
2.08645	58.4841
2.08561	58.2102
2.08477	58.1465
2.08394	58.3343
2.0831	58.3667
2.08226	58.2426
2.08143	58.2402
2.08059	58.4876
2.07976	58.4596
2.07892	58.3173
2.07809	58.2486
2.07726	58.3973
2.07643	58.3129
2.07559	58.3687
2.07476	58.5561
2.07393	58.5351
2.0731	58.5802
2.07228	58.4946
2.07145	58.3865
2.07062	58.4634
2.06979	58.3412
2.06897	58.4647
2.06814	58.5672
2.06732	58.3621
2.06649	58.3158
2.06567	58.3902
2.06485	58.4676
2.06403	58.4627
2.0632	58.2862
2.06238	58.1864
2.06156	58.208
2.06074	58.2592
2.05993	58.2835
2.05911	58.3863
2.05829	58.4161
2.05747	58.4041
2.05666	58.4576
2.05584	58.4063
2.05503	58.5512
2.05421	58.6436
2.0534	58.5948
2.05259	58.6383
2.05177	58.6871
2.05096	58.5409
2.05015	58.3166
2.04934	58.1914
2.04853	58.1842
2.04772	58.0808
2.04691	58.0491
2.04611	58.1788
2.0453	58.2825
2.04449	58.376
2.04369	58.4529
2.04288	58.4666
2.04208	58.5382
2.04127	58.4205
2.04047	58.3482
2.03967	58.336
2.03886	58.2244
2.03806	58.2446
2.03726	58.3067
2.03646	58.3766
2.03566	58.343
2.03486	58.3548
2.03407	58.3672
2.03327	58.1817
2.03247	58.0324
2.03167	57.9437
2.03088	57.938
2.03008	58.3286
2.02929	58.6205
2.0285	58.3165
2.0277	58.239
2.02691	58.4608
2.02612	58.4528
2.02533	58.3029
2.02453	58.1984
2.02374	58.1841
2.02295	58.1901
2.02217	58.2358
2.02138	58.1269
2.02059	58.1294
2.0198	58.0674
2.01902	58.0172
2.01823	58.0372
2.01744	57.9938
2.01666	58.0154
2.01588	58.0222
2.01509	58.064
2.01431	58.3302
2.01353	58.2901
2.01275	57.9517
2.01196	58.0132
2.01118	58.2432
2.0104	57.98
2.00963	58.0281
2.00885	58.2102
2.00807	57.9814
2.00729	57.8507
2.00651	58.0027
2.00574	58.1579
2.00496	57.9912
2.00419	57.9342
2.00341	58.0674
2.00264	58.1198
2.00187	57.9925
2.00109	57.9314
2.00032	57.9762
