Name: Barite BaSO_4
Type: Mineral
Class: Sulfates
Subclass: 
Particle Size: 45-125um
Sample No.: SO-3A
Owner: JPL
Wavelength range: IR
Origin: USA, South Carolina, Cherokee County, Kings Creek
Collected by Ward's
Description: 





Measurement: Hemispherical reflectance
First Column: X
Second Column: Y
X Units:  Wavelength (micrometers)
Y Units:  Reflectance (percent)
First X Value: 15.3853
Last X Value: 2.00032
Number of X Values: 2256
Additional information: so03aa.txt
 
15.3853	3.85132
15.3397	3.00106
15.2945	2.06583
15.2495	1.72028
15.2048	1.77321
15.1603	1.53403
15.1161	1.54007
15.0722	1.90828
15.0285	2.13598
14.9851	2.5009
14.9419	3.41449
14.8989	4.3713
14.8563	5.24589
14.8138	6.47358
14.7716	7.76859
14.7296	9.02688
14.6879	9.69648
14.6464	10.2212
14.6052	10.7518
14.5641	11.0763
14.5233	11.3629
14.4828	11.465
14.4424	11.5563
14.4023	11.4513
14.3624	11.1304
14.3227	11.094
14.2833	11.1143
14.244	11.2072
14.205	11.4428
14.1662	11.5742
14.1276	11.828
14.0892	12.3878
14.051	12.8693
14.0131	13.4607
13.9753	14.0193
13.9377	14.4983
13.9004	15.0003
13.8632	15.5825
13.8262	16.143
13.7895	16.4087
13.7529	16.7296
13.7165	16.9709
13.6803	17.0369
13.6443	17.2136
13.6085	17.4738
13.5729	17.7559
13.5374	18.1067
13.5022	18.3704
13.4671	18.6539
13.4322	18.879
13.3975	19.1463
13.363	19.4842
13.3286	19.6364
13.2944	19.8324
13.2604	20.1602
13.2266	20.161
13.193	19.965
13.1595	20.0172
13.1262	19.8883
13.093	19.4897
13.06	19.0155
13.0272	18.4542
12.9946	17.7825
12.9621	17.0159
12.9298	16.4979
12.8976	16.0161
12.8656	15.7054
12.8337	15.4581
12.8021	15.1907
12.7705	15.0045
12.7391	14.8267
12.7079	14.7537
12.6769	14.6786
12.6459	14.6645
12.6152	14.5183
12.5845	14.4994
12.5541	14.6563
12.5238	14.609
12.4936	14.6012
12.4635	14.7079
12.4337	14.8585
12.4039	14.8842
12.3743	14.841
12.3448	14.9504
12.3155	15.0208
12.2863	15.1094
12.2573	15.4227
12.2284	15.8611
12.1996	16.1412
12.171	16.3944
12.1425	16.6913
12.1141	17.0823
12.0859	17.5994
12.0578	18.2068
12.0298	18.8054
12.0019	19.4629
11.9742	20.1304
11.9466	20.9474
11.9192	22.0506
11.8918	23.1388
11.8646	23.9924
11.8375	24.7112
11.8106	25.5049
11.7837	26.2136
11.757	26.7934
11.7304	27.2979
11.7039	27.7209
11.6776	27.9231
11.6513	27.9914
11.6252	27.9528
11.5992	27.7155
11.5733	27.4199
11.5475	27.0156
11.5219	26.3013
11.4963	25.4815
11.4709	24.6934
11.4455	23.8059
11.4203	23.0931
11.3952	22.605
11.3702	22.1495
11.3454	21.4992
11.3206	20.6492
11.2959	19.8098
11.2714	19.3533
11.2469	19.0662
11.2226	18.6355
11.1983	18.2237
11.1742	17.9142
11.1502	17.5881
11.1263	17.2549
11.1024	16.8584
11.0787	16.4378
11.0551	16.1161
11.0316	15.805
11.0081	15.5494
10.9848	15.3647
10.9616	15.1168
10.9385	14.888
10.9154	14.6505
10.8925	14.3549
10.8697	14.1169
10.8469	14.1346
10.8243	14.2454
10.8017	14.3738
10.7793	14.5205
10.7569	14.6162
10.7346	14.6361
10.7125	14.6798
10.6904	14.7139
10.6684	14.6105
10.6465	14.4045
10.6247	14.1697
10.6029	13.8441
10.5813	13.5685
10.5597	13.3451
10.5383	13.0546
10.5169	12.6489
10.4956	12.3039
10.4744	11.9899
10.4533	11.5021
10.4323	11.0244
10.4113	10.5027
10.3904	9.55129
10.3697	8.40649
10.349	8.06277
10.3284	8.2388
10.3078	7.99483
10.2874	7.45612
10.267	6.97363
10.2467	6.61385
10.2265	6.11248
10.2064	5.79059
10.1863	5.88141
10.1663	5.52653
10.1464	4.66959
10.1266	4.60237
10.1069	5.36158
10.0872	6.27219
10.0676	6.87497
10.0481	7.06934
10.0287	7.19075
10.0093	7.27619
9.99005	7.32138
9.97084	7.30766
9.95169	7.20571
9.93263	7.16704
9.91364	7.1047
9.89472	7.05515
9.87587	7.05644
9.8571	7.1435
9.83839	7.09466
9.81976	7.03296
9.80119	7.07726
9.78271	7.06049
9.76428	7.00018
9.74592	7.1241
9.72764	7.30481
9.70943	7.35614
9.69128	7.4484
9.6732	7.61211
9.65518	7.81374
9.63724	7.98627
9.61935	8.07276
9.60155	8.26588
9.5838	8.57045
9.56611	8.79856
9.5485	8.95225
9.53094	9.28265
9.51345	9.58439
9.49604	9.96729
9.47867	10.4997
9.46137	11.1174
9.44414	11.7265
9.42697	12.3646
9.40986	13.0466
9.39281	13.7746
9.37583	14.6074
9.35891	15.3786
9.34204	16.0978
9.32524	16.7334
9.3085	17.3923
9.29182	18.1568
9.27519	18.7356
9.25863	19.2544
9.24213	19.9374
9.22568	20.8027
9.2093	21.6197
9.19297	22.5082
9.17669	23.5092
9.16048	24.4174
9.14433	25.3822
9.12823	26.2275
9.11218	26.9558
9.0962	27.7381
9.08027	28.3931
9.06439	28.9908
9.04858	29.5948
9.03281	30.1367
9.0171	30.5616
9.00145	31.0785
8.98585	31.4648
8.9703	31.7817
8.9548	32.1457
8.93937	32.4384
8.92398	32.7272
8.90865	32.9183
8.89337	33.0896
8.87814	33.2224
8.86296	33.1595
8.84784	32.9275
8.83277	32.7814
8.81774	32.5142
8.80277	31.946
8.78786	31.1975
8.77298	30.285
8.75816	29.1375
8.7434	27.5213
8.72868	25.6413
8.714	23.6509
8.69938	21.904
8.68481	20.5636
8.67029	19.4885
8.65581	18.695
8.64139	18.0764
8.62701	17.5046
8.61268	16.955
8.5984	16.394
8.58416	15.8022
8.56997	15.2346
8.55583	14.711
8.54174	14.1396
8.52769	13.4693
8.51368	12.6639
8.49973	11.7683
8.48582	10.8951
8.47195	10.2444
8.45813	9.64901
8.44436	9.16682
8.43062	8.82685
8.41693	8.66942
8.4033	8.70122
8.3897	8.63479
8.37614	8.46482
8.36264	8.44206
8.34917	8.52437
8.33574	8.62637
8.32236	8.72098
8.30903	8.8282
8.29573	8.9701
8.28248	9.02822
8.26927	9.10866
8.2561	9.29038
8.24298	9.34914
8.2299	9.52159
8.21685	9.85729
8.20385	10.108
8.19089	10.1692
8.17797	10.2232
8.16509	10.2737
8.15225	10.2394
8.13946	10.0638
8.1267	9.68966
8.11398	9.02409
8.10131	8.18235
8.08867	7.08894
8.07606	5.82417
8.0635	4.80098
8.05099	3.98967
8.0385	3.22577
8.02606	2.54704
8.01366	1.97003
8.00129	1.68604
7.98896	1.53599
7.97667	1.29661
7.96442	0.989059
7.9522	0.819472
7.94002	0.80345
7.92788	0.681129
7.91578	0.591489
7.90371	0.659
7.89168	0.725337
7.87969	0.645207
7.86773	0.507601
7.85581	0.535896
7.84392	0.629084
7.83207	0.718565
7.82026	0.69072
7.80849	0.676806
7.79674	0.754759
7.78503	0.902012
7.77337	1.0552
7.76173	1.1757
7.75012	1.21046
7.73856	1.32691
7.72703	1.47874
7.71553	1.63927
7.70406	1.87082
7.69263	2.16729
7.68123	2.37669
7.66987	2.55509
7.65855	2.74317
7.64725	2.97801
7.63598	3.26488
7.62475	3.56424
7.61356	3.81777
7.60239	4.08744
7.59126	4.41766
7.58017	4.73848
7.5691	4.98092
7.55806	5.37897
7.54707	5.71661
7.5361	5.99281
7.52516	6.3125
7.51425	6.67447
7.50338	6.95999
7.49253	7.12611
7.48172	7.26519
7.47094	7.44473
7.46019	7.65808
7.44947	7.81313
7.43879	8.0175
7.42813	8.40346
7.4175	8.88028
7.4069	9.37221
7.39634	9.85988
7.3858	10.3566
7.37529	10.9244
7.36482	11.4752
7.35437	12.1252
7.34396	12.8227
7.33357	13.5241
7.32321	14.2749
7.31288	15.1207
7.30258	16.0577
7.29231	17.002
7.28207	18.01
7.27185	19.1191
7.26167	20.2843
7.25152	21.4682
7.24139	22.7112
7.23129	23.9152
7.22122	25.0984
7.21117	26.3542
7.20116	27.3308
7.19117	27.9788
7.18121	28.6401
7.17128	29.2812
7.16137	29.2857
7.1515	28.5657
7.14164	28.2429
7.13182	29.69
7.12203	32.0028
7.11225	33.7888
7.10251	35.2115
7.0928	36.4101
7.08311	37.3188
7.07344	38.2082
7.06381	38.9826
7.0542	39.8113
7.04461	40.5431
7.03506	40.5952
7.02552	40.702
7.01601	40.7486
7.00653	40.4512
6.99708	39.9219
6.98765	38.9441
6.97824	37.2145
6.96886	35.1581
6.95951	34.4532
6.95018	35.9937
6.94087	38.2783
6.9316	39.9681
6.92234	41.0102
6.91311	41.6936
6.90391	42.2368
6.89473	42.5979
6.88557	42.9178
6.87644	43.462
6.86733	44.6545
6.85824	45.111
6.84918	44.9433
6.84015	45.3327
6.83114	46.2426
6.82215	46.8924
6.81319	47.168
6.80424	47.7448
6.79532	48.6111
6.78643	49.0383
6.77756	48.9468
6.76871	48.9757
6.75989	49.0466
6.75109	49.2318
6.74231	49.2789
6.73355	49.3534
6.72482	49.5705
6.71611	49.6822
6.70742	49.4029
6.69875	48.7766
6.69011	48.5187
6.68149	48.3255
6.67289	47.3755
6.66431	46.0288
6.65576	44.6708
6.64722	43.8919
6.63871	43.1298
6.63022	40.8062
6.62175	38.019
6.61331	35.6614
6.60488	33.4508
6.59648	31.4386
6.5881	29.217
6.57974	27.2567
6.5714	25.4602
6.56308	23.416
6.55478	21.8478
6.54651	20.5461
6.53825	19.282
6.53001	18.2172
6.5218	17.4905
6.51361	16.8126
6.50544	16.6004
6.49729	17.0229
6.48915	17.245
6.48104	17.0854
6.47295	16.9471
6.46488	16.8116
6.45683	16.7337
6.4488	16.6687
6.44079	16.8553
6.4328	17.398
6.42482	18.1662
6.41687	19.4324
6.40894	20.1554
6.40103	20.3917
6.39314	21.0097
6.38526	21.8268
6.37741	22.7039
6.36957	23.6288
6.36176	24.3586
6.35396	25.1874
6.34618	26.0489
6.33843	26.0829
6.33069	25.5643
6.32297	24.9838
6.31527	23.949
6.30758	22.2384
6.29992	20.0494
6.29227	17.916
6.28465	16.4958
6.27704	16.3349
6.26945	16.9126
6.26188	17.4855
6.25432	17.7299
6.24679	17.6059
6.23927	17.3455
6.23177	17.526
6.22429	18.2918
6.21683	19.5304
6.20938	20.7837
6.20195	21.8495
6.19454	22.7608
6.18715	23.7813
6.17978	24.263
6.17242	24.5904
6.16508	25.3981
6.15776	26.4164
6.15045	27.3357
6.14317	28.6123
6.1359	30.038
6.12864	31.5029
6.12141	33.4616
6.11419	35.886
6.10699	37.585
6.0998	39.0557
6.09263	40.7622
6.08549	42.4537
6.07835	44.2496
6.07123	45.4549
6.06413	45.7193
6.05705	46.8305
6.04998	48.5992
6.04293	48.1539
6.0359	47.4553
6.02888	47.7164
6.02187	48.3238
6.01489	49.091
6.00792	49.4664
6.00096	49.8707
5.99403	50.7757
5.98711	51.388
5.9802	51.5606
5.97331	52.1399
5.96644	52.5424
5.95958	52.3553
5.95274	52.5299
5.94591	52.9298
5.9391	53.9345
5.9323	53.7472
5.92552	52.9381
5.91876	52.8325
5.91201	52.6541
5.90528	52.6724
5.89856	53.4447
5.89186	53.3175
5.88517	53.4009
5.8785	53.2463
5.87184	52.0493
5.8652	51.7612
5.85857	51.3277
5.85196	50.8196
5.84536	50.4842
5.83878	50.5408
5.83221	50.9965
5.82566	51.7912
5.81912	52.0731
5.81259	51.7243
5.80608	51.7877
5.79959	52.1332
5.79311	52.4875
5.78665	53.015
5.78019	53.5076
5.77376	54.2544
5.76734	55.3514
5.76093	54.9932
5.75453	54.5233
5.74815	54.8357
5.74179	54.7361
5.73543	54.6834
5.7291	54.7355
5.72277	54.974
5.71646	55.2237
5.71017	55.341
5.70389	54.9078
5.69762	54.7758
5.69136	54.9755
5.68513	54.9076
5.6789	55.0732
5.67268	55.1689
5.66648	55.0407
5.6603	55.3247
5.65413	55.7027
5.64797	56.0539
5.64182	56.5441
5.63569	56.3421
5.62957	56.2075
5.62347	56.322
5.61737	56.5427
5.61129	56.6322
5.60522	56.6876
5.59917	56.7811
5.59313	56.7815
5.5871	56.8995
5.58109	57.1755
5.57509	57.0189
5.5691	56.6349
5.56312	56.6578
5.55716	56.8199
5.55121	56.922
5.54528	56.9073
5.53935	56.9634
5.53344	57.0198
5.52754	57.1356
5.52166	57.2718
5.51578	57.3317
5.50992	57.4272
5.50407	57.6298
5.49823	57.7727
5.49241	57.949
5.4866	58.1994
5.4808	58.549
5.47501	58.7149
5.46923	58.9668
5.46347	59.2884
5.45772	59.3123
5.45198	59.4592
5.44625	59.7513
5.44054	59.9818
5.43484	60.2701
5.42914	60.7548
5.42347	61.4333
5.4178	61.689
5.41214	61.8978
5.4065	62.3482
5.40087	62.8477
5.39525	63.4059
5.38964	63.9246
5.38404	64.474
5.37846	65.0116
5.37288	65.5252
5.36732	66.0104
5.36177	66.4238
5.35623	66.9541
5.35071	67.535
5.34519	67.6896
5.33968	67.7748
5.33419	68.052
5.32871	68.3349
5.32324	68.629
5.31778	68.8743
5.31233	69.015
5.30689	69.0826
5.30147	69.1349
5.29605	69.2149
5.29065	69.2898
5.28525	69.2472
5.27987	69.2014
5.2745	69.1305
5.26914	69.0647
5.26379	68.9689
5.25845	68.8902
5.25312	68.8969
5.24781	68.9579
5.2425	68.9964
5.23721	68.9906
5.23192	68.907
5.22665	68.8086
5.22138	68.7384
5.21613	68.7036
5.21089	68.3919
5.20566	67.9122
5.20044	67.3019
5.19522	66.3913
5.19002	65.781
5.18483	65.7202
5.17965	65.9223
5.17448	66.0058
5.16933	65.6596
5.16418	65.1005
5.15904	64.4571
5.15391	63.7926
5.14879	63.0933
5.14368	62.0478
5.13859	60.7869
5.1335	59.3611
5.12842	57.6861
5.12335	55.6735
5.1183	53.0996
5.11325	49.793
5.10821	45.5746
5.10318	40.1728
5.09817	33.8253
5.09316	27.3269
5.08816	22.5413
5.08317	22.2754
5.07819	27.0196
5.07322	34.3138
5.06826	41.6224
5.06331	47.3482
5.05837	51.034
5.05344	53.0667
5.04852	53.989
5.04361	54.2894
5.03871	54.2302
5.03382	53.9965
5.02894	53.6122
5.02406	53.0893
5.0192	52.5175
5.01435	51.8878
5.0095	51.2011
5.00467	50.4186
4.99984	49.6474
4.99502	48.7846
4.99021	47.7985
4.98542	46.7749
4.98063	45.697
4.97585	44.4616
4.97108	43.1053
4.96632	41.6248
4.96156	40.0575
4.95682	38.3385
4.95209	36.4941
4.94736	34.5819
4.94264	32.6715
4.93794	30.6794
4.93324	28.4898
4.92855	26.2171
4.92387	23.8164
4.9192	21.3657
4.91453	18.9299
4.90988	16.5841
4.90524	14.4035
4.9006	12.3952
4.89597	10.7228
4.89135	9.48655
4.88674	8.56407
4.88214	8.01753
4.87755	7.83504
4.87296	7.79523
4.86839	7.71984
4.86382	7.49941
4.85926	7.18127
4.85471	6.83244
4.85017	6.524
4.84564	6.18527
4.84111	5.9748
4.8366	6.01665
4.83209	6.21482
4.82759	6.52131
4.8231	6.97085
4.81862	7.461
4.81415	7.96224
4.80968	8.30241
4.80522	8.47198
4.80077	8.48496
4.79633	8.37621
4.7919	8.25756
4.78747	8.22316
4.78306	8.31298
4.77865	8.45745
4.77425	8.58898
4.76986	8.7947
4.76547	9.02271
4.7611	9.33317
4.75673	9.76428
4.75237	10.0666
4.74802	10.2318
4.74367	10.2929
4.73934	10.1384
4.73501	9.82643
4.73069	9.46976
4.72638	9.19174
4.72207	8.97565
4.71777	8.75787
4.71348	8.59051
4.7092	8.41971
4.70493	8.17978
4.70066	7.99496
4.69641	7.91865
4.69216	7.8228
4.68791	7.74175
4.68368	7.62212
4.67945	7.46771
4.67523	7.41519
4.67102	7.46964
4.66682	7.70707
4.66262	8.09404
4.65843	8.62762
4.65425	9.19551
4.65007	9.79892
4.64591	10.4018
4.64175	10.8341
4.6376	11.0383
4.63345	11.1113
4.62932	11.0302
4.62519	10.994
4.62106	11.0412
4.61695	11.0045
4.61284	11.041
4.60874	11.1789
4.60465	11.2606
4.60056	11.2888
4.59648	11.228
4.59241	11.1672
4.58835	11.0452
4.58429	10.9033
4.58024	10.7001
4.5762	10.4561
4.57216	10.1972
4.56814	10.0238
4.56411	9.92477
4.5601	9.95905
4.55609	10.0463
4.55209	10.1202
4.5481	10.2474
4.54411	10.4607
4.54013	10.7952
4.53616	11.158
4.5322	11.4629
4.52824	11.9285
4.52429	12.3968
4.52034	12.8121
4.51641	13.2245
4.51247	13.6078
4.50855	14.0293
4.50463	14.4691
4.50072	14.8991
4.49682	15.2407
4.49292	15.4887
4.48903	15.6975
4.48515	15.9641
4.48127	16.2589
4.4774	16.3869
4.47354	16.4365
4.46968	16.448
4.46584	16.4208
4.46199	16.4543
4.45815	16.5675
4.45432	16.6269
4.4505	16.6754
4.44668	16.8189
4.44287	17.0782
4.43907	17.323
4.43527	17.4556
4.43148	17.6102
4.4277	17.8424
4.42392	18.1042
4.42015	18.3618
4.41638	18.5716
4.41262	18.7438
4.40887	19.0511
4.40513	19.3891
4.40139	19.6707
4.39765	19.999
4.39393	20.282
4.39021	20.5363
4.38649	20.71
4.38278	20.836
4.37908	21.0318
4.37539	21.1702
4.3717	21.3744
4.36801	21.7526
4.36434	22.0566
4.36067	22.2479
4.357	22.4742
4.35335	22.7748
4.34969	23.0026
4.34605	23.1523
4.34241	23.3033
4.33877	23.5138
4.33514	23.6428
4.33152	23.5347
4.32791	23.4217
4.3243	23.1878
4.32069	22.7682
4.3171	22.3379
4.31351	21.9042
4.30992	21.3822
4.30634	20.792
4.30277	20.2689
4.2992	19.7617
4.29564	19.3394
4.29208	19.0645
4.28853	18.8289
4.28499	18.6561
4.28145	18.6039
4.27792	18.6704
4.27439	18.6532
4.27087	18.7327
4.26735	18.8982
4.26384	19.1233
4.26034	19.4611
4.25684	19.8187
4.25335	20.1399
4.24986	20.4284
4.24638	20.7095
4.24291	21.0217
4.23944	21.4165
4.23598	21.9654
4.23252	22.5203
4.22906	23.1145
4.22562	23.8997
4.22218	24.7615
4.21874	25.6806
4.21531	26.612
4.21189	27.6033
4.20847	28.5709
4.20506	29.4862
4.20165	30.5042
4.19825	31.571
4.19485	32.7389
4.19146	34
4.18807	35.3171
4.18469	36.7062
4.18132	38.226
4.17795	39.7686
4.17458	41.2091
4.17123	42.7111
4.16787	44.194
4.16453	45.513
4.16118	46.7651
4.15785	48.0111
4.15451	49.2006
4.15119	50.2551
4.14787	51.2473
4.14455	52.2362
4.14124	53.2307
4.13794	54.1383
4.13464	55.0166
4.13134	55.8903
4.12805	56.6318
4.12477	57.3795
4.12149	58.1785
4.11822	58.9604
4.11495	59.7067
4.11168	60.4149
4.10843	61.1046
4.10517	61.7727
4.10192	62.4255
4.09868	63.0606
4.09545	63.6366
4.09221	64.1928
4.08899	64.7692
4.08576	65.4707
4.08255	66.1495
4.07933	66.683
4.07613	67.2115
4.07292	67.8064
4.06973	68.4214
4.06654	68.9225
4.06335	69.3439
4.06017	69.7916
4.05699	70.2484
4.05382	70.6286
4.05065	71.0743
4.04749	71.5327
4.04433	71.9378
4.04118	72.3621
4.03803	72.6956
4.03489	72.9196
4.03175	73.1751
4.02862	73.4206
4.02549	73.6934
4.02237	73.9926
4.01925	74.2967
4.01614	74.6112
4.01303	74.8396
4.00993	74.906
4.00683	75.0721
4.00373	75.1447
4.00064	75.1338
3.99756	75.1452
3.99448	75.1504
3.9914	75.1501
3.98833	75.1899
3.98527	75.2145
3.98221	75.2234
3.97915	75.2647
3.9761	75.4565
3.97305	75.6797
3.97001	75.8413
3.96697	76.0355
3.96394	76.2887
3.96091	76.4555
3.95789	76.7037
3.95487	77.0987
3.95186	77.3822
3.94885	77.6493
3.94584	77.9528
3.94284	78.1811
3.93984	78.4218
3.93685	78.6795
3.93386	79.0078
3.93088	79.39
3.9279	79.6786
3.92493	79.9493
3.92196	80.2047
3.919	80.3546
3.91604	80.5169
3.91308	80.5975
3.91013	80.5974
3.90718	80.5204
3.90424	80.2991
3.9013	79.9005
3.89837	79.3682
3.89544	78.7379
3.89252	78.0534
3.8896	77.4314
3.88668	77.1421
3.88377	77.1826
3.88086	77.4626
3.87796	77.7846
3.87506	77.9195
3.87217	77.9681
3.86928	78.0208
3.86639	78.1183
3.86351	78.412
3.86064	78.8441
3.85776	79.3034
3.8549	79.7051
3.85203	79.9564
3.84917	80.14
3.84631	80.4473
3.84346	80.8176
3.84062	81.151
3.83777	81.4965
3.83494	81.8189
3.8321	82.2432
3.82927	82.7441
3.82644	83.1467
3.82362	83.5208
3.82081	83.9356
3.81799	84.2675
3.81518	84.595
3.81238	84.9174
3.80958	85.1028
3.80678	85.2464
3.80399	85.3878
3.8012	85.5189
3.79841	85.5989
3.79563	85.615
3.79286	85.6211
3.79008	85.6844
3.78731	85.7003
3.78455	85.6845
3.78179	85.6559
3.77903	85.5867
3.77628	85.5281
3.77353	85.554
3.77079	85.568
3.76805	85.5384
3.76531	85.4797
3.76258	85.4092
3.75985	85.3316
3.75713	85.204
3.7544	85.1055
3.75169	85.0472
3.74898	85.0316
3.74627	85.0273
3.74356	85.0551
3.74086	85.0565
3.73816	85.1042
3.73547	85.159
3.73278	85.2095
3.7301	85.2518
3.72741	85.216
3.72474	85.2288
3.72206	85.2916
3.71939	85.3274
3.71673	85.3662
3.71406	85.4217
3.71141	85.5396
3.70875	85.568
3.7061	85.524
3.70345	85.5029
3.70081	85.526
3.69817	85.5685
3.69553	85.5924
3.6929	85.5908
3.69027	85.6265
3.68765	85.6609
3.68503	85.6868
3.68241	85.7398
3.6798	85.7862
3.67719	85.8009
3.67458	85.7502
3.67198	85.6305
3.66938	85.5631
3.66678	85.5856
3.66419	85.5202
3.66161	85.4478
3.65902	85.4726
3.65644	85.3942
3.65387	85.2857
3.65129	85.2979
3.64872	85.2008
3.64616	85.1249
3.64359	85.1029
3.64103	85.0757
3.63848	84.9923
3.63593	84.907
3.63338	84.8449
3.63084	84.7599
3.6283	84.5951
3.62576	84.4791
3.62322	84.461
3.62069	84.413
3.61817	84.3143
3.61564	84.2514
3.61312	84.2428
3.61061	84.157
3.6081	83.9895
3.60559	83.9361
3.60308	83.9619
3.60058	83.9517
3.59808	83.8494
3.59558	83.7716
3.59309	83.7405
3.59061	83.7034
3.58812	83.6704
3.58564	83.5799
3.58316	83.4747
3.58069	83.4386
3.57822	83.4379
3.57575	83.4676
3.57328	83.4473
3.57082	83.3971
3.56836	83.3967
3.56591	83.3818
3.56346	83.3435
3.56101	83.2976
3.55857	83.1368
3.55613	83.0392
3.55369	83.0053
3.55126	82.9748
3.54883	82.962
3.5464	82.9046
3.54397	82.8647
3.54155	82.8219
3.53914	82.7723
3.53672	82.738
3.53431	82.6325
3.5319	82.4366
3.5295	82.2908
3.5271	82.2919
3.5247	82.26
3.52231	82.111
3.51991	81.9394
3.51753	81.7871
3.51514	81.6645
3.51276	81.428
3.51038	81.2547
3.50801	81.0847
3.50563	80.8255
3.50327	80.6587
3.5009	80.5195
3.49854	80.4227
3.49618	80.3663
3.49382	80.3986
3.49147	80.4352
3.48912	80.393
3.48677	80.3907
3.48443	80.3952
3.48209	80.3665
3.47975	80.3391
3.47742	80.2262
3.47509	80.0905
3.47276	80.0244
3.47044	80.1229
3.46812	80.2821
3.4658	80.3085
3.46348	80.2334
3.46117	80.2184
3.45886	80.2407
3.45656	80.1828
3.45425	80.1058
3.45195	80.0255
3.44966	79.8975
3.44736	79.8083
3.44507	79.7253
3.44279	79.5388
3.4405	79.3712
3.43822	79.2763
3.43594	79.1675
3.43367	79.0552
3.43139	78.8356
3.42912	78.5806
3.42686	78.3365
3.42459	78.0904
3.42233	77.8541
3.42007	77.626
3.41782	77.5231
3.41557	77.4621
3.41332	77.3129
3.41108	77.1377
3.40883	76.9273
3.40659	76.7481
3.40435	76.5513
3.40212	76.2289
3.39989	75.9065
3.39766	75.7247
3.39544	75.7735
3.39322	76.0135
3.391	76.3663
3.38878	76.7072
3.38657	76.8246
3.38436	76.8166
3.38215	76.8719
3.37994	76.9354
3.37774	76.8616
3.37554	76.727
3.37335	76.6493
3.37115	76.5321
3.36896	76.5452
3.36678	76.4929
3.36459	76.3963
3.36241	76.3877
3.36023	76.3068
3.35805	76.1782
3.35588	76.0971
3.35371	76.0804
3.35154	75.9589
3.34938	75.8148
3.34721	75.6885
3.34505	75.516
3.3429	75.348
3.34074	75.1898
3.33859	74.9501
3.33644	74.6658
3.3343	74.3621
3.33215	73.9914
3.33001	73.5296
3.32788	73.0529
3.32574	72.5419
3.32361	71.9725
3.32148	71.3081
3.31936	70.5867
3.31723	69.7883
3.31511	68.8924
3.31299	67.9386
3.31088	66.9936
3.30876	66.3072
3.30665	65.8532
3.30455	65.6895
3.30244	65.8541
3.30034	66.0679
3.29824	66.2642
3.29614	66.4484
3.29405	66.5763
3.29196	66.5191
3.28987	66.4471
3.28778	66.4128
3.2857	66.3574
3.28362	66.265
3.28154	66.2723
3.27946	66.42
3.27739	66.6183
3.27532	66.7892
3.27325	66.9395
3.27119	67.0907
3.26913	67.1693
3.26707	67.0584
3.26501	67.019
3.26295	66.9368
3.2609	66.7259
3.25885	66.687
3.2568	66.7875
3.25476	66.7942
3.25272	66.8473
3.25068	67.0098
3.24864	67.0721
3.24661	67.0401
3.24458	66.9286
3.24255	66.8446
3.24052	66.7398
3.2385	66.5249
3.23648	66.3684
3.23446	66.2002
3.23244	65.9791
3.23043	65.7375
3.22841	65.4917
3.2264	65.1061
3.2244	64.6844
3.22239	64.392
3.22039	64.0888
3.21839	63.7772
3.2164	63.4943
3.2144	63.2664
3.21241	63.1401
3.21042	63.0093
3.20844	62.8451
3.20645	62.7803
3.20447	62.5394
3.20249	62.2228
3.20051	62.0928
3.19854	62.0335
3.19657	61.9499
3.1946	61.9102
3.19263	61.8785
3.19067	61.8253
3.1887	61.6626
3.18674	61.5168
3.18479	61.401
3.18283	61.3302
3.18088	61.166
3.17893	60.9682
3.17698	60.8264
3.17504	60.7079
3.17309	60.587
3.17115	60.4648
3.16921	60.3124
3.16728	60.2032
3.16534	60.1529
3.16341	60.0621
3.16148	59.9423
3.15956	59.83
3.15763	59.7072
3.15571	59.5824
3.15379	59.4555
3.15187	59.3809
3.14996	59.3491
3.14805	59.3499
3.14614	59.241
3.14423	59.1083
3.14232	59.0556
3.14042	58.9534
3.13852	58.9289
3.13662	58.796
3.13472	58.5439
3.13283	58.4689
3.13094	58.4545
3.12905	58.3143
3.12716	58.2151
3.12528	58.018
3.12339	57.793
3.12151	57.6823
3.11964	57.6663
3.11776	57.5787
3.11589	57.4458
3.11401	57.3598
3.11214	57.3042
3.11028	57.1529
3.10841	56.9295
3.10655	56.8096
3.10469	56.7427
3.10283	56.6759
3.10098	56.5666
3.09912	56.4653
3.09727	56.4475
3.09542	56.3933
3.09358	56.3601
3.09173	56.3414
3.08989	56.3319
3.08805	56.351
3.08621	56.279
3.08437	56.217
3.08254	56.1595
3.08071	56.1523
3.07888	56.0798
3.07705	55.9194
3.07523	55.9222
3.0734	55.9325
3.07158	55.8185
3.06977	55.6589
3.06795	55.5719
3.06613	55.6365
3.06432	55.5899
3.06251	55.444
3.0607	55.3308
3.0589	55.3756
3.0571	55.4667
3.05529	55.4839
3.05349	55.4126
3.0517	55.2606
3.0499	55.1157
3.04811	55.0908
3.04632	55.0506
3.04453	55.0964
3.04274	55.1688
3.04096	55.0381
3.03918	55.0037
3.0374	55.0268
3.03562	55.0402
3.03384	55.0187
3.03207	54.9097
3.03029	54.8989
3.02852	54.89
3.02676	54.9308
3.02499	54.9189
3.02323	54.8597
3.02146	54.869
3.0197	54.7831
3.01795	54.728
3.01619	54.739
3.01444	54.644
3.01269	54.6104
3.01094	54.6917
3.00919	54.7127
3.00744	54.6111
3.0057	54.517
3.00396	54.5573
3.00222	54.4912
3.00048	54.4371
2.99875	54.4132
2.99701	54.4319
2.99528	54.4312
2.99355	54.422
2.99183	54.384
2.9901	54.3204
2.98838	54.2964
2.98666	54.3105
2.98494	54.2374
2.98322	54.1217
2.9815	54.0938
2.97979	54.1417
2.97808	54.1287
2.97637	54.1596
2.97466	54.1211
2.97295	54.0104
2.97125	54.042
2.96955	54.1045
2.96785	54.067
2.96615	54.0144
2.96446	54.0109
2.96276	54.0312
2.96107	54.0063
2.95938	53.9497
2.95769	53.8705
2.95601	53.8936
2.95432	53.9348
2.95264	53.8683
2.95096	53.7803
2.94928	53.7787
2.9476	53.7858
2.94593	53.8461
2.94425	53.9232
2.94258	53.8427
2.94092	53.7348
2.93925	53.7156
2.93758	53.9271
2.93592	54.0779
2.93426	54.0435
2.9326	53.9782
2.93094	53.9476
2.92928	53.9761
2.92763	54.0365
2.92598	54.1388
2.92433	54.2325
2.92268	54.2731
2.92103	54.2284
2.91939	54.252
2.91775	54.4348
2.9161	54.5724
2.91447	54.5758
2.91283	54.5894
2.91119	54.569
2.90956	54.7055
2.90793	54.6953
2.9063	54.7122
2.90467	54.8768
2.90304	54.9158
2.90142	54.927
2.89979	55.012
2.89817	55.0747
2.89656	55.2019
2.89494	55.3542
2.89332	55.4146
2.89171	55.4372
2.8901	55.4976
2.88849	55.6501
2.88688	55.7225
2.88527	55.7277
2.88367	55.7459
2.88206	55.8797
2.88046	56.0181
2.87886	56.1274
2.87727	56.1036
2.87567	56.2086
2.87408	56.42
2.87248	56.5483
2.87089	56.5711
2.8693	56.6469
2.86772	56.7835
2.86613	56.9255
2.86455	57.0249
2.86297	57.1873
2.86139	57.3482
2.85981	57.4477
2.85823	57.4764
2.85666	57.6849
2.85508	57.9313
2.85351	57.9618
2.85194	58.0391
2.85038	58.2776
2.84881	58.4354
2.84724	58.5933
2.84568	58.7601
2.84412	58.873
2.84256	58.8742
2.841	58.9072
2.83945	59.155
2.83789	59.4151
2.83634	59.5089
2.83479	59.6638
2.83324	59.8486
2.83169	60.04
2.83015	60.1962
2.82861	60.3733
2.82706	60.494
2.82552	60.6467
2.82398	60.8673
2.82245	61.1156
2.82091	61.4083
2.81938	61.5304
2.81784	61.6921
2.81631	61.9547
2.81479	62.1943
2.81326	62.31
2.81173	62.3583
2.81021	62.5285
2.80869	62.8621
2.80716	62.991
2.80565	63.1961
2.80413	63.6494
2.80261	63.9898
2.8011	63.8833
2.79959	63.8527
2.79808	64.1176
2.79657	64.408
2.79506	64.6797
2.79355	64.8785
2.79205	64.9403
2.79055	65.1488
2.78904	65.6322
2.78754	66.1045
2.78605	66.0752
2.78455	65.8712
2.78306	65.9824
2.78156	66.19
2.78007	66.4152
2.77858	66.6015
2.77709	66.7841
2.77561	66.9623
2.77412	67.1148
2.77264	67.4476
2.77116	67.9817
2.76968	68.3621
2.7682	68.6726
2.76672	68.9224
2.76524	69.265
2.76377	69.754
2.7623	69.8733
2.76083	69.9101
2.75936	70.1654
2.75789	70.6642
2.75642	71.7583
2.75496	72.2432
2.7535	71.7788
2.75203	71.7246
2.75057	71.9992
2.74912	72.43
2.74766	72.8123
2.7462	73.2824
2.74475	73.6492
2.7433	74.2141
2.74185	75.2245
2.7404	76.0995
2.73895	76.1205
2.7375	75.6833
2.73606	76.1639
2.73462	76.8057
2.73318	76.8207
2.73174	77.0638
2.7303	77.5032
2.72886	77.9779
2.72742	78.6216
2.72599	79.5704
2.72456	80.4736
2.72313	80.5264
2.7217	81.27
2.72027	82.186
2.71884	81.6155
2.71742	81.5451
2.71599	81.6657
2.71457	81.8627
2.71315	82.2538
2.71173	83.3501
2.71032	83.6782
2.7089	83.1828
2.70748	82.7582
2.70607	82.5139
2.70466	82.438
2.70325	82.3224
2.70184	82.3903
2.70043	82.2506
2.69903	81.9621
2.69762	82.1164
2.69622	82.7156
2.69482	83.5537
2.69342	84.1717
2.69202	84.0733
2.69062	84.2779
2.68923	84.7486
2.68783	85.2423
2.68644	85.7202
2.68505	86.1394
2.68366	86.5563
2.68227	86.7305
2.68089	87.1134
2.6795	88.0453
2.67812	88.4477
2.67673	88.8844
2.67535	88.7003
2.67397	88.416
2.6726	88.7304
2.67122	90.1598
2.66984	90.4214
2.66847	89.6573
2.6671	90.4806
2.66572	90.8374
2.66435	90.3136
2.66299	89.531
2.66162	89.5864
2.66025	89.7326
2.65889	89.6768
2.65753	89.4368
2.65616	89.75
2.65481	89.8519
2.65345	90.0056
2.65209	90.0634
2.65073	89.7059
2.64938	89.6337
2.64803	89.8435
2.64667	90.0678
2.64532	90.1565
2.64397	89.9533
2.64263	90.0724
2.64128	90.0779
2.63994	90.0146
2.63859	89.9575
2.63725	90.086
2.63591	90.2041
2.63457	90.4534
2.63323	90.4441
2.6319	90.7345
2.63056	91.55
2.62923	91.0172
2.62789	90.7429
2.62656	91.1444
2.62523	90.5228
2.6239	90.1897
2.62258	90.413
2.62125	91.2685
2.61993	91.4464
2.6186	91.062
2.61728	91.6873
2.61596	91.4847
2.61464	90.7893
2.61332	90.7582
2.61201	90.631
2.61069	90.7445
2.60938	90.9802
2.60807	91.0698
2.60675	91.4439
2.60544	91.8422
2.60414	91.3233
2.60283	90.9969
2.60152	90.9223
2.60022	90.737
2.59891	90.709
2.59761	91.0949
2.59631	92.1367
2.59501	93.3083
2.59371	92.2919
2.59242	90.996
2.59112	90.7533
2.58983	90.9098
2.58853	91.1971
2.58724	91.3866
2.58595	91.1183
2.58466	91.5506
2.58338	91.7253
2.58209	91.1945
2.5808	91.0339
2.57952	90.7502
2.57824	90.8957
2.57695	91.1999
2.57567	91.0382
2.5744	91.284
2.57312	91.4257
2.57184	90.8949
2.57057	91.0917
2.56929	91.2181
2.56802	90.8983
2.56675	90.7804
2.56548	90.9383
2.56421	91.2445
2.56294	91.4917
2.56168	91.612
2.56041	91.2369
2.55915	90.837
2.55789	90.7285
2.55662	90.6427
2.55536	90.5917
2.5541	90.717
2.55285	90.9112
2.55159	90.8991
2.55034	90.7694
2.54908	90.7547
2.54783	90.7716
2.54658	90.6637
2.54533	90.5797
2.54408	90.6876
2.54283	90.8374
2.54159	90.7532
2.54034	90.6528
2.5391	90.6534
2.53785	90.7301
2.53661	90.8413
2.53537	90.76
2.53413	90.7251
2.53289	90.6742
2.53166	90.6228
2.53042	90.6357
2.52919	90.7905
2.52795	90.8014
2.52672	90.6716
2.52549	90.6367
2.52426	90.7137
2.52303	90.8083
2.52181	90.7982
2.52058	90.6883
2.51936	90.6367
2.51813	90.6958
2.51691	90.7399
2.51569	90.7762
2.51447	90.7168
2.51325	90.6714
2.51203	90.6709
2.51082	90.6676
2.5096	90.6849
2.50839	90.6988
2.50717	90.6476
2.50596	90.5758
2.50475	90.5657
2.50354	90.634
2.50233	90.6363
2.50113	90.585
2.49992	90.5655
2.49872	90.6223
2.49751	90.6528
2.49631	90.76
2.49511	90.7827
2.49391	90.6429
2.49271	90.5513
2.49151	90.6245
2.49031	90.6476
2.48912	90.6461
2.48792	90.7393
2.48673	90.7622
2.48554	90.7233
2.48435	90.851
2.48316	90.9148
2.48197	90.9483
2.48078	90.8577
2.4796	90.8267
2.47841	90.8584
2.47723	90.8563
2.47604	90.8287
2.47486	90.8738
2.47368	90.831
2.4725	90.8062
2.47132	90.8816
2.47014	90.9333
2.46897	90.9924
2.46779	90.9353
2.46662	91.0032
2.46545	90.9888
2.46427	90.9137
2.4631	90.8793
2.46193	90.9064
2.46077	90.9193
2.4596	90.9722
2.45843	91.0066
2.45727	90.9947
2.4561	90.9876
2.45494	91.029
2.45378	91.1322
2.45262	91.0918
2.45146	91.018
2.4503	91.0016
2.44914	91.05
2.44799	91.0863
2.44683	91.043
2.44568	90.9981
2.44452	91.0554
2.44337	91.0673
2.44222	90.9816
2.44107	91.1347
2.43992	91.2943
2.43877	91.1522
2.43763	91.083
2.43648	91.1068
2.43534	91.1364
2.43419	91.1307
2.43305	91.2225
2.43191	91.2991
2.43077	91.3003
2.42963	91.1427
2.42849	91.0998
2.42736	91.2423
2.42622	91.3453
2.42509	91.3645
2.42395	91.2736
2.42282	91.2408
2.42169	91.2561
2.42056	91.2491
2.41943	91.1783
2.4183	91.2312
2.41717	91.3388
2.41605	91.2786
2.41492	91.2028
2.4138	91.3167
2.41267	91.3825
2.41155	91.3436
2.41043	91.4053
2.40931	91.4935
2.40819	91.3618
2.40707	91.3167
2.40595	91.3201
2.40484	91.3504
2.40372	91.3616
2.40261	91.4521
2.4015	91.5581
2.40039	91.4936
2.39928	91.435
2.39817	91.405
2.39706	91.3761
2.39595	91.3221
2.39484	91.3347
2.39374	91.3828
2.39263	91.3792
2.39153	91.4347
2.39043	91.4953
2.38932	91.4818
2.38822	91.5335
2.38712	91.6073
2.38603	91.5464
2.38493	91.4412
2.38383	91.5195
2.38274	91.5329
2.38164	91.5594
2.38055	91.6427
2.37946	91.6154
2.37836	91.5426
2.37727	91.5929
2.37618	91.6621
2.3751	91.6536
2.37401	91.6427
2.37292	91.6123
2.37184	91.4387
2.37075	91.4572
2.36967	91.7022
2.36859	91.7404
2.3675	91.6699
2.36642	91.6519
2.36534	91.7337
2.36427	91.7964
2.36319	91.7469
2.36211	91.6536
2.36104	91.7173
2.35996	91.7344
2.35889	91.6927
2.35781	91.6758
2.35674	91.6932
2.35567	91.6911
2.3546	91.7973
2.35353	91.8243
2.35247	91.7881
2.3514	91.8195
2.35033	91.8559
2.34927	91.8485
2.3482	91.8305
2.34714	91.8343
2.34608	91.8597
2.34502	91.8556
2.34396	91.7886
2.3429	91.777
2.34184	91.7677
2.34078	91.647
2.33973	91.6056
2.33867	91.6996
2.33762	91.7452
2.33656	91.7454
2.33551	91.7805
2.33446	91.8914
2.33341	91.9418
2.33236	91.9823
2.33131	91.9619
2.33026	91.8848
2.32922	91.8198
2.32817	91.8181
2.32712	91.86
2.32608	91.7943
2.32504	91.7937
2.324	91.7952
2.32295	91.8844
2.32191	91.9414
2.32087	92.0306
2.31984	92.0546
2.3188	91.9217
2.31776	91.8693
2.31673	91.9648
2.31569	91.8999
2.31466	91.8111
2.31362	91.8441
2.31259	91.9318
2.31156	91.9701
2.31053	91.9763
2.3095	91.8641
2.30847	91.8531
2.30745	91.9536
2.30642	91.8825
2.3054	91.869
2.30437	92.0295
2.30335	92.08
2.30232	91.976
2.3013	91.9646
2.30028	91.9732
2.29926	91.8573
2.29824	91.7694
2.29722	91.8868
2.29621	91.997
2.29519	91.9584
2.29417	91.864
2.29316	91.7839
2.29215	91.8016
2.29113	91.8774
2.29012	92.0939
2.28911	92.0775
2.2881	91.9314
2.28709	91.9129
2.28608	91.9528
2.28507	92.1161
2.28407	92.1969
2.28306	92.1563
2.28206	92.0346
2.28105	91.8942
2.28005	91.9271
2.27905	92.004
2.27805	92.1244
2.27705	92.2471
2.27605	92.1617
2.27505	92.0285
2.27405	91.9905
2.27305	91.9764
2.27206	91.9467
2.27106	91.9993
2.27007	91.9777
2.26907	91.9462
2.26808	91.9723
2.26709	91.9378
2.2661	91.8833
2.26511	91.9623
2.26412	92.0765
2.26313	92.121
2.26214	92.1563
2.26116	92.1303
2.26017	92.1426
2.25919	92.163
2.2582	92.1494
2.25722	92.0752
2.25624	91.9361
2.25526	92.0912
2.25428	92.2243
2.2533	92.1285
2.25232	92.0328
2.25134	92.0873
2.25036	92.1334
2.24939	92.1731
2.24841	92.1762
2.24744	92.0855
2.24646	92.0588
2.24549	92.0587
2.24452	92.0598
2.24355	92.1203
2.24257	92.1979
2.24161	92.2237
2.24064	92.1543
2.23967	92.2695
2.2387	92.2509
2.23774	92.1884
2.23677	92.1525
2.23581	92.1704
2.23484	92.1716
2.23388	92.1658
2.23292	92.1578
2.23196	92.1699
2.231	92.1936
2.23004	92.2021
2.22908	92.1777
2.22812	92.0617
2.22716	92.0149
2.22621	92.1326
2.22525	92.2642
2.2243	92.2483
2.22334	92.2326
2.22239	92.2021
2.22144	92.2565
2.22049	92.1869
2.21953	92.1728
2.21859	92.1884
2.21764	92.1189
2.21669	92.1416
2.21574	92.2139
2.21479	92.3197
2.21385	92.2654
2.2129	92.014
2.21196	92.0498
2.21102	92.1985
2.21007	92.3002
2.20913	92.3101
2.20819	92.3501
2.20725	92.2394
2.20631	92.1892
2.20537	92.2265
2.20444	92.26
2.2035	92.1867
2.20256	92.2152
2.20163	92.3067
2.20069	92.3027
2.19976	92.3079
2.19883	92.2379
2.19789	92.188
2.19696	92.227
2.19603	92.2033
2.1951	92.2201
2.19417	92.2584
2.19325	92.3333
2.19232	92.3835
2.19139	92.2686
2.19047	92.195
2.18954	92.2398
2.18862	92.3625
2.18769	92.2071
2.18677	92.0485
2.18585	92.1681
2.18493	92.2444
2.18401	92.2809
2.18309	92.3815
2.18217	92.3438
2.18125	92.2907
2.18033	92.3487
2.17942	92.3154
2.1785	92.2826
2.17759	92.1529
2.17667	92.1991
2.17576	92.4288
2.17485	92.4672
2.17393	92.334
2.17302	92.1913
2.17211	92.2243
2.1712	92.2105
2.17029	92.1797
2.16939	92.3037
2.16848	92.3057
2.16757	92.1302
2.16667	92.032
2.16576	92.157
2.16486	92.3626
2.16395	92.3394
2.16305	92.285
2.16215	92.3805
2.16125	92.4399
2.16035	92.2926
2.15945	92.2487
2.15855	92.3103
2.15765	92.3643
2.15675	92.3699
2.15586	92.3765
2.15496	92.3136
2.15406	92.2073
2.15317	92.2985
2.15228	92.4676
2.15138	92.4101
2.15049	92.2849
2.1496	92.1836
2.14871	92.1381
2.14782	92.2879
2.14693	92.4562
2.14604	92.4928
2.14515	92.4263
2.14427	92.3255
2.14338	92.236
2.14249	92.2688
2.14161	92.2494
2.14072	92.414
2.13984	92.424
2.13896	92.1307
2.13808	92.0742
2.13719	92.3964
2.13631	92.5605
2.13543	92.5919
2.13455	92.6042
2.13368	92.4752
2.1328	92.3341
2.13192	92.3943
2.13105	92.2875
2.13017	92.1874
2.1293	92.2858
2.12842	92.3444
2.12755	92.4513
2.12668	92.3859
2.1258	92.3779
2.12493	92.4553
2.12406	92.3887
2.12319	92.3442
2.12232	92.3141
2.12145	92.2845
2.12059	92.362
2.11972	92.3038
2.11885	92.3201
2.11799	92.4017
2.11712	92.3072
2.11626	92.3907
2.1154	92.3799
2.11453	92.3012
2.11367	92.2644
2.11281	92.2561
2.11195	92.2549
2.11109	92.1247
2.11023	92.0215
2.10937	92.201
2.10851	92.2814
2.10766	92.3271
2.1068	92.4638
2.10594	92.2433
2.10509	92.119
2.10423	92.2423
2.10338	92.256
2.10253	92.2819
2.10168	92.1639
2.10082	92.1112
2.09997	92.2102
2.09912	92.1511
2.09827	92.1389
2.09742	92.284
2.09658	92.3394
2.09573	92.2632
2.09488	92.127
2.09404	92.2117
2.09319	92.2311
2.09235	92.1843
2.0915	92.3303
2.09066	92.4024
2.08982	92.3637
2.08897	92.4345
2.08813	92.483
2.08729	92.3042
2.08645	92.1367
2.08561	92.0921
2.08477	92.3126
2.08394	92.2506
2.0831	91.9975
2.08226	92.2586
2.08143	92.4308
2.08059	92.1569
2.07976	91.9477
2.07892	92.0617
2.07809	92.3157
2.07726	92.49
2.07643	92.5578
2.07559	92.5224
2.07476	92.3205
2.07393	92.3248
2.0731	92.6362
2.07228	92.4914
2.07145	92.2396
2.07062	92.165
2.06979	92.1274
2.06897	92.029
2.06814	91.9284
2.06732	91.8897
2.06649	92.1508
2.06567	92.4627
2.06485	92.4608
2.06403	92.3636
2.0632	92.3603
2.06238	92.3659
2.06156	92.2572
2.06074	92.2949
2.05993	92.5472
2.05911	92.3805
2.05829	92.0489
2.05747	91.9362
2.05666	92.1354
2.05584	92.4222
2.05503	92.3799
2.05421	92.0995
2.0534	91.9951
2.05259	92.2167
2.05177	92.3225
2.05096	92.1964
2.05015	92.3369
2.04934	92.5218
2.04853	92.3197
2.04772	92.1021
2.04691	92.0836
2.04611	92.2975
2.0453	92.3213
2.04449	92.0908
2.04369	92.022
2.04288	92.3082
2.04208	92.4631
2.04127	92.2182
2.04047	92.1179
2.03967	92.1976
2.03886	92.0801
2.03806	91.9965
2.03726	92.0899
2.03646	92.2387
2.03566	92.2989
2.03486	92.2942
2.03407	92.3954
2.03327	92.2483
2.03247	91.7654
2.03167	91.8632
2.03088	91.9995
2.03008	92.0516
2.02929	92.0735
2.0285	92.046
2.0277	92.164
2.02691	92.1675
2.02612	92.1278
2.02533	92.1558
2.02453	92.0453
2.02374	92.427
2.02295	92.4347
2.02217	92.0697
2.02138	92.079
2.02059	92.1356
2.0198	92.2938
2.01902	92.2255
2.01823	91.9999
2.01744	91.9023
2.01666	91.9174
2.01588	91.8186
2.01509	91.9433
2.01431	91.9677
2.01353	91.9376
2.01275	91.8895
2.01196	91.7813
2.01118	91.827
2.0104	92.0057
2.00963	92.142
2.00885	92.3589
2.00807	92.429
2.00729	92.5925
2.00651	92.5895
2.00574	92.211
2.00496	91.8528
2.00419	91.9883
2.00341	91.9024
2.00264	91.8942
2.00187	91.9507
2.00109	91.9249
2.00032	91.7349
