Name: Gold plate
Type: Manmade materials
Class: Reflectance target
Subclass: 
Particle Size: Solid
Sample No.: 001682
Owner: JPL
Wavelength range: IR
Origin: Labsphere, P.O. Box 70, Shaker Street, North Sutton, NH 03260
(603) 927-4266
Description: Measurement made at top left. Field Gold.
Oct. 29 1997 to Oct. 30 1997.




Measurement: Hemispherical Reflectance
First Column: X
Second Column: Y
X Units: Wavelength (micrometers)
Y Units: Reflectence (percent)
First X Value: 15.3853
Last X Value: 2.00032
Number of X Values: 2256
Additional information: None.
 
15.3853	91.8233
15.3397	91.8696
15.2945	92.0096
15.2495	91.9334
15.2048	91.9181
15.1603	91.8593
15.1161	91.8198
15.0722	91.8097
15.0285	91.3163
14.9851	90.2404
14.9419	90.6426
14.8989	91.5225
14.8563	91.6551
14.8138	91.6855
14.7716	91.7449
14.7296	91.8984
14.6879	91.9454
14.6464	91.8676
14.6052	91.7736
14.5641	91.8899
14.5233	91.8521
14.4828	91.6541
14.4424	91.6529
14.4023	91.7891
14.3624	91.8039
14.3227	91.7756
14.2833	91.9633
14.244	92.2153
14.205	92.1753
14.1662	92.0069
14.1276	91.9435
14.0892	91.8609
14.051	91.7828
14.0131	91.944
13.9753	92.0212
13.9377	92.0692
13.9004	92.061
13.8632	92.0856
13.8262	92.2116
13.7895	92.2063
13.7529	92.116
13.7165	92.1335
13.6803	92.2005
13.6443	92.2607
13.6085	92.2554
13.5729	92.2921
13.5374	92.2244
13.5022	92.1893
13.4671	92.2504
13.4322	92.3101
13.3975	92.333
13.363	92.3151
13.3286	92.2461
13.2944	92.2012
13.2604	92.2083
13.2266	92.2508
13.193	92.2173
13.1595	92.1448
13.1262	92.2509
13.093	92.3269
13.06	92.2078
13.0272	92.1378
12.9946	92.0949
12.9621	92.1206
12.9298	92.0335
12.8976	92.0297
12.8656	92.0594
12.8337	92.1164
12.8021	92.0786
12.7705	91.9936
12.7391	92.0722
12.7079	92.124
12.6769	92.1024
12.6459	92.101
12.6152	92.0625
12.5845	92.0659
12.5541	92.2033
12.5238	92.1515
12.4936	92.0345
12.4635	92.097
12.4337	92.3178
12.4039	92.4609
12.3743	92.5732
12.3448	92.6385
12.3155	92.5807
12.2863	92.7015
12.2573	92.7995
12.2284	92.7614
12.1996	92.8215
12.171	92.824
12.1425	92.8346
12.1141	92.8072
12.0859	92.7671
12.0578	92.8403
12.0298	92.9005
12.0019	92.9563
11.9742	92.9699
11.9466	92.9515
11.9192	92.8272
11.8918	92.7731
11.8646	92.8709
11.8375	92.9278
11.8106	92.7997
11.7837	92.7599
11.757	92.8254
11.7304	92.7726
11.7039	92.7921
11.6776	92.8016
11.6513	92.7222
11.6252	92.6341
11.5992	92.558
11.5733	92.4292
11.5475	92.3376
11.5219	92.2418
11.4963	92.069
11.4709	91.9598
11.4455	91.9325
11.4203	91.9148
11.3952	91.9585
11.3702	92.0267
11.3454	92.1426
11.3206	92.1876
11.2959	92.2513
11.2714	92.4052
11.2469	92.4149
11.2226	92.3162
11.1983	92.2958
11.1742	92.2371
11.1502	92.0828
11.1263	91.9426
11.1024	91.9059
11.0787	91.9038
11.0551	91.8681
11.0316	91.7685
11.0081	91.6561
10.9848	91.5807
10.9616	91.5348
10.9385	91.5006
10.9154	91.4516
10.8925	91.4661
10.8697	91.4248
10.8469	91.3932
10.8243	91.4023
10.8017	91.4635
10.7793	91.4899
10.7569	91.4333
10.7346	91.3529
10.7125	91.2966
10.6904	91.2961
10.6684	91.2883
10.6465	91.2395
10.6247	91.1467
10.6029	91.0662
10.5813	91.0907
10.5597	91.1456
10.5383	91.183
10.5169	91.1027
10.4956	91.056
10.4744	91.0168
10.4533	90.9293
10.4323	90.8985
10.4113	90.796
10.3904	90.6022
10.3697	90.5223
10.349	90.4152
10.3284	90.2899
10.3078	90.2379
10.2874	90.1364
10.267	90.0188
10.2467	89.9571
10.2265	89.7921
10.2064	89.7379
10.1863	89.7205
10.1663	89.5778
10.1464	89.4203
10.1266	89.2546
10.1069	89.1573
10.0872	89.11
10.0676	89.0079
10.0481	88.923
10.0287	88.8573
10.0093	88.7798
9.99005	88.6664
9.97084	88.4858
9.95169	88.3125
9.93263	88.2675
9.91364	88.2912
9.89472	88.2622
9.87587	88.2423
9.8571	88.2382
9.83839	88.1762
9.81976	88.1551
9.80119	88.1878
9.78271	88.1774
9.76428	88.1797
9.74592	88.2179
9.72764	88.171
9.70943	88.1706
9.69128	88.2399
9.6732	88.1534
9.65518	88.1627
9.63724	88.174
9.61935	88.1131
9.60155	88.1915
9.5838	88.3464
9.56611	88.4176
9.5485	88.4056
9.53094	88.445
9.51345	88.592
9.49604	88.6298
9.47867	88.6286
9.46137	88.7093
9.44414	88.7779
9.42697	88.9052
9.40986	88.9858
9.39281	89.0302
9.37583	89.0721
9.35891	89.1601
9.34204	89.2156
9.32524	89.3635
9.3085	89.551
9.29182	89.6802
9.27519	89.6026
9.25863	89.4851
9.24213	89.585
9.22568	89.6456
9.2093	89.5689
9.19297	89.6217
9.17669	89.7205
9.16048	89.7533
9.14433	89.7682
9.12823	89.8186
9.11218	89.8072
9.0962	89.8334
9.08027	89.8686
9.06439	89.8846
9.04858	89.951
9.03281	89.9933
9.0171	90.0656
9.00145	90.1248
8.98585	90.1522
8.9703	90.2183
8.9548	90.1358
8.93937	90.1205
8.92398	90.2688
8.90865	90.4398
8.89337	90.5356
8.87814	90.5878
8.86296	90.6969
8.84784	90.7493
8.83277	90.7867
8.81774	90.829
8.80277	90.9125
8.78786	90.995
8.77298	91.0482
8.75816	91.1657
8.7434	91.1437
8.72868	91.0835
8.714	91.1924
8.69938	91.3114
8.68481	91.3238
8.67029	91.2641
8.65581	91.2648
8.64139	91.2819
8.62701	91.3502
8.61268	91.33
8.5984	91.2943
8.58416	91.3949
8.56997	91.4588
8.55583	91.6302
8.54174	91.7292
8.52769	91.6407
8.51368	91.712
8.49973	91.9049
8.48582	92.0359
8.47195	92.0427
8.45813	92.0158
8.44436	92.0472
8.43062	92.1789
8.41693	92.3279
8.4033	92.3515
8.3897	92.3374
8.37614	92.4347
8.36264	92.4401
8.34917	92.4285
8.33574	92.4596
8.32236	92.4757
8.30903	92.571
8.29573	92.6378
8.28248	92.6713
8.26927	92.6925
8.2561	92.6264
8.24298	92.7171
8.2299	92.8457
8.21685	92.8486
8.20385	92.8073
8.19089	92.798
8.17797	92.8755
8.16509	92.912
8.15225	92.9072
8.13946	92.9973
8.1267	93.0901
8.11398	93.0368
8.10131	92.9768
8.08867	92.9256
8.07606	92.9606
8.0635	93.0048
8.05099	93.0339
8.0385	92.9488
8.02606	92.8876
8.01366	92.9592
8.00129	92.9669
7.98896	92.9377
7.97667	92.9674
7.96442	93.0299
7.9522	93.0905
7.94002	93.1005
7.92788	92.9958
7.91578	93.0107
7.90371	93.0316
7.89168	93.0304
7.87969	93.0713
7.86773	93.0417
7.85581	92.972
7.84392	92.9662
7.83207	93.0418
7.82026	93.1056
7.80849	93.1167
7.79674	93.1472
7.78503	93.0495
7.77337	93.0193
7.76173	93.0531
7.75012	93.0525
7.73856	93.0629
7.72703	93.0104
7.71553	92.9555
7.70406	92.968
7.69263	93.0144
7.68123	93.0191
7.66987	92.9929
7.65855	92.976
7.64725	92.9457
7.63598	92.9229
7.62475	92.8337
7.61356	92.7559
7.60239	92.7478
7.59126	92.791
7.58017	92.7519
7.5691	92.7144
7.55806	92.7193
7.54707	92.6852
7.5361	92.6675
7.52516	92.6857
7.51425	92.7041
7.50338	92.7246
7.49253	92.7276
7.48172	92.7113
7.47094	92.6797
7.46019	92.6653
7.44947	92.6277
7.43879	92.5872
7.42813	92.5896
7.4175	92.5425
7.4069	92.4765
7.39634	92.476
7.3858	92.4586
7.37529	92.4035
7.36482	92.3025
7.35437	92.2358
7.34396	92.2939
7.33357	92.3418
7.32321	92.2546
7.31288	92.202
7.30258	92.1682
7.29231	92.1218
7.28207	92.1208
7.27185	92.1033
7.26167	92.0773
7.25152	92.0638
7.24139	92.0044
7.23129	91.9451
7.22122	91.9524
7.21117	91.9842
7.20116	91.9264
7.19117	91.9
7.18121	91.9539
7.17128	91.9856
7.16137	91.9002
7.1515	91.8679
7.14164	91.8652
7.13182	91.7978
7.12203	91.797
7.11225	91.7831
7.10251	91.6741
7.0928	91.6307
7.08311	91.6121
7.07344	91.6441
7.06381	91.6629
7.0542	91.7615
7.04461	91.8441
7.03506	91.7599
7.02552	91.7628
7.01601	91.7569
7.00653	91.7333
6.99708	91.7483
6.98765	91.6592
6.97824	91.5988
6.96886	91.6674
6.95951	91.8071
6.95018	91.7993
6.94087	91.7652
6.9316	91.7251
6.92234	91.7403
6.91311	91.7977
6.90391	91.8441
6.89473	91.7774
6.88557	91.7806
6.87644	91.8627
6.86733	92.065
6.85824	92.0965
6.84918	91.9272
6.84015	91.8582
6.83114	91.9174
6.82215	91.9629
6.81319	91.8988
6.80424	91.9717
6.79532	92.1572
6.78643	92.2356
6.77756	92.1747
6.76871	92.1728
6.75989	92.2177
6.75109	92.2972
6.74231	92.3883
6.73355	92.4481
6.72482	92.5212
6.71611	92.5845
6.70742	92.6051
6.69875	92.5251
6.69011	92.6047
6.68149	92.7059
6.67289	92.6531
6.66431	92.5835
6.65576	92.612
6.64722	92.833
6.63871	93.0825
6.63022	92.9646
6.62175	92.7772
6.61331	92.7567
6.60488	92.7502
6.59648	92.8376
6.5881	92.9331
6.57974	93.0048
6.5714	93.0487
6.56308	92.9541
6.55478	92.962
6.54651	92.8497
6.53825	92.7673
6.53001	92.8202
6.5218	92.9184
6.51361	92.8582
6.50544	92.8686
6.49729	93.1348
6.48915	93.1604
6.48104	92.939
6.47295	92.8149
6.46488	92.758
6.45683	92.8153
6.4488	92.8653
6.44079	92.7803
6.4328	92.8144
6.42482	92.8947
6.41687	93.1528
6.40894	93.0708
6.40103	92.732
6.39314	92.623
6.38526	92.6179
6.37741	92.6964
6.36957	92.759
6.36176	92.6613
6.35396	92.6221
6.34618	92.7278
6.33843	92.6115
6.33069	92.4227
6.32297	92.3796
6.31527	92.3926
6.30758	92.3954
6.29992	92.404
6.29227	92.3884
6.28465	92.3141
6.27704	92.2704
6.26945	92.2612
6.26188	92.3504
6.25432	92.3486
6.24679	92.3057
6.23927	92.3065
6.23177	92.3078
6.22429	92.3102
6.21683	92.3259
6.20938	92.2735
6.20195	92.2511
6.19454	92.3352
6.18715	92.4663
6.17978	92.339
6.17242	92.2138
6.16508	92.3012
6.15776	92.3285
6.15045	92.2874
6.14317	92.3125
6.1359	92.2622
6.12864	92.2666
6.12141	92.4641
6.11419	92.6466
6.10699	92.5
6.0998	92.3481
6.09263	92.3437
6.08549	92.3947
6.07835	92.551
6.07123	92.6146
6.06413	92.5015
6.05705	92.656
6.04998	93.0174
6.04293	92.8376
6.0359	92.5644
6.02888	92.4854
6.02187	92.525
6.01489	92.6468
6.00792	92.7017
6.00096	92.7419
5.99403	92.8586
5.98711	92.924
5.9802	92.9323
5.97331	92.9849
5.96644	92.9475
5.95958	92.8542
5.95274	92.9407
5.94591	93.0753
5.9391	93.2929
5.9323	93.246
5.92552	93.1541
5.91876	93.236
5.91201	93.2493
5.90528	93.2745
5.89856	93.5127
5.89186	93.548
5.88517	93.6023
5.8785	93.6647
5.87184	93.542
5.8652	93.5494
5.85857	93.5149
5.85196	93.513
5.84536	93.5195
5.83878	93.5125
5.83221	93.6103
5.82566	93.7486
5.81912	93.7203
5.81259	93.6298
5.80608	93.6707
5.79959	93.6742
5.79311	93.5841
5.78665	93.6
5.78019	93.6514
5.77376	93.7597
5.76734	93.9562
5.76093	93.7845
5.75453	93.6675
5.74815	93.7575
5.74179	93.7332
5.73543	93.7641
5.7291	93.8365
5.72277	93.896
5.71646	93.9892
5.71017	94.0903
5.70389	94.0326
5.69762	94.0566
5.69136	94.1463
5.68513	94.1531
5.6789	94.1517
5.67268	94.1383
5.66648	94.1456
5.6603	94.2293
5.65413	94.2708
5.64797	94.3196
5.64182	94.3923
5.63569	94.3215
5.62957	94.2413
5.62347	94.2424
5.61737	94.2944
5.61129	94.2797
5.60522	94.2135
5.59917	94.1967
5.59313	94.1621
5.5871	94.1332
5.58109	94.1441
5.57509	94.1051
5.5691	94.0188
5.56312	94.0195
5.55716	94.0769
5.55121	94.1459
5.54528	94.1452
5.53935	94.2001
5.53344	94.3058
5.52754	94.3066
5.52166	94.2848
5.51578	94.308
5.50992	94.3015
5.50407	94.2942
5.49823	94.2956
5.49241	94.3125
5.4866	94.3373
5.4808	94.3831
5.47501	94.4277
5.46923	94.4338
5.46347	94.4223
5.45772	94.4457
5.45198	94.4909
5.44625	94.4548
5.44054	94.4268
5.43484	94.4355
5.42914	94.4532
5.42347	94.5223
5.4178	94.5047
5.41214	94.4376
5.4065	94.3772
5.40087	94.3663
5.39525	94.3894
5.38964	94.4576
5.38404	94.4923
5.37846	94.481
5.37288	94.4663
5.36732	94.4518
5.36177	94.4266
5.35623	94.3978
5.35071	94.4027
5.34519	94.4208
5.33968	94.4624
5.33419	94.3935
5.32871	94.3604
5.32324	94.4529
5.31778	94.4433
5.31233	94.3971
5.30689	94.4543
5.30147	94.4752
5.29605	94.4503
5.29065	94.4337
5.28525	94.4465
5.27987	94.5057
5.2745	94.5265
5.26914	94.4858
5.26379	94.4714
5.25845	94.4744
5.25312	94.4584
5.24781	94.4875
5.2425	94.4805
5.23721	94.4795
5.23192	94.493
5.22665	94.5277
5.22138	94.4914
5.21613	94.4883
5.21089	94.5216
5.20566	94.5184
5.20044	94.5281
5.19522	94.5341
5.19002	94.5387
5.18483	94.5066
5.17965	94.4305
5.17448	94.4534
5.16933	94.5287
5.16418	94.5158
5.15904	94.4636
5.15391	94.4849
5.14879	94.5135
5.14368	94.4597
5.13859	94.3957
5.1335	94.422
5.12842	94.4941
5.12335	94.4985
5.1183	94.5306
5.11325	94.5443
5.10821	94.492
5.10318	94.4861
5.09817	94.4732
5.09316	94.4865
5.08816	94.5277
5.08317	94.5374
5.07819	94.4894
5.07322	94.4989
5.06826	94.5235
5.06331	94.5175
5.05837	94.5009
5.05344	94.5383
5.04852	94.5238
5.04361	94.4885
5.03871	94.5082
5.03382	94.5215
5.02894	94.5033
5.02406	94.4717
5.0192	94.4856
5.01435	94.4907
5.0095	94.4681
5.00467	94.4832
4.99984	94.4752
4.99502	94.4736
4.99021	94.4939
4.98542	94.4965
4.98063	94.507
4.97585	94.5014
4.97108	94.4776
4.96632	94.4339
4.96156	94.5012
4.95682	94.5793
4.95209	94.5642
4.94736	94.5286
4.94264	94.5327
4.93794	94.5315
4.93324	94.479
4.92855	94.4499
4.92387	94.4787
4.9192	94.5308
4.91453	94.5481
4.90988	94.5611
4.90524	94.5589
4.9006	94.5033
4.89597	94.4609
4.89135	94.4571
4.88674	94.4342
4.88214	94.4884
4.87755	94.556
4.87296	94.5511
4.86839	94.481
4.86382	94.4999
4.85926	94.5815
4.85471	94.5616
4.85017	94.4814
4.84564	94.4328
4.84111	94.5242
4.8366	94.5858
4.83209	94.5474
4.82759	94.5228
4.8231	94.5121
4.81862	94.5107
4.81415	94.5519
4.80968	94.5754
4.80522	94.5171
4.80077	94.4952
4.79633	94.4846
4.7919	94.4405
4.78747	94.4823
4.78306	94.5158
4.77865	94.4859
4.77425	94.4588
4.76986	94.4579
4.76547	94.5002
4.7611	94.4979
4.75673	94.4685
4.75237	94.4868
4.74802	94.4826
4.74367	94.4189
4.73934	94.4221
4.73501	94.4712
4.73069	94.4752
4.72638	94.4373
4.72207	94.4474
4.71777	94.5092
4.71348	94.5081
4.7092	94.4922
4.70493	94.4427
4.70066	94.3759
4.69641	94.4263
4.69216	94.4773
4.68791	94.4366
4.68368	94.3873
4.67945	94.4112
4.67523	94.454
4.67102	94.474
4.66682	94.42
4.66262	94.4153
4.65843	94.4297
4.65425	94.467
4.65007	94.4665
4.64591	94.4736
4.64175	94.4983
4.6376	94.4745
4.63345	94.4059
4.62932	94.3609
4.62519	94.4003
4.62106	94.4383
4.61695	94.376
4.61284	94.4094
4.60874	94.4573
4.60465	94.4076
4.60056	94.4272
4.59648	94.4515
4.59241	94.4277
4.58835	94.4188
4.58429	94.4337
4.58024	94.4503
4.5762	94.4394
4.57216	94.4593
4.56814	94.518
4.56411	94.4921
4.5601	94.4385
4.55609	94.4216
4.55209	94.4644
4.5481	94.4582
4.54411	94.4545
4.54013	94.496
4.53616	94.4985
4.5322	94.4196
4.52824	94.4142
4.52429	94.4634
4.52034	94.4341
4.51641	94.4207
4.51247	94.4289
4.50855	94.3823
4.50463	94.3704
4.50072	94.3939
4.49682	94.3787
4.49292	94.3663
4.48903	94.42
4.48515	94.4541
4.48127	94.4582
4.4774	94.4834
4.47354	94.4889
4.46968	94.3925
4.46584	94.368
4.46199	94.38
4.45815	94.4134
4.45432	94.4165
4.4505	94.4112
4.44668	94.3899
4.44287	94.3875
4.43907	94.4339
4.43527	94.45
4.43148	94.3689
4.4277	94.2685
4.42392	94.3059
4.42015	94.3884
4.41638	94.3999
4.41262	94.3748
4.40887	94.3148
4.40513	94.3019
4.40139	94.3287
4.39765	94.3485
4.39393	94.4116
4.39021	94.3857
4.38649	94.385
4.38278	94.3925
4.37908	94.3222
4.37539	94.2954
4.3717	94.3219
4.36801	94.3132
4.36434	94.2831
4.36067	94.2506
4.357	94.2471
4.35335	94.2193
4.34969	94.1798
4.34605	94.1857
4.34241	94.159
4.33877	94.0723
4.33514	93.9575
4.33152	93.8619
4.32791	93.7802
4.3243	93.621
4.32069	93.4497
4.3171	93.3117
4.31351	93.1126
4.30992	92.8753
4.30634	92.6198
4.30277	92.3636
4.2992	92.2218
4.29564	92.0408
4.29208	91.8518
4.28853	91.7229
4.28499	91.6137
4.28145	91.5242
4.27792	91.4104
4.27439	91.4124
4.27087	91.5779
4.26735	91.8684
4.26384	92.3594
4.26034	93.0433
4.25684	93.4089
4.25335	92.9199
4.24986	92.0948
4.24638	91.4529
4.24291	90.9742
4.23944	90.6294
4.23598	90.4495
4.23252	90.4602
4.22906	90.6224
4.22562	90.9354
4.22218	91.3227
4.21874	91.7402
4.21531	92.2441
4.21189	92.8165
4.20847	93.2978
4.20506	93.684
4.20165	93.9239
4.19825	94.0576
4.19485	94.2203
4.19146	94.3284
4.18807	94.351
4.18469	94.3221
4.18132	94.2741
4.17795	94.2441
4.17458	94.2586
4.17123	94.2554
4.16787	94.251
4.16453	94.2398
4.16118	94.2677
4.15785	94.2932
4.15451	94.2657
4.15119	94.2158
4.14787	94.2371
4.14455	94.2967
4.14124	94.2722
4.13794	94.2147
4.13464	94.2206
4.13134	94.243
4.12805	94.2009
4.12477	94.1887
4.12149	94.1921
4.11822	94.2155
4.11495	94.2553
4.11168	94.2624
4.10843	94.2939
4.10517	94.2744
4.10192	94.2781
4.09868	94.2677
4.09545	94.1784
4.09221	94.1168
4.08899	94.1271
4.08576	94.1652
4.08255	94.1452
4.07933	94.1551
4.07613	94.2426
4.07292	94.2533
4.06973	94.2077
4.06654	94.1859
4.06335	94.1479
4.06017	94.1208
4.05699	94.1057
4.05382	94.1331
4.05065	94.2128
4.04749	94.1999
4.04433	94.1851
4.04118	94.114
4.03803	94.1216
4.03489	94.1506
4.03175	94.131
4.02862	94.0602
4.02549	93.9954
4.02237	94.0399
4.01925	94.0617
4.01614	94.0492
4.01303	93.9981
4.00993	94.0118
4.00683	93.9794
4.00373	93.9119
4.00064	93.9111
3.99756	93.9537
3.99448	93.9688
3.9914	93.9487
3.98833	93.9588
3.98527	93.9368
3.98221	93.8985
3.97915	93.8828
3.9761	93.8464
3.97305	93.7765
3.97001	93.7658
3.96697	93.8474
3.96394	93.7997
3.96091	93.7938
3.95789	93.8397
3.95487	93.8189
3.95186	93.8456
3.94885	93.8256
3.94584	93.7989
3.94284	93.8267
3.93984	93.8289
3.93685	93.8771
3.93386	93.9653
3.93088	93.9485
3.9279	93.914
3.92493	93.9213
3.92196	93.8929
3.919	93.9145
3.91604	94.0048
3.91308	94.099
3.91013	94.0103
3.90718	93.9213
3.90424	93.9225
3.9013	93.8839
3.89837	93.8543
3.89544	93.8459
3.89252	93.8662
3.8896	93.9515
3.88668	93.9695
3.88377	93.8889
3.88086	93.8884
3.87796	93.9454
3.87506	93.9822
3.87217	93.9828
3.86928	93.866
3.86639	93.8005
3.86351	93.8403
3.86064	93.8391
3.85776	93.8072
3.8549	93.8441
3.85203	93.8426
3.84917	93.8102
3.84631	93.7827
3.84346	93.8264
3.84062	93.9355
3.83777	93.9844
3.83494	93.9211
3.8321	93.9288
3.82927	93.9197
3.82644	93.8206
3.82362	93.7967
3.82081	93.8384
3.81799	93.8902
3.81518	93.8649
3.81238	93.8196
3.80958	93.8429
3.80678	93.8917
3.80399	93.9117
3.8012	93.8996
3.79841	93.8569
3.79563	93.7877
3.79286	93.8095
3.79008	93.8029
3.78731	93.7827
3.78455	93.8381
3.78179	93.8434
3.77903	93.8068
3.77628	93.7593
3.77353	93.7158
3.77079	93.7309
3.76805	93.7855
3.76531	93.823
3.76258	93.8355
3.75985	93.8404
3.75713	93.7976
3.7544	93.7506
3.75169	93.7633
3.74898	93.7788
3.74627	93.7536
3.74356	93.6939
3.74086	93.7157
3.73816	93.7725
3.73547	93.7874
3.73278	93.7336
3.7301	93.7559
3.72741	93.7567
3.72474	93.7822
3.72206	93.7482
3.71939	93.7332
3.71673	93.7116
3.71406	93.6958
3.71141	93.7589
3.70875	93.7648
3.7061	93.7676
3.70345	93.7883
3.70081	93.7336
3.69817	93.7377
3.69553	93.7875
3.6929	93.7159
3.69027	93.6613
3.68765	93.6623
3.68503	93.6744
3.68241	93.67
3.6798	93.6455
3.67719	93.6489
3.67458	93.6956
3.67198	93.6842
3.66938	93.6149
3.66678	93.5741
3.66419	93.5522
3.66161	93.5592
3.65902	93.5746
3.65644	93.6225
3.65387	93.6262
3.65129	93.58
3.64872	93.5799
3.64616	93.5561
3.64359	93.5747
3.64103	93.6007
3.63848	93.5883
3.63593	93.5935
3.63338	93.5799
3.63084	93.5308
3.6283	93.6058
3.62576	93.6172
3.62322	93.5165
3.62069	93.4978
3.61817	93.4859
3.61564	93.4133
3.61312	93.4596
3.61061	93.4844
3.6081	93.4462
3.60559	93.4213
3.60308	93.4409
3.60058	93.4779
3.59808	93.5157
3.59558	93.4973
3.59309	93.5027
3.59061	93.4851
3.58812	93.4498
3.58564	93.4593
3.58316	93.5142
3.58069	93.4309
3.57822	93.398
3.57575	93.3732
3.57328	93.2765
3.57082	93.2579
3.56836	93.2726
3.56591	93.3367
3.56346	93.3584
3.56101	93.3563
3.55857	93.3545
3.55613	93.3372
3.55369	93.3577
3.55126	93.3135
3.54883	93.2904
3.5464	93.3393
3.54397	93.3027
3.54155	93.2012
3.53914	93.1605
3.53672	93.1403
3.53431	93.1494
3.5319	93.1705
3.5295	93.1321
3.5271	93.0638
3.5247	93.0375
3.52231	92.9754
3.51991	92.9049
3.51753	92.7947
3.51514	92.6993
3.51276	92.5214
3.51038	92.3275
3.50801	92.2488
3.50563	92.2063
3.50327	92.2686
3.5009	92.4302
3.49854	92.5076
3.49618	92.4893
3.49382	92.52
3.49147	92.5698
3.48912	92.6024
3.48677	92.5693
3.48443	92.5288
3.48209	92.5567
3.47975	92.6098
3.47742	92.6398
3.47509	92.607
3.47276	92.5275
3.47044	92.4925
3.46812	92.5339
3.4658	92.5303
3.46348	92.4836
3.46117	92.4479
3.45886	92.4504
3.45656	92.457
3.45425	92.4059
3.45195	92.3435
3.44966	92.3656
3.44736	92.3599
3.44507	92.214
3.44279	92.1107
3.4405	92.1924
3.43822	92.1363
3.43594	92.0285
3.43367	91.976
3.43139	91.8652
3.42912	91.7606
3.42686	91.733
3.42459	91.7158
3.42233	91.7003
3.42007	91.6796
3.41782	91.711
3.41557	91.7559
3.41332	91.8472
3.41108	91.9073
3.40883	91.9124
3.40659	91.9752
3.40435	92.0857
3.40212	92.1701
3.39989	92.0909
3.39766	92.1174
3.39544	92.2716
3.39322	92.273
3.391	92.2631
3.38878	92.3207
3.38657	92.3017
3.38436	92.1927
3.38215	92.0903
3.37994	92.2029
3.37774	92.306
3.37554	92.3292
3.37335	92.3375
3.37115	92.3753
3.36896	92.4728
3.36678	92.5197
3.36459	92.4745
3.36241	92.5298
3.36023	92.597
3.35805	92.5685
3.35588	92.5197
3.35371	92.4838
3.35154	92.5212
3.34938	92.5574
3.34721	92.5414
3.34505	92.6284
3.3429	92.7318
3.34074	92.7825
3.33859	92.7401
3.33644	92.7054
3.3343	92.7333
3.33215	92.671
3.33001	92.7215
3.32788	92.8385
3.32574	92.8371
3.32361	92.8336
3.32148	92.797
3.31936	92.7541
3.31723	92.731
3.31511	92.7177
3.31299	92.7256
3.31088	92.6791
3.30876	92.6527
3.30665	92.6797
3.30455	92.7108
3.30244	92.7331
3.30034	92.6984
3.29824	92.6309
3.29614	92.6256
3.29405	92.6294
3.29196	92.6771
3.28987	92.7137
3.28778	92.6816
3.2857	92.6819
3.28362	92.6198
3.28154	92.594
3.27946	92.55
3.27739	92.5382
3.27532	92.613
3.27325	92.6994
3.27119	92.613
3.26913	92.5356
3.26707	92.5636
3.26501	92.5857
3.26295	92.5195
3.2609	92.4892
3.25885	92.4229
3.2568	92.3039
3.25476	92.3776
3.25272	92.5044
3.25068	92.5539
3.24864	92.526
3.24661	92.3825
3.24458	92.5225
3.24255	92.6663
3.24052	92.5647
3.2385	92.3893
3.23648	92.3793
3.23446	92.4436
3.23244	92.4142
3.23043	92.4087
3.22841	92.3949
3.2264	92.3576
3.2244	92.2917
3.22239	92.2712
3.22039	92.3067
3.21839	92.3496
3.2164	92.342
3.2144	92.3264
3.21241	92.3214
3.21042	92.3021
3.20844	92.2807
3.20645	92.2827
3.20447	92.2691
3.20249	92.3085
3.20051	92.2753
3.19854	92.2164
3.19657	92.0905
3.1946	92.1087
3.19263	92.1858
3.19067	92.1475
3.1887	92.0679
3.18674	92.094
3.18479	92.1797
3.18283	92.1063
3.18088	92.0327
3.17893	92.1046
3.17698	92.1085
3.17504	92.1076
3.17309	92.1126
3.17115	92.0324
3.16921	92.009
3.16728	92.0437
3.16534	91.9876
3.16341	91.8779
3.16148	91.8942
3.15956	91.9293
3.15763	91.8799
3.15571	91.8906
3.15379	91.8983
3.15187	91.8422
3.14996	91.8611
3.14805	91.9201
3.14614	91.9868
3.14423	91.9407
3.14232	91.8426
3.14042	91.8914
3.13852	91.8467
3.13662	91.7818
3.13472	91.756
3.13283	91.666
3.13094	91.6081
3.12905	91.6841
3.12716	91.7369
3.12528	91.6925
3.12339	91.6723
3.12151	91.7052
3.11964	91.7446
3.11776	91.7721
3.11589	91.7139
3.11401	91.5962
3.11214	91.6251
3.11028	91.5834
3.10841	91.4526
3.10655	91.4609
3.10469	91.5117
3.10283	91.4553
3.10098	91.4996
3.09912	91.5382
3.09727	91.5118
3.09542	91.4936
3.09358	91.4502
3.09173	91.4299
3.08989	91.4227
3.08805	91.4911
3.08621	91.5149
3.08437	91.4179
3.08254	91.3063
3.08071	91.2192
3.07888	91.1891
3.07705	91.233
3.07523	91.2936
3.0734	91.3352
3.07158	91.355
3.06977	91.3076
3.06795	91.2665
3.06613	91.1939
3.06432	91.2245
3.06251	91.217
3.0607	91.184
3.0589	91.1527
3.0571	91.2099
3.05529	91.3276
3.05349	91.2519
3.0517	91.1663
3.0499	91.1201
3.04811	91.0534
3.04632	91.0541
3.04453	91.105
3.04274	91.1711
3.04096	91.1608
3.03918	91.1271
3.0374	91.0094
3.03562	90.9614
3.03384	91.0548
3.03207	91.0526
3.03029	91.1053
3.02852	91.1687
3.02676	91.0291
3.02499	90.9642
3.02323	91.042
3.02146	91.0348
3.0197	91.0083
3.01795	91.0595
3.01619	91.0708
3.01444	91.0659
3.01269	91.0277
3.01094	91.0644
3.00919	91.1673
3.00744	91.1032
3.0057	91.0524
3.00396	91.0777
3.00222	91.0032
3.00048	90.8887
2.99875	90.824
2.99701	90.9443
2.99528	91.0789
2.99355	91.0137
2.99183	90.9834
2.9901	91.0217
2.98838	91
2.98666	91.0294
2.98494	91.0017
2.98322	90.9793
2.9815	91.0169
2.97979	90.9988
2.97808	90.9701
2.97637	90.979
2.97466	90.9382
2.97295	90.8697
2.97125	90.8402
2.96955	90.9345
2.96785	90.927
2.96615	90.8834
2.96446	90.8835
2.96276	90.8613
2.96107	90.9347
2.95938	91.014
2.95769	90.9374
2.95601	90.9449
2.95432	90.9431
2.95264	90.9715
2.95096	91.0036
2.94928	90.9782
2.9476	90.9096
2.94593	90.9043
2.94425	90.8967
2.94258	90.91
2.94092	91.0522
2.93925	91.1544
2.93758	91.0371
2.93592	91.0152
2.93426	90.9804
2.9326	90.969
2.93094	91.1103
2.92928	91.1379
2.92763	91.0332
2.92598	91.0029
2.92433	91.0029
2.92268	91.039
2.92103	91.1506
2.91939	91.14
2.91775	90.9905
2.9161	90.9394
2.91447	91.0118
2.91283	91.0445
2.91119	91.0587
2.90956	91.1953
2.90793	91.2377
2.9063	91.1212
2.90467	91.0726
2.90304	91.1028
2.90142	91.2597
2.89979	91.3323
2.89817	91.178
2.89656	91.0843
2.89494	91.175
2.89332	91.2485
2.89171	91.3116
2.8901	91.3129
2.88849	91.3439
2.88688	91.392
2.88527	91.2381
2.88367	91.1383
2.88206	91.2545
2.88046	91.2849
2.87886	91.2598
2.87727	91.3801
2.87567	91.3923
2.87408	91.3943
2.87248	91.4353
2.87089	91.33
2.8693	91.3098
2.86772	91.4331
2.86613	91.4594
2.86455	91.465
2.86297	91.476
2.86139	91.4106
2.85981	91.3321
2.85823	91.5208
2.85666	91.668
2.85508	91.4555
2.85351	91.3121
2.85194	91.3888
2.85038	91.4478
2.84881	91.4316
2.84724	91.4596
2.84568	91.4508
2.84412	91.4611
2.84256	91.5424
2.841	91.5267
2.83945	91.5416
2.83789	91.7293
2.83634	91.6473
2.83479	91.5444
2.83324	91.5242
2.83169	91.6444
2.83015	91.6454
2.82861	91.549
2.82706	91.5985
2.82552	91.6297
2.82398	91.4559
2.82245	91.4437
2.82091	91.5485
2.81938	91.5674
2.81784	91.608
2.81631	91.6442
2.81479	91.7656
2.81326	91.8475
2.81173	91.7727
2.81021	91.6478
2.80869	91.6143
2.80716	91.7421
2.80565	91.8204
2.80413	91.812
2.80261	91.8894
2.8011	91.8
2.79959	91.7792
2.79808	91.6777
2.79657	91.6587
2.79506	91.6134
2.79355	91.4723
2.79205	91.7412
2.79055	92.0688
2.78904	91.7817
2.78754	91.6335
2.78605	91.7229
2.78455	91.6627
2.78306	91.5432
2.78156	91.4786
2.78007	91.6215
2.77858	91.8636
2.77709	91.8567
2.77561	91.286
2.77412	91.1708
2.77264	91.346
2.77116	91.5512
2.76968	91.6345
2.7682	91.5728
2.76672	91.4905
2.76524	91.3808
2.76377	91.2545
2.7623	91.2518
2.76083	91.4862
2.75936	91.5985
2.75789	91.6796
2.75642	91.8515
2.75496	91.9075
2.7535	91.8267
2.75203	91.7215
2.75057	91.7695
2.74912	91.7928
2.74766	91.9226
2.7462	91.9306
2.74475	91.8862
2.7433	91.9497
2.74185	92.0499
2.7404	92.1078
2.73895	92.0941
2.7375	92.0248
2.73606	92.0966
2.73462	92.0938
2.73318	92.1075
2.73174	92.1304
2.7303	92.2641
2.72886	92.2901
2.72742	92.4274
2.72599	92.6417
2.72456	92.7232
2.72313	92.5178
2.7217	92.4319
2.72027	92.6209
2.71884	92.5655
2.71742	92.492
2.71599	92.5513
2.71457	92.6535
2.71315	92.713
2.71173	92.711
2.71032	92.6552
2.7089	92.5338
2.70748	92.5016
2.70607	92.4331
2.70466	92.491
2.70325	92.5773
2.70184	92.6356
2.70043	92.7526
2.69903	92.83
2.69762	92.8954
2.69622	93.0978
2.69482	93.3427
2.69342	93.3812
2.69202	93.2684
2.69062	93.2542
2.68923	93.2478
2.68783	93.2605
2.68644	93.2939
2.68505	93.4208
2.68366	93.4535
2.68227	93.45
2.68089	93.4109
2.6795	93.4778
2.67812	93.6272
2.67673	93.7756
2.67535	93.6541
2.67397	93.4699
2.6726	93.519
2.67122	93.8018
2.66984	93.9377
2.66847	93.7648
2.6671	93.7295
2.66572	93.8405
2.66435	93.7431
2.66299	93.5796
2.66162	93.5439
2.66025	93.4968
2.65889	93.4363
2.65753	93.4347
2.65616	93.5287
2.65481	93.5013
2.65345	93.557
2.65209	93.6179
2.65073	93.5716
2.64938	93.538
2.64803	93.4845
2.64667	93.5696
2.64532	93.6198
2.64397	93.5198
2.64263	93.554
2.64128	93.5416
2.63994	93.3763
2.63859	93.3458
2.63725	93.4897
2.63591	93.5961
2.63457	93.5287
2.63323	93.481
2.6319	93.5483
2.63056	93.5908
2.62923	93.5238
2.62789	93.535
2.62656	93.6284
2.62523	93.6164
2.6239	93.4403
2.62258	93.3581
2.62125	93.554
2.61993	93.7268
2.6186	93.6691
2.61728	93.7389
2.61596	93.643
2.61464	93.5309
2.61332	93.5176
2.61201	93.4713
2.61069	93.4834
2.60938	93.4904
2.60807	93.4569
2.60675	93.5419
2.60544	93.6259
2.60414	93.5438
2.60283	93.4962
2.60152	93.5438
2.60022	93.6887
2.59891	93.618
2.59761	93.4414
2.59631	93.5864
2.59501	93.9356
2.59371	93.862
2.59242	93.5794
2.59112	93.4718
2.58983	93.4873
2.58853	93.5846
2.58724	93.6121
2.58595	93.589
2.58466	93.4979
2.58338	93.4391
2.58209	93.4998
2.5808	93.5467
2.57952	93.5188
2.57824	93.5733
2.57695	93.6775
2.57567	93.6408
2.5744	93.5685
2.57312	93.5099
2.57184	93.4281
2.57057	93.4951
2.56929	93.5239
2.56802	93.3912
2.56675	93.3988
2.56548	93.5746
2.56421	93.764
2.56294	93.77
2.56168	93.5042
2.56041	93.3689
2.55915	93.4478
2.55789	93.4502
2.55662	93.4315
2.55536	93.3507
2.5541	93.3264
2.55285	93.3383
2.55159	93.4427
2.55034	93.5309
2.54908	93.5244
2.54783	93.5023
2.54658	93.4899
2.54533	93.5013
2.54408	93.445
2.54283	93.3346
2.54159	93.3409
2.54034	93.4232
2.5391	93.4693
2.53785	93.5247
2.53661	93.4683
2.53537	93.3909
2.53413	93.3884
2.53289	93.4436
2.53166	93.4901
2.53042	93.3931
2.52919	93.4013
2.52795	93.4759
2.52672	93.4957
2.52549	93.4563
2.52426	93.2496
2.52303	93.2251
2.52181	93.2987
2.52058	93.3731
2.51936	93.3392
2.51813	93.232
2.51691	93.3121
2.51569	93.45
2.51447	93.4285
2.51325	93.3606
2.51203	93.3573
2.51082	93.359
2.5096	93.3795
2.50839	93.2976
2.50717	93.3203
2.50596	93.3922
2.50475	93.3479
2.50354	93.3885
2.50233	93.4193
2.50113	93.401
2.49992	93.4212
2.49872	93.3966
2.49751	93.3598
2.49631	93.4294
2.49511	93.4806
2.49391	93.3506
2.49271	93.1897
2.49151	93.1834
2.49031	93.2594
2.48912	93.2129
2.48792	93.182
2.48673	93.2867
2.48554	93.4064
2.48435	93.3078
2.48316	93.2133
2.48197	93.2718
2.48078	93.2948
2.4796	93.2475
2.47841	93.3008
2.47723	93.3938
2.47604	93.4125
2.47486	93.3668
2.47368	93.2223
2.4725	93.2128
2.47132	93.2474
2.47014	93.2759
2.46897	93.2644
2.46779	93.3425
2.46662	93.3646
2.46545	93.2265
2.46427	93.2001
2.4631	93.3082
2.46193	93.3594
2.46077	93.2505
2.4596	93.239
2.45843	93.3097
2.45727	93.3058
2.4561	93.3499
2.45494	93.3154
2.45378	93.1486
2.45262	93.0903
2.45146	93.1648
2.4503	93.2179
2.44914	93.3014
2.44799	93.2219
2.44683	93.2283
2.44568	93.3395
2.44452	93.3003
2.44337	93.2416
2.44222	93.2301
2.44107	93.2687
2.43992	93.271
2.43877	93.3081
2.43763	93.2782
2.43648	93.2207
2.43534	93.2739
2.43419	93.1829
2.43305	93.2089
2.43191	93.1837
2.43077	93.1753
2.42963	93.2568
2.42849	93.274
2.42736	93.3118
2.42622	93.4068
2.42509	93.3396
2.42395	93.2066
2.42282	93.1468
2.42169	93.2459
2.42056	93.4408
2.41943	93.3971
2.4183	93.1565
2.41717	93.1246
2.41605	93.2197
2.41492	93.1434
2.4138	93.1063
2.41267	93.2078
2.41155	93.2422
2.41043	93.0914
2.40931	93.0521
2.40819	93.1929
2.40707	93.3197
2.40595	93.3925
2.40484	93.3576
2.40372	93.2765
2.40261	93.3315
2.4015	93.3249
2.40039	93.2434
2.39928	93.1715
2.39817	93.1894
2.39706	93.2683
2.39595	93.4026
2.39484	93.413
2.39374	93.1664
2.39263	93.1027
2.39153	93.1059
2.39043	93.0869
2.38932	93.0934
2.38822	93.2082
2.38712	93.2872
2.38603	93.259
2.38493	93.3178
2.38383	93.3635
2.38274	93.2218
2.38164	93.0501
2.38055	93.1641
2.37946	93.2827
2.37836	93.2688
2.37727	93.2942
2.37618	93.2597
2.3751	93.0772
2.37401	92.9883
2.37292	93.0923
2.37184	93.2959
2.37075	93.3359
2.36967	93.1778
2.36859	93.169
2.3675	93.2601
2.36642	93.1993
2.36534	93.1356
2.36427	93.1068
2.36319	93.1297
2.36211	93.152
2.36104	93.146
2.35996	93.2031
2.35889	93.2845
2.35781	93.1937
2.35674	93.0054
2.35567	93.0438
2.3546	93.11
2.35353	93.0726
2.35247	93.0095
2.3514	93.068
2.35033	93.0373
2.34927	92.9802
2.3482	93.1538
2.34714	93.2792
2.34608	93.1127
2.34502	93.0413
2.34396	93.1305
2.3429	93.1944
2.34184	93.1778
2.34078	93.1135
2.33973	93.1161
2.33867	93.0869
2.33762	93.0418
2.33656	93.0575
2.33551	93.1125
2.33446	93.1607
2.33341	93.1052
2.33236	93.0901
2.33131	93.0374
2.33026	92.9742
2.32922	92.928
2.32817	93.0325
2.32712	93.1872
2.32608	93.2367
2.32504	93.1259
2.324	93.0622
2.32295	93.1964
2.32191	93.2269
2.32087	93.097
2.31984	92.9285
2.3188	93.0159
2.31776	93.1276
2.31673	92.9719
2.31569	92.9411
2.31466	93.0871
2.31362	93.1056
2.31259	93.1584
2.31156	93.2921
2.31053	93.2756
2.3095	93.0125
2.30847	92.9172
2.30745	93.1208
2.30642	93.2449
2.3054	93.078
2.30437	92.9965
2.30335	93.084
2.30232	92.9542
2.3013	92.9472
2.30028	93.0724
2.29926	93.0239
2.29824	93.0013
2.29722	93.0838
2.29621	93.1491
2.29519	93.1983
2.29417	93.1972
2.29316	93.1277
2.29215	93.0703
2.29113	93.0541
2.29012	93.0016
2.28911	93.0382
2.2881	92.9761
2.28709	92.9745
2.28608	92.9877
2.28507	92.9264
2.28407	92.939
2.28306	93.0199
2.28206	93.1149
2.28105	92.895
2.28005	92.5843
2.27905	92.7281
2.27805	93.0154
2.27705	93.1539
2.27605	93.2417
2.27505	93.1164
2.27405	92.965
2.27305	93.061
2.27206	93.1736
2.27106	93.053
2.27007	93.0938
2.26907	93.2277
2.26808	93.0988
2.26709	92.858
2.2661	92.9297
2.26511	92.9848
2.26412	92.9977
2.26313	93.0435
2.26214	93.0014
2.26116	92.9755
2.26017	93.1023
2.25919	93.1741
2.2582	93.1375
2.25722	93.1431
2.25624	93.1998
2.25526	93.1792
2.25428	92.9875
2.2533	92.8097
2.25232	92.9351
2.25134	93.0514
2.25036	93.1463
2.24939	93.0661
2.24841	92.9551
2.24744	92.9364
2.24646	92.915
2.24549	92.9176
2.24452	92.9624
2.24355	93.084
2.24257	93.1409
2.24161	93.0374
2.24064	93.0193
2.23967	93.1514
2.2387	93.1776
2.23774	92.9871
2.23677	92.8165
2.23581	92.848
2.23484	92.857
2.23388	92.9192
2.23292	92.9072
2.23196	92.7865
2.231	92.9089
2.23004	93.1381
2.22908	93.15
2.22812	93.0196
2.22716	93.0133
2.22621	93.1462
2.22525	93.0699
2.2243	92.8952
2.22334	92.8674
2.22239	92.8968
2.22144	92.9979
2.22049	93.0602
2.21953	93.0844
2.21859	93.0512
2.21764	93.0187
2.21669	92.9208
2.21574	92.7741
2.21479	92.8862
2.21385	92.9979
2.2129	93.0028
2.21196	92.8884
2.21102	92.8594
2.21007	92.9004
2.20913	92.8887
2.20819	92.8851
2.20725	92.9055
2.20631	92.9623
2.20537	92.9833
2.20444	93.0562
2.2035	92.9785
2.20256	92.8545
2.20163	92.7501
2.20069	92.8604
2.19976	92.9941
2.19883	92.8886
2.19789	92.8356
2.19696	92.8423
2.19603	92.8913
2.1951	93.0549
2.19417	93.0933
2.19325	92.9182
2.19232	92.9633
2.19139	93.043
2.19047	92.8533
2.18954	92.7783
2.18862	92.7291
2.18769	92.6957
2.18677	92.7652
2.18585	92.8574
2.18493	92.9361
2.18401	92.9935
2.18309	92.9928
2.18217	93.0148
2.18125	92.885
2.18033	92.8121
2.17942	92.9232
2.1785	92.922
2.17759	92.9034
2.17667	92.8919
2.17576	92.8751
2.17485	92.8049
2.17393	92.6265
2.17302	92.7206
2.17211	92.8833
2.1712	92.7911
2.17029	92.7673
2.16939	92.7611
2.16848	92.7374
2.16757	92.8689
2.16667	92.9216
2.16576	92.9215
2.16486	92.87
2.16395	92.7444
2.16305	92.7893
2.16215	92.9242
2.16125	92.9091
2.16035	92.8003
2.15945	92.8243
2.15855	92.8613
2.15765	92.8197
2.15675	92.8515
2.15586	92.7867
2.15496	92.6635
2.15406	92.6763
2.15317	92.9271
2.15228	92.9866
2.15138	92.9134
2.15049	92.8864
2.1496	92.8784
2.14871	92.9741
2.14782	92.8903
2.14693	92.5711
2.14604	92.5604
2.14515	92.6591
2.14427	92.8548
2.14338	93.1252
2.14249	92.9496
2.14161	92.6772
2.14072	92.8431
2.13984	92.8636
2.13896	92.6781
2.13808	92.7165
2.13719	92.8286
2.13631	92.7893
2.13543	92.5977
2.13455	92.5902
2.13368	92.8057
2.1328	92.9128
2.13192	92.879
2.13105	92.7279
2.13017	92.7265
2.1293	92.8514
2.12842	92.9156
2.12755	92.9852
2.12668	92.8362
2.1258	92.7512
2.12493	92.8497
2.12406	92.8607
2.12319	92.846
2.12232	92.8068
2.12145	92.6666
2.12059	92.7474
2.11972	92.7777
2.11885	92.7578
2.11799	92.7949
2.11712	92.6663
2.11626	92.6305
2.1154	92.7565
2.11453	92.7077
2.11367	92.4482
2.11281	92.4552
2.11195	92.7537
2.11109	93.005
2.11023	92.877
2.10937	92.7198
2.10851	92.7456
2.10766	92.4367
2.1068	92.4501
2.10594	92.8453
2.10509	92.7993
2.10423	92.7483
2.10338	92.7395
2.10253	92.6668
2.10168	92.6855
2.10082	92.9596
2.09997	92.9081
2.09912	92.778
2.09827	92.8018
2.09742	92.8069
2.09658	92.7595
2.09573	92.7534
2.09488	92.7394
2.09404	92.6219
2.09319	92.7075
2.09235	92.8003
2.0915	92.7231
2.09066	92.7778
2.08982	92.6964
2.08897	92.7024
2.08813	92.7531
2.08729	92.5928
2.08645	92.5756
2.08561	92.7131
2.08477	92.7322
2.08394	92.7132
2.0831	92.6044
2.08226	92.6276
2.08143	92.7407
2.08059	92.6989
2.07976	92.5602
2.07892	92.4728
2.07809	92.6409
2.07726	92.97
2.07643	92.8957
2.07559	92.6713
2.07476	92.7199
2.07393	92.6651
2.0731	92.6604
2.07228	92.6755
2.07145	92.6282
2.07062	92.5731
2.06979	92.6903
2.06897	92.8355
2.06814	92.8795
2.06732	92.7889
2.06649	92.856
2.06567	92.8945
2.06485	92.7232
2.06403	92.4686
2.0632	92.4082
2.06238	92.5881
2.06156	92.8387
2.06074	92.7233
2.05993	92.6749
2.05911	92.6297
2.05829	92.6301
2.05747	92.6734
2.05666	92.4948
2.05584	92.3628
2.05503	92.5754
2.05421	92.7155
2.0534	92.7774
2.05259	92.682
2.05177	92.5263
2.05096	92.559
2.05015	92.6136
2.04934	92.7106
2.04853	92.7758
2.04772	92.6451
2.04691	92.5118
2.04611	92.7187
2.0453	92.8805
2.04449	92.5815
2.04369	92.4109
2.04288	92.5082
2.04208	92.6298
2.04127	92.6082
2.04047	92.5408
2.03967	92.5701
2.03886	92.7382
2.03806	92.5969
2.03726	92.421
2.03646	92.5757
2.03566	92.8152
2.03486	92.7958
2.03407	92.5789
2.03327	92.2982
2.03247	92.5457
2.03167	92.7537
2.03088	92.4935
2.03008	92.1432
2.02929	92.1872
2.0285	92.5412
2.0277	92.7426
2.02691	92.8172
2.02612	92.7389
2.02533	92.6529
2.02453	92.6244
2.02374	92.5785
2.02295	92.7439
2.02217	92.838
2.02138	92.5582
2.02059	92.4151
2.0198	92.666
2.01902	92.65
2.01823	92.6239
2.01744	92.8073
2.01666	92.8255
2.01588	92.6639
2.01509	92.5378
2.01431	92.4469
2.01353	92.556
2.01275	92.7835
2.01196	92.6914
2.01118	92.5982
2.0104	92.7215
2.00963	92.7726
2.00885	92.6711
2.00807	92.5784
2.00729	92.6322
2.00651	92.6364
2.00574	92.6385
2.00496	92.6006
2.00419	92.3617
2.00341	92.4531
2.00264	92.6657
2.00187	92.4378
2.00109	92.1079
2.00032	91.962
