Name: Quartz SiO_2
Type: Mineral
Class: Silicates
Subclass: Tectosilicates
Particle Size: 0-45um
Sample No.: TS-1E
Owner: JPL
Wavelength range: IR
Origin: 
Collected by JPL
Description:  Crysoprase 





Measurement: Hemispherical reflectance
First Column: X
Second Column: Y
X Units:  Wavelength (micrometers)
Y Units:  Reflectance (percent)
First X Value: 15.3853
Last X Value: 2.00032
Number of X Values: 2256
Additional information: ts01ea.txt
 
15.3853	12.6169
15.3397	12.6709
15.2945	12.5369
15.2495	12.3213
15.2048	12.1343
15.1603	12.0048
15.1161	11.8896
15.0722	11.8561
15.0285	11.5077
14.9851	11.0108
14.9419	10.7552
14.8989	10.4563
14.8563	10.0347
14.8138	9.84767
14.7716	9.7212
14.7296	9.57083
14.6879	8.9545
14.6464	8.13623
14.6052	7.41282
14.5641	6.68465
14.5233	5.86688
14.4828	4.90514
14.4424	3.99718
14.4023	3.32817
14.3624	2.8599
14.3227	2.79143
14.2833	3.33844
14.244	4.25422
14.205	5.22211
14.1662	6.14507
14.1276	7.03565
14.0892	7.72683
14.051	8.45094
14.0131	9.22403
13.9753	9.70916
13.9377	10.1549
13.9004	10.586
13.8632	11.0402
13.8262	11.4311
13.7895	11.5854
13.7529	11.7165
13.7165	11.8516
13.6803	11.8581
13.6443	11.7774
13.6085	11.6166
13.5729	11.5481
13.5374	11.6515
13.5022	11.702
13.4671	11.7069
13.4322	11.7617
13.3975	11.5577
13.363	11.2875
13.3286	10.9633
13.2944	10.6312
13.2604	10.1307
13.2266	9.6318
13.193	9.16915
13.1595	8.897
13.1262	8.43055
13.093	7.68116
13.06	6.88075
13.0272	6.2786
12.9946	5.87859
12.9621	5.63752
12.9298	5.61602
12.8976	5.43435
12.8656	5.25974
12.8337	5.37009
12.8021	5.40936
12.7705	5.24465
12.7391	4.9568
12.7079	4.66285
12.6769	4.20183
12.6459	3.86995
12.6152	3.9214
12.5845	4.0704
12.5541	4.12205
12.5238	4.03922
12.4936	3.90606
12.4635	3.82285
12.4337	3.57854
12.4039	2.92528
12.3743	2.079
12.3448	1.49249
12.3155	1.1667
12.2863	1.11734
12.2573	1.41156
12.2284	1.92958
12.1996	2.40932
12.171	2.84126
12.1425	3.35396
12.1141	4.14227
12.0859	4.94829
12.0578	5.66341
12.0298	6.298
12.0019	6.85086
11.9742	7.40629
11.9466	8.00344
11.9192	8.50591
11.8918	9.19921
11.8646	9.85687
11.8375	10.3558
11.8106	10.8485
11.7837	11.2893
11.757	11.6855
11.7304	11.9821
11.7039	12.2061
11.6776	12.4311
11.6513	12.647
11.6252	12.8032
11.5992	12.892
11.5733	12.9696
11.5475	13.0999
11.5219	13.2297
11.4963	13.3559
11.4709	13.4509
11.4455	13.566
11.4203	13.7695
11.3952	13.8886
11.3702	14.0668
11.3454	14.1702
11.3206	14.149
11.2959	14.006
11.2714	13.8971
11.2469	13.8931
11.2226	13.7973
11.1983	13.7497
11.1742	13.8432
11.1502	13.9096
11.1263	13.8313
11.1024	13.7712
11.0787	13.8582
11.0551	13.9687
11.0316	13.9133
11.0081	13.8548
10.9848	13.884
10.9616	13.905
10.9385	13.8968
10.9154	13.8901
10.8925	13.9207
10.8697	13.8413
10.8469	13.6537
10.8243	13.6376
10.8017	13.6459
10.7793	13.531
10.7569	13.526
10.7346	13.5179
10.7125	13.3448
10.6904	13.2812
10.6684	13.2049
10.6465	13.0241
10.6247	12.9203
10.6029	12.9819
10.5813	12.9161
10.5597	12.771
10.5383	12.7341
10.5169	12.7218
10.4956	12.6451
10.4744	12.5661
10.4533	12.424
10.4323	12.2088
10.4113	12.0958
10.3904	11.9091
10.3697	11.7224
10.349	11.5683
10.3284	11.433
10.3078	11.1859
10.2874	11.0304
10.267	11.0025
10.2467	10.8803
10.2265	10.7314
10.2064	10.6655
10.1863	10.511
10.1663	10.4288
10.1464	10.2258
10.1266	10.0401
10.1069	9.98495
10.0872	9.81188
10.0676	9.59294
10.0481	9.44177
10.0287	9.31242
10.0093	9.12991
9.99005	9.02773
9.97084	9.04735
9.95169	9.04591
9.93263	9.04335
9.91364	8.99195
9.89472	8.91795
9.87587	8.91757
9.8571	8.75448
9.83839	8.63461
9.81976	8.72077
9.80119	8.64403
9.78271	8.54325
9.76428	8.52418
9.74592	8.46101
9.72764	8.34412
9.70943	8.23801
9.69128	8.27129
9.6732	8.22068
9.65518	8.02022
9.63724	7.92829
9.61935	7.8201
9.60155	7.78092
9.5838	7.93512
9.56611	8.18349
9.5485	8.37919
9.53094	8.57923
9.51345	8.8054
9.49604	9.0617
9.47867	9.40618
9.46137	9.8457
9.44414	10.3427
9.42697	10.9859
9.40986	11.7826
9.39281	12.8334
9.37583	13.8858
9.35891	14.9243
9.34204	15.8771
9.32524	16.4393
9.3085	16.7823
9.29182	16.8938
9.27519	16.9482
9.25863	16.9502
9.24213	16.8553
9.22568	16.7138
9.2093	16.4768
9.19297	16.3341
9.17669	16.2174
9.16048	16.1729
9.14433	16.2581
9.12823	16.1402
9.11218	15.9322
9.0962	15.8221
9.08027	15.8427
9.06439	15.7796
9.04858	15.776
9.03281	15.6408
9.0171	15.5183
9.00145	15.456
8.98585	15.4234
8.9703	15.4151
8.9548	15.3646
8.93937	15.2435
8.92398	14.9931
8.90865	14.8821
8.89337	14.8688
8.87814	14.7001
8.86296	14.4335
8.84784	14.268
8.83277	14.0988
8.81774	13.9539
8.80277	13.7458
8.78786	13.612
8.77298	13.4793
8.75816	13.2746
8.7434	13.0667
8.72868	12.8075
8.714	12.5653
8.69938	12.3461
8.68481	11.9546
8.67029	11.3641
8.65581	10.5965
8.64139	9.68022
8.62701	9.31849
8.61268	9.80624
8.5984	10.6407
8.58416	11.4245
8.56997	12.04
8.55583	12.3782
8.54174	12.5607
8.52769	12.7039
8.51368	12.8551
8.49973	13.0715
8.48582	13.1644
8.47195	13.1362
8.45813	13.2135
8.44436	13.2326
8.43062	13.2821
8.41693	13.4664
8.4033	13.3864
8.3897	13.4556
8.37614	13.6581
8.36264	13.7762
8.34917	13.9068
8.33574	14.2114
8.32236	14.5662
8.30903	14.8194
8.29573	15.088
8.28248	15.4034
8.26927	15.8905
8.2561	16.4302
8.24298	16.9051
8.2299	17.311
8.21685	17.7429
8.20385	18.1207
8.19089	18.3592
8.17797	18.5003
8.16509	18.4248
8.15225	18.0489
8.13946	17.5459
8.1267	16.9078
8.11398	16.1349
8.10131	15.3678
8.08867	14.6159
8.07606	13.821
8.0635	13.2368
8.05099	12.6743
8.0385	12.047
8.02606	11.4542
8.01366	10.8609
8.00129	10.3146
7.98896	9.83463
7.97667	9.34692
7.96442	8.8232
7.9522	8.34916
7.94002	7.79032
7.92788	7.17285
7.91578	6.66304
7.90371	6.1521
7.89168	5.66049
7.87969	5.29092
7.86773	4.95944
7.85581	4.66428
7.84392	4.29979
7.83207	3.97667
7.82026	3.74383
7.80849	3.65151
7.79674	3.4958
7.78503	3.24244
7.77337	3.07709
7.76173	2.98962
7.75012	2.8336
7.73856	2.72128
7.72703	2.54072
7.71553	2.30613
7.70406	2.24588
7.69263	2.21157
7.68123	2.07844
7.66987	1.90512
7.65855	1.76187
7.64725	1.69027
7.63598	1.5915
7.62475	1.47118
7.61356	1.35517
7.60239	1.16989
7.59126	0.973561
7.58017	0.975044
7.5691	0.98565
7.55806	0.95101
7.54707	0.888233
7.5361	0.873041
7.52516	0.867147
7.51425	0.721415
7.50338	0.647973
7.49253	0.624766
7.48172	0.583881
7.47094	0.588584
7.46019	0.571385
7.44947	0.664396
7.43879	0.669245
7.42813	0.512957
7.4175	0.456264
7.4069	0.584381
7.39634	0.669108
7.3858	0.672025
7.37529	0.588562
7.36482	0.537432
7.35437	0.54153
7.34396	0.56073
7.33357	0.643507
7.32321	0.737095
7.31288	0.702706
7.30258	0.699017
7.29231	0.782848
7.28207	0.796159
7.27185	0.763209
7.26167	0.755576
7.25152	0.87395
7.24139	1.01325
7.23129	1.1224
7.22122	1.20377
7.21117	1.32499
7.20116	1.38999
7.19117	1.37921
7.18121	1.4179
7.17128	1.52157
7.16137	1.68302
7.1515	1.79684
7.14164	1.9624
7.13182	1.99004
7.12203	2.01302
7.11225	2.11022
7.10251	2.21266
7.0928	2.29427
7.08311	2.42472
7.07344	2.5275
7.06381	2.60535
7.0542	2.74836
7.04461	2.85526
7.03506	2.93679
7.02552	3.03224
7.01601	3.19939
7.00653	3.42454
6.99708	3.51918
6.98765	3.51646
6.97824	3.66775
6.96886	3.9349
6.95951	4.17655
6.95018	4.36247
6.94087	4.45552
6.9316	4.5067
6.92234	4.57307
6.91311	4.73328
6.90391	4.84487
6.89473	4.95859
6.88557	5.01987
6.87644	5.01173
6.86733	5.15721
6.85824	5.27808
6.84918	5.17807
6.84015	5.16245
6.83114	5.24999
6.82215	5.18952
6.81319	5.18035
6.80424	5.24196
6.79532	5.30565
6.78643	5.2748
6.77756	5.16478
6.76871	5.14308
6.75989	5.04959
6.75109	4.96134
6.74231	4.81203
6.73355	4.7192
6.72482	4.82848
6.71611	4.90246
6.70742	4.88751
6.69875	4.82589
6.69011	4.91561
6.68149	5.15354
6.67289	5.32376
6.66431	5.48832
6.65576	5.62485
6.64722	5.8637
6.63871	6.05213
6.63022	5.98811
6.62175	5.86316
6.61331	5.82417
6.60488	5.79595
6.59648	5.76405
6.5881	5.77671
6.57974	5.77993
6.5714	5.73449
6.56308	5.64308
6.55478	5.64938
6.54651	5.73812
6.53825	5.89373
6.53001	6.22188
6.5218	6.77455
6.51361	7.3706
6.50544	8.14333
6.49729	9.08243
6.48915	9.83365
6.48104	10.3086
6.47295	10.8192
6.46488	11.2704
6.45683	11.6218
6.4488	11.8957
6.44079	12.1981
6.4328	12.5079
6.42482	12.7453
6.41687	13.1394
6.40894	12.9776
6.40103	12.4676
6.39314	12.1883
6.38526	11.8833
6.37741	11.5358
6.36957	11.1334
6.36176	10.6105
6.35396	10.2924
6.34618	10.1276
6.33843	9.68452
6.33069	9.08853
6.32297	8.6486
6.31527	8.2823
6.30758	7.91299
6.29992	7.50143
6.29227	7.13214
6.28465	6.84165
6.27704	6.53826
6.26945	6.19237
6.26188	5.92738
6.25432	5.69417
6.24679	5.40279
6.23927	5.12865
6.23177	5.05658
6.22429	4.99127
6.21683	4.86007
6.20938	4.85139
6.20195	4.885
6.19454	5.06922
6.18715	5.32311
6.17978	5.48901
6.17242	5.77895
6.16508	6.26008
6.15776	6.76746
6.15045	7.22536
6.14317	7.81047
6.1359	8.29998
6.12864	8.78395
6.12141	9.53578
6.11419	10.2109
6.10699	10.5918
6.0998	10.9357
6.09263	11.2869
6.08549	11.6881
6.07835	12.2046
6.07123	12.4731
6.06413	12.4945
6.05705	12.7426
6.04998	13.1518
6.04293	12.9684
6.0359	12.7193
6.02888	12.6952
6.02187	12.6911
6.01489	12.6829
6.00792	12.5198
6.00096	12.2832
5.99403	12.0369
5.98711	11.6931
5.9802	11.3429
5.97331	11.0251
5.96644	10.6846
5.95958	10.2613
5.95274	9.96309
5.94591	9.94284
5.9391	10.1321
5.9323	10.0478
5.92552	10.0497
5.91876	10.3844
5.91201	10.9024
5.90528	11.4994
5.89856	12.1641
5.89186	12.669
5.88517	13.2479
5.8785	13.9252
5.87184	14.3795
5.8652	15.0392
5.85857	15.6005
5.85196	16.0405
5.84536	16.5384
5.83878	17.1999
5.83221	17.8436
5.82566	18.6169
5.81912	19.1805
5.81259	19.3228
5.80608	19.6776
5.79959	20.2576
5.79311	20.7906
5.78665	21.3906
5.78019	21.7885
5.77376	22.358
5.76734	23.1011
5.76093	23.2738
5.75453	23.3537
5.74815	23.7429
5.74179	23.972
5.73543	24.242
5.7291	24.5623
5.72277	24.8414
5.71646	25.0311
5.71017	25.0895
5.70389	24.8752
5.69762	24.6217
5.69136	24.2913
5.68513	23.8145
5.6789	23.1997
5.67268	22.3098
5.66648	21.2703
5.6603	20.3896
5.65413	19.4135
5.64797	18.3653
5.64182	17.4202
5.63569	16.3186
5.62957	15.4329
5.62347	14.7975
5.61737	14.3482
5.61129	13.9611
5.60522	13.617
5.59917	13.3678
5.59313	13.1629
5.5871	13.1139
5.58109	13.1846
5.57509	13.181
5.5691	13.163
5.56312	13.2237
5.55716	13.4575
5.55121	13.7466
5.54528	13.9816
5.53935	14.3525
5.53344	14.7098
5.52754	15.1604
5.52166	15.7318
5.51578	16.216
5.50992	16.7482
5.50407	17.3828
5.49823	17.8695
5.49241	18.3932
5.4866	18.8754
5.4808	19.3441
5.47501	19.7186
5.46923	20.1077
5.46347	20.4283
5.45772	20.478
5.45198	20.3694
5.44625	20.1936
5.44054	19.8464
5.43484	19.2861
5.42914	18.6159
5.42347	17.8516
5.4178	16.7941
5.41214	15.6551
5.4065	14.4267
5.40087	13.2535
5.39525	12.1695
5.38964	11.0179
5.38404	9.99086
5.37846	9.22701
5.37288	8.65448
5.36732	8.13718
5.36177	7.70788
5.35623	7.47803
5.35071	7.28733
5.34519	7.17538
5.33968	7.26182
5.33419	7.32561
5.32871	7.31127
5.32324	7.41058
5.31778	7.59296
5.31233	7.73935
5.30689	7.92927
5.30147	8.1798
5.29605	8.37913
5.29065	8.66335
5.28525	9.0771
5.27987	9.44773
5.2745	9.87011
5.26914	10.4062
5.26379	11.0497
5.25845	11.7296
5.25312	12.4752
5.24781	13.3532
5.2425	14.2864
5.23721	15.3656
5.23192	16.4469
5.22665	17.5577
5.22138	18.5858
5.21613	19.4873
5.21089	20.1769
5.20566	20.6137
5.20044	20.9795
5.19522	21.1745
5.19002	21.1446
5.18483	21.091
5.17965	21.0377
5.17448	20.9844
5.16933	20.9278
5.16418	20.8059
5.15904	20.6727
5.15391	20.6349
5.14879	20.5232
5.14368	20.317
5.13859	20.1868
5.1335	20.0953
5.12842	20.0674
5.12335	20.0493
5.1183	20.0297
5.11325	20.0535
5.10821	19.9707
5.10318	19.7919
5.09817	19.5057
5.09316	19.1505
5.08816	18.7907
5.08317	18.4345
5.07819	18.0373
5.07322	17.7205
5.06826	17.5445
5.06331	17.4016
5.05837	17.3041
5.05344	17.2503
5.04852	17.2157
5.04361	17.2009
5.03871	17.1724
5.03382	17.1277
5.02894	17.0307
5.02406	16.994
5.0192	16.974
5.01435	16.9421
5.0095	17.0299
5.00467	17.1601
4.99984	17.3106
4.99502	17.5475
4.99021	17.8456
4.98542	18.2974
4.98063	18.9292
4.97585	19.6732
4.97108	20.5259
4.96632	21.4423
4.96156	22.3576
4.95682	23.2597
4.95209	23.9798
4.94736	24.5427
4.94264	25.0209
4.93794	25.4125
4.93324	25.8589
4.92855	26.3933
4.92387	27.0839
4.9192	28.0483
4.91453	29.2617
4.90988	30.6969
4.90524	32.3505
4.9006	34.1353
4.89597	35.9337
4.89135	37.6872
4.88674	39.3522
4.88214	40.811
4.87755	42.0733
4.87296	43.2591
4.86839	44.3728
4.86382	45.3063
4.85926	46.1386
4.85471	46.9716
4.85017	47.7047
4.84564	48.318
4.84111	48.866
4.8366	49.4399
4.83209	49.9871
4.82759	50.4323
4.8231	50.8713
4.81862	51.3096
4.81415	51.7326
4.80968	52.076
4.80522	52.4039
4.80077	52.734
4.79633	53.0344
4.7919	53.4202
4.78747	53.7777
4.78306	54.024
4.77865	54.2076
4.77425	54.4924
4.76986	54.7207
4.76547	54.9197
4.7611	55.1551
4.75673	55.3327
4.75237	55.4887
4.74802	55.6235
4.74367	55.7077
4.73934	55.8313
4.73501	55.9982
4.73069	56.0602
4.72638	56.0423
4.72207	55.9433
4.71777	55.8569
4.71348	55.8165
4.7092	55.671
4.70493	55.391
4.70066	54.9881
4.69641	54.554
4.69216	54.1454
4.68791	53.8115
4.68368	53.6422
4.67945	53.722
4.67523	54.0149
4.67102	54.4031
4.66682	54.8774
4.66262	55.3671
4.65843	55.846
4.65425	56.3065
4.65007	56.7492
4.64591	57.178
4.64175	57.5882
4.6376	57.9842
4.63345	58.3853
4.62932	58.7359
4.62519	58.9081
4.62106	59.1256
4.61695	59.3429
4.61284	59.5312
4.60874	59.6952
4.60465	59.8518
4.60056	59.918
4.59648	60.003
4.59241	60.1392
4.58835	60.2724
4.58429	60.3464
4.58024	60.3282
4.5762	60.2287
4.57216	60.222
4.56814	60.2165
4.56411	60.1499
4.5601	60.0182
4.55609	59.843
4.55209	59.6635
4.5481	59.4529
4.54411	59.1846
4.54013	58.871
4.53616	58.4574
4.5322	57.9846
4.52824	57.4863
4.52429	57.0109
4.52034	56.498
4.51641	55.9779
4.51247	55.373
4.50855	54.7075
4.50463	54.057
4.50072	53.4866
4.49682	53.07
4.49292	52.7406
4.48903	52.5074
4.48515	52.3529
4.48127	52.1535
4.4774	51.9211
4.47354	51.7713
4.46968	51.7184
4.46584	51.6458
4.46199	51.7959
4.45815	52.1403
4.45432	52.459
4.4505	52.7752
4.44668	53.0641
4.44287	53.3054
4.43907	53.5574
4.43527	53.7506
4.43148	53.9233
4.4277	54.1781
4.42392	54.52
4.42015	54.7364
4.41638	54.9592
4.41262	55.2989
4.40887	55.6234
4.40513	55.9296
4.40139	56.2729
4.39765	56.5538
4.39393	56.9084
4.39021	57.278
4.38649	57.6788
4.38278	58.0981
4.37908	58.4595
4.37539	58.7535
4.3717	59.0812
4.36801	59.4313
4.36434	59.7606
4.36067	60.0436
4.357	60.3051
4.35335	60.5874
4.34969	60.8402
4.34605	61.0535
4.34241	61.3061
4.33877	61.5263
4.33514	61.5647
4.33152	61.5486
4.32791	61.5927
4.3243	61.7155
4.32069	61.7298
4.3171	61.6578
4.31351	61.6238
4.30992	61.6226
4.30634	61.59
4.30277	61.5492
4.2992	61.5285
4.29564	61.5033
4.29208	61.4599
4.28853	61.4004
4.28499	61.42
4.28145	61.4279
4.27792	61.2972
4.27439	61.3296
4.27087	61.6296
4.26735	61.9991
4.26384	62.3745
4.26034	62.6399
4.25684	62.7983
4.25335	62.7933
4.24986	62.6857
4.24638	62.5938
4.24291	62.5945
4.23944	62.5924
4.23598	62.538
4.23252	62.4627
4.22906	62.5073
4.22562	62.6456
4.22218	62.7472
4.21874	62.9166
4.21531	62.9519
4.21189	62.9463
4.20847	63.0311
4.20506	63.1403
4.20165	63.1287
4.19825	63.1485
4.19485	63.2708
4.19146	63.373
4.18807	63.4489
4.18469	63.5539
4.18132	63.5855
4.17795	63.655
4.17458	63.7983
4.17123	63.9484
4.16787	64.099
4.16453	64.1881
4.16118	64.2897
4.15785	64.393
4.15451	64.463
4.15119	64.5348
4.14787	64.6401
4.14455	64.7117
4.14124	64.8311
4.13794	64.921
4.13464	65.0087
4.13134	65.104
4.12805	65.1843
4.12477	65.27
4.12149	65.3816
4.11822	65.512
4.11495	65.6349
4.11168	65.7842
4.10843	65.9092
4.10517	65.9735
4.10192	66.003
4.09868	66.1392
4.09545	66.2906
4.09221	66.4021
4.08899	66.4509
4.08576	66.4687
4.08255	66.5487
4.07933	66.6474
4.07613	66.7415
4.07292	66.7979
4.06973	66.8461
4.06654	66.8667
4.06335	66.8411
4.06017	66.8732
4.05699	66.9265
4.05382	66.9491
4.05065	67.0468
4.04749	67.0385
4.04433	66.971
4.04118	66.9198
4.03803	66.9748
4.03489	67.0019
4.03175	67.0309
4.02862	67.0528
4.02549	67.0208
4.02237	66.9628
4.01925	66.9635
4.01614	66.9423
4.01303	67.0277
4.00993	67.1251
4.00683	67.0962
4.00373	67.0569
4.00064	67.0844
3.99756	67.0249
3.99448	66.9468
3.9914	67.0135
3.98833	67.1224
3.98527	67.1222
3.98221	67.1807
3.97915	67.2134
3.9761	67.2335
3.97305	67.291
3.97001	67.3453
3.96697	67.3646
3.96394	67.4151
3.96091	67.4917
3.95789	67.5437
3.95487	67.5865
3.95186	67.6534
3.94885	67.6565
3.94584	67.6978
3.94284	67.7022
3.93984	67.7379
3.93685	67.848
3.93386	67.9421
3.93088	67.9557
3.9279	67.9668
3.92493	67.9175
3.92196	67.9049
3.919	67.9217
3.91604	67.913
3.91308	67.8701
3.91013	67.8191
3.90718	67.7507
3.90424	67.7569
3.9013	67.7938
3.89837	67.8118
3.89544	67.7533
3.89252	67.7102
3.8896	67.6282
3.88668	67.5752
3.88377	67.5799
3.88086	67.5136
3.87796	67.436
3.87506	67.422
3.87217	67.4413
3.86928	67.3866
3.86639	67.3114
3.86351	67.2603
3.86064	67.2075
3.85776	67.1757
3.8549	67.1848
3.85203	67.1983
3.84917	67.1621
3.84631	67.1979
3.84346	67.2233
3.84062	67.2255
3.83777	67.1756
3.83494	67.127
3.8321	67.1475
3.82927	67.1301
3.82644	67.1561
3.82362	67.1705
3.82081	67.2052
3.81799	67.1817
3.81518	67.1339
3.81238	67.1754
3.80958	67.2303
3.80678	67.2181
3.80399	67.1867
3.8012	67.1447
3.79841	67.0971
3.79563	67.0762
3.79286	66.9911
3.79008	66.9381
3.78731	66.9287
3.78455	66.9031
3.78179	66.8187
3.77903	66.7069
3.77628	66.6943
3.77353	66.7014
3.77079	66.6435
3.76805	66.5817
3.76531	66.5302
3.76258	66.424
3.75985	66.3172
3.75713	66.2814
3.7544	66.2859
3.75169	66.2813
3.74898	66.2163
3.74627	66.1448
3.74356	66.0952
3.74086	66.0552
3.73816	66.0606
3.73547	66.0528
3.73278	65.9803
3.7301	65.9725
3.72741	66.0666
3.72474	66.037
3.72206	65.9534
3.71939	65.9178
3.71673	65.9168
3.71406	65.9565
3.71141	66.0075
3.70875	66.0257
3.7061	66.0969
3.70345	66.1118
3.70081	66.0008
3.69817	66.0143
3.69553	66.0419
3.6929	66.0488
3.69027	66.0951
3.68765	66.1267
3.68503	66.0825
3.68241	66.0897
3.6798	66.0547
3.67719	65.9957
3.67458	65.9962
3.67198	65.9867
3.66938	65.9668
3.66678	65.9459
3.66419	65.93
3.66161	65.9549
3.65902	65.9347
3.65644	65.8844
3.65387	65.8378
3.65129	65.8325
3.64872	65.7968
3.64616	65.7005
3.64359	65.6419
3.64103	65.6123
3.63848	65.4865
3.63593	65.4865
3.63338	65.5621
3.63084	65.5075
3.6283	65.3668
3.62576	65.2807
3.62322	65.2244
3.62069	65.1662
3.61817	65.0936
3.61564	64.9799
3.61312	64.9657
3.61061	64.9472
3.6081	64.8711
3.60559	64.797
3.60308	64.7669
3.60058	64.6627
3.59808	64.557
3.59558	64.5194
3.59309	64.4522
3.59061	64.3773
3.58812	64.336
3.58564	64.3209
3.58316	64.3072
3.58069	64.2279
3.57822	64.1119
3.57575	64.0064
3.57328	63.9668
3.57082	63.8739
3.56836	63.8536
3.56591	63.8008
3.56346	63.6541
3.56101	63.586
3.55857	63.5839
3.55613	63.5173
3.55369	63.3671
3.55126	63.2708
3.54883	63.2203
3.5464	63.1432
3.54397	63.0104
3.54155	62.8472
3.53914	62.7304
3.53672	62.6717
3.53431	62.5641
3.5319	62.4795
3.5295	62.4214
3.5271	62.3097
3.5247	62.1617
3.52231	61.9808
3.51991	61.7786
3.51753	61.5802
3.51514	61.3239
3.51276	61.0031
3.51038	60.7673
3.50801	60.5431
3.50563	60.2959
3.50327	60.1517
3.5009	60.1165
3.49854	60.136
3.49618	60.1646
3.49382	60.1748
3.49147	60.1749
3.48912	60.1419
3.48677	60.0649
3.48443	59.996
3.48209	59.9149
3.47975	59.83
3.47742	59.7348
3.47509	59.6628
3.47276	59.6133
3.47044	59.5248
3.46812	59.3912
3.4658	59.2967
3.46348	59.1781
3.46117	59.0729
3.45886	58.9599
3.45656	58.7454
3.45425	58.5727
3.45195	58.4414
3.44966	58.3039
3.44736	58.1893
3.44507	58.0658
3.44279	57.8977
3.4405	57.6979
3.43822	57.4191
3.43594	57.1201
3.43367	56.9166
3.43139	56.6821
3.42912	56.3841
3.42686	55.9941
3.42459	55.6096
3.42233	55.4232
3.42007	55.3586
3.41782	55.1854
3.41557	55.0652
3.41332	55.0879
3.41108	55.1251
3.40883	55.1187
3.40659	55.194
3.40435	55.2661
3.40212	55.184
3.39989	55.1294
3.39766	55.1678
3.39544	55.1562
3.39322	55.0665
3.391	54.9197
3.38878	54.7702
3.38657	54.7097
3.38436	54.5872
3.38215	54.4433
3.37994	54.3318
3.37774	54.2353
3.37554	54.1451
3.37335	53.9968
3.37115	53.9098
3.36896	53.963
3.36678	53.9428
3.36459	53.8261
3.36241	53.7402
3.36023	53.5454
3.35805	53.4524
3.35588	53.494
3.35371	53.3427
3.35154	53.087
3.34938	52.9915
3.34721	52.942
3.34505	52.8866
3.3429	52.7905
3.34074	52.6293
3.33859	52.5566
3.33644	52.4826
3.3343	52.2793
3.33215	52.1265
3.33001	52.0088
3.32788	51.9253
3.32574	51.7581
3.32361	51.5845
3.32148	51.4394
3.31936	51.2763
3.31723	51.1449
3.31511	51.0214
3.31299	50.9338
3.31088	50.8498
3.30876	50.7551
3.30665	50.6532
3.30455	50.4881
3.30244	50.3687
3.30034	50.238
3.29824	49.9737
3.29614	49.6994
3.29405	49.6029
3.29196	49.617
3.28987	49.4933
3.28778	49.3344
3.2857	49.1612
3.28362	49.0059
3.28154	48.8956
3.27946	48.7124
3.27739	48.5367
3.27532	48.4267
3.27325	48.2479
3.27119	48.0694
3.26913	47.8977
3.26707	47.7189
3.26501	47.6169
3.26295	47.585
3.2609	47.5057
3.25885	47.2652
3.2568	46.9748
3.25476	46.8651
3.25272	46.7821
3.25068	46.6127
3.24864	46.5064
3.24661	46.3919
3.24458	46.2152
3.24255	46.0223
3.24052	45.8248
3.2385	45.6256
3.23648	45.5893
3.23446	45.4744
3.23244	45.2785
3.23043	45.1145
3.22841	44.9496
3.2264	44.8391
3.2244	44.6873
3.22239	44.5169
3.22039	44.3824
3.21839	44.2448
3.2164	44.146
3.2144	43.9568
3.21241	43.8674
3.21042	43.8052
3.20844	43.5614
3.20645	43.3008
3.20447	43.1779
3.20249	43.0196
3.20051	42.85
3.19854	42.8352
3.19657	42.7521
3.1946	42.5171
3.19263	42.3215
3.19067	42.2652
3.1887	42.1595
3.18674	41.9688
3.18479	41.7896
3.18283	41.7121
3.18088	41.562
3.17893	41.3029
3.17698	41.1987
3.17504	41.1321
3.17309	40.9355
3.17115	40.7344
3.16921	40.58
3.16728	40.442
3.16534	40.3375
3.16341	40.1712
3.16148	40.0295
3.15956	39.9388
3.15763	39.7346
3.15571	39.5895
3.15379	39.4894
3.15187	39.3454
3.14996	39.1715
3.14805	38.9852
3.14614	38.8735
3.14423	38.8358
3.14232	38.6865
3.14042	38.477
3.13852	38.272
3.13662	38.1206
3.13472	37.9769
3.13283	37.8821
3.13094	37.8261
3.12905	37.7034
3.12716	37.5291
3.12528	37.469
3.12339	37.3621
3.12151	37.1829
3.11964	37.0112
3.11776	36.9089
3.11589	36.8434
3.11401	36.6453
3.11214	36.4472
3.11028	36.3237
3.10841	36.1672
3.10655	36.0789
3.10469	36.0074
3.10283	35.9156
3.10098	35.7395
3.09912	35.6737
3.09727	35.5904
3.09542	35.5115
3.09358	35.4385
3.09173	35.293
3.08989	35.1316
3.08805	34.9786
3.08621	34.7978
3.08437	34.6983
3.08254	34.6263
3.08071	34.483
3.07888	34.4273
3.07705	34.4389
3.07523	34.3501
3.0734	34.2116
3.07158	34.1182
3.06977	34.0357
3.06795	33.9307
3.06613	33.8372
3.06432	33.656
3.06251	33.5728
3.0607	33.4994
3.0589	33.4027
3.0571	33.305
3.05529	33.0858
3.05349	33.0074
3.0517	32.966
3.0499	32.7826
3.04811	32.7636
3.04632	32.8019
3.04453	32.7566
3.04274	32.6937
3.04096	32.576
3.03918	32.3153
3.0374	32.1062
3.03562	32.1189
3.03384	32.1371
3.03207	32.0385
3.03029	31.8815
3.02852	31.7419
3.02676	31.6542
3.02499	31.5291
3.02323	31.4994
3.02146	31.5461
3.0197	31.4488
3.01795	31.3663
3.01619	31.1566
3.01444	31.0861
3.01269	31.041
3.01094	30.9143
3.00919	30.803
3.00744	30.6697
3.0057	30.6303
3.00396	30.7016
3.00222	30.6152
3.00048	30.5043
2.99875	30.4589
2.99701	30.3185
2.99528	30.1914
2.99355	30.1813
2.99183	30.147
2.9901	29.9485
2.98838	29.7693
2.98666	29.766
2.98494	29.839
2.98322	29.6473
2.9815	29.3865
2.97979	29.3329
2.97808	29.3538
2.97637	29.2443
2.97466	29.136
2.97295	29.2475
2.97125	29.2432
2.96955	29.1045
2.96785	29.0143
2.96615	28.8891
2.96446	28.7844
2.96276	28.6972
2.96107	28.6882
2.95938	28.6369
2.95769	28.4886
2.95601	28.4125
2.95432	28.5054
2.95264	28.5312
2.95096	28.3961
2.94928	28.3267
2.9476	28.3162
2.94593	28.2712
2.94425	28.1547
2.94258	28.1346
2.94092	28.2099
2.93925	28.001
2.93758	27.8741
2.93592	27.8686
2.93426	27.7559
2.9326	27.7589
2.93094	27.8221
2.92928	27.8192
2.92763	27.7549
2.92598	27.8153
2.92433	27.9045
2.92268	27.7639
2.92103	27.6096
2.91939	27.5667
2.91775	27.589
2.9161	27.6372
2.91447	27.5649
2.91283	27.3843
2.91119	27.3588
2.90956	27.59
2.90793	27.6296
2.9063	27.4412
2.90467	27.4503
2.90304	27.5032
2.90142	27.5331
2.89979	27.5527
2.89817	27.5821
2.89656	27.6172
2.89494	27.682
2.89332	27.817
2.89171	27.8572
2.8901	27.8734
2.88849	27.9927
2.88688	28.0484
2.88527	28.0225
2.88367	28.0641
2.88206	28.1254
2.88046	28.27
2.87886	28.5039
2.87727	28.5421
2.87567	28.5249
2.87408	28.7114
2.87248	29.0104
2.87089	29.1139
2.8693	29.1921
2.86772	29.3153
2.86613	29.5205
2.86455	29.6364
2.86297	29.654
2.86139	29.7702
2.85981	30.0283
2.85823	30.1574
2.85666	30.3154
2.85508	30.5499
2.85351	30.8036
2.85194	30.9473
2.85038	31.0118
2.84881	31.1413
2.84724	31.3134
2.84568	31.5311
2.84412	31.6063
2.84256	31.6691
2.841	31.8808
2.83945	31.9728
2.83789	32.213
2.83634	32.4606
2.83479	32.5089
2.83324	32.5839
2.83169	32.839
2.83015	32.8716
2.82861	32.9791
2.82706	33.2642
2.82552	33.3361
2.82398	33.3619
2.82245	33.4924
2.82091	33.4708
2.81938	33.6037
2.81784	33.6999
2.81631	33.6499
2.81479	33.4914
2.81326	33.3693
2.81173	33.4062
2.81021	33.2808
2.80869	33.0115
2.80716	32.8038
2.80565	32.7309
2.80413	32.6376
2.80261	32.5147
2.8011	32.3417
2.79959	32.2893
2.79808	32.3832
2.79657	32.1862
2.79506	31.7431
2.79355	31.3971
2.79205	31.0088
2.79055	30.6578
2.78904	30.6093
2.78754	31.0777
2.78605	31.5491
2.78455	31.7433
2.78306	31.9018
2.78156	32.1498
2.78007	32.4047
2.77858	32.6777
2.77709	32.7154
2.77561	32.6848
2.77412	32.8649
2.77264	33.3116
2.77116	33.7003
2.76968	33.7325
2.7682	33.9139
2.76672	34.2172
2.76524	34.4418
2.76377	34.7781
2.7623	34.6509
2.76083	33.7444
2.75936	32.6517
2.75789	32.0874
2.75642	32.8241
2.75496	34.483
2.7535	35.4015
2.75203	36.1608
2.75057	37.0815
2.74912	37.8388
2.74766	38.2424
2.7462	37.9723
2.74475	37.2586
2.7433	37.8092
2.74185	39.919
2.7404	42.0007
2.73895	43.1714
2.7375	43.8459
2.73606	45.0377
2.73462	46.0225
2.73318	46.5248
2.73174	47.2869
2.7303	48.1045
2.72886	48.9347
2.72742	49.8273
2.72599	50.986
2.72456	52.2379
2.72313	52.9536
2.7217	54.1495
2.72027	55.5328
2.71884	55.8119
2.71742	56.317
2.71599	57.1251
2.71457	58.052
2.71315	59.0023
2.71173	60.2487
2.71032	61.0842
2.7089	61.4458
2.70748	61.8185
2.70607	62.1283
2.70466	62.6896
2.70325	63.4468
2.70184	64.2784
2.70043	64.7325
2.69903	64.9416
2.69762	65.4808
2.69622	66.1388
2.69482	66.8753
2.69342	67.3981
2.69202	67.3079
2.69062	67.317
2.68923	67.5939
2.68783	68.0074
2.68644	68.4269
2.68505	68.7581
2.68366	69.0049
2.68227	69.1371
2.68089	69.3877
2.6795	69.9487
2.67812	70.1857
2.67673	70.4919
2.67535	70.4192
2.67397	70.3308
2.6726	70.7232
2.67122	71.8277
2.66984	72.0589
2.66847	71.7149
2.6671	72.5285
2.66572	72.9851
2.66435	72.8098
2.66299	72.3298
2.66162	72.358
2.66025	72.5552
2.65889	72.563
2.65753	72.376
2.65616	72.6186
2.65481	72.7731
2.65345	73.0347
2.65209	73.1986
2.65073	73.0075
2.64938	72.9505
2.64803	73.0466
2.64667	73.1952
2.64532	73.1263
2.64397	72.9073
2.64263	73.1558
2.64128	73.322
2.63994	73.336
2.63859	73.3409
2.63725	73.389
2.63591	73.3861
2.63457	73.5592
2.63323	73.5552
2.6319	73.8395
2.63056	74.6011
2.62923	74.2657
2.62789	74.0458
2.62656	74.3784
2.62523	73.8978
2.6239	73.5703
2.62258	73.6897
2.62125	74.4029
2.61993	74.578
2.6186	74.148
2.61728	74.5469
2.61596	74.4829
2.61464	74.0066
2.61332	73.9678
2.61201	74.045
2.61069	74.1674
2.60938	74.2802
2.60807	74.3951
2.60675	74.6268
2.60544	74.8988
2.60414	74.6398
2.60283	74.445
2.60152	74.2493
2.60022	74.0745
2.59891	74.1154
2.59761	74.3502
2.59631	75.048
2.59501	75.9652
2.59371	75.187
2.59242	74.2115
2.59112	74.0832
2.58983	74.3855
2.58853	74.5403
2.58724	74.4428
2.58595	74.2302
2.58466	74.6348
2.58338	74.8909
2.58209	74.5085
2.5808	74.3745
2.57952	74.2008
2.57824	74.3871
2.57695	74.6932
2.57567	74.5097
2.5744	74.6045
2.57312	74.8542
2.57184	74.5625
2.57057	74.6722
2.56929	74.6266
2.56802	74.3544
2.56675	74.3445
2.56548	74.4878
2.56421	74.7338
2.56294	74.8918
2.56168	74.9323
2.56041	74.6871
2.55915	74.4248
2.55789	74.3192
2.55662	74.4478
2.55536	74.5355
2.5541	74.5705
2.55285	74.6457
2.55159	74.5831
2.55034	74.5621
2.54908	74.563
2.54783	74.5845
2.54658	74.6354
2.54533	74.7325
2.54408	74.7792
2.54283	74.7954
2.54159	74.6875
2.54034	74.525
2.5391	74.5745
2.53785	74.5973
2.53661	74.5471
2.53537	74.6624
2.53413	74.7774
2.53289	74.7954
2.53166	74.7627
2.53042	74.8163
2.52919	74.8352
2.52795	74.7965
2.52672	74.8001
2.52549	74.7657
2.52426	74.7275
2.52303	74.754
2.52181	74.8117
2.52058	74.7992
2.51936	74.7878
2.51813	74.8842
2.51691	74.9933
2.51569	75.0079
2.51447	74.9373
2.51325	74.8814
2.51203	74.8764
2.51082	74.998
2.5096	75.052
2.50839	75.0378
2.50717	75.0538
2.50596	75.0659
2.50475	75.0426
2.50354	74.9904
2.50233	75.021
2.50113	75.1899
2.49992	75.2209
2.49872	75.1794
2.49751	75.1926
2.49631	75.0843
2.49511	75.0277
2.49391	75.1806
2.49271	75.2563
2.49151	75.2774
2.49031	75.2332
2.48912	75.2109
2.48792	75.2671
2.48673	75.3823
2.48554	75.4191
2.48435	75.4752
2.48316	75.4401
2.48197	75.361
2.48078	75.2989
2.4796	75.3209
2.47841	75.4563
2.47723	75.5765
2.47604	75.5022
2.47486	75.5106
2.47368	75.6143
2.4725	75.6077
2.47132	75.5049
2.47014	75.4916
2.46897	75.5169
2.46779	75.5201
2.46662	75.5958
2.46545	75.7626
2.46427	75.8395
2.4631	75.8188
2.46193	75.8125
2.46077	75.9671
2.4596	76.0448
2.45843	75.9783
2.45727	75.9629
2.4561	76.0209
2.45494	76.0064
2.45378	75.8703
2.45262	75.936
2.45146	76.0676
2.4503	76.1159
2.44914	76.2694
2.44799	76.2836
2.44683	76.1256
2.44568	76.1191
2.44452	76.1783
2.44337	76.2281
2.44222	76.3754
2.44107	76.2659
2.43992	76.2063
2.43877	76.3458
2.43763	76.4809
2.43648	76.4774
2.43534	76.333
2.43419	76.3536
2.43305	76.3843
2.43191	76.4629
2.43077	76.5156
2.42963	76.5098
2.42849	76.4812
2.42736	76.3719
2.42622	76.5504
2.42509	76.7162
2.42395	76.7098
2.42282	76.7372
2.42169	76.6626
2.42056	76.6521
2.41943	76.809
2.4183	76.7931
2.41717	76.7029
2.41605	76.7829
2.41492	76.8196
2.4138	76.7792
2.41267	76.8014
2.41155	76.7215
2.41043	76.7419
2.40931	76.8716
2.40819	76.9345
2.40707	76.8746
2.40595	76.8091
2.40484	76.8674
2.40372	76.9145
2.40261	76.9215
2.4015	76.9896
2.40039	77.0719
2.39928	77.0409
2.39817	76.9844
2.39706	77.0975
2.39595	77.1943
2.39484	77.1612
2.39374	77.1173
2.39263	77.1022
2.39153	77.1682
2.39043	77.2404
2.38932	77.2387
2.38822	77.0824
2.38712	76.9964
2.38603	77.1062
2.38493	77.2446
2.38383	77.2304
2.38274	77.2588
2.38164	77.2776
2.38055	77.2752
2.37946	77.1928
2.37836	77.1344
2.37727	77.2243
2.37618	77.3567
2.3751	77.2745
2.37401	77.2331
2.37292	77.3243
2.37184	77.2788
2.37075	77.1952
2.36967	77.1742
2.36859	77.2266
2.3675	77.3109
2.36642	77.3954
2.36534	77.2952
2.36427	77.1786
2.36319	77.2175
2.36211	77.278
2.36104	77.273
2.35996	77.2102
2.35889	77.2772
2.35781	77.2779
2.35674	77.3016
2.35567	77.3315
2.3546	77.3567
2.35353	77.2965
2.35247	77.1334
2.3514	77.1868
2.35033	77.1709
2.34927	77.1692
2.3482	77.2441
2.34714	77.2786
2.34608	77.2755
2.34502	77.2798
2.34396	77.1948
2.3429	76.9933
2.34184	76.8842
2.34078	76.872
2.33973	77.0262
2.33867	77.1293
2.33762	77.0919
2.33656	77.0709
2.33551	76.992
2.33446	76.8614
2.33341	76.8998
2.33236	76.948
2.33131	76.9023
2.33026	76.8919
2.32922	76.8825
2.32817	76.8286
2.32712	76.8893
2.32608	76.9644
2.32504	76.8299
2.324	76.6475
2.32295	76.5935
2.32191	76.5414
2.32087	76.5844
2.31984	76.7251
2.3188	76.7349
2.31776	76.7934
2.31673	76.8328
2.31569	76.7657
2.31466	76.6479
2.31362	76.6001
2.31259	76.5895
2.31156	76.5643
2.31053	76.5825
2.3095	76.581
2.30847	76.5195
2.30745	76.5544
2.30642	76.5708
2.3054	76.5236
2.30437	76.5077
2.30335	76.5808
2.30232	76.7168
2.3013	76.6674
2.30028	76.6312
2.29926	76.7187
2.29824	76.7823
2.29722	76.7033
2.29621	76.6118
2.29519	76.6551
2.29417	76.7686
2.29316	76.769
2.29215	76.7958
2.29113	76.8607
2.29012	76.8609
2.28911	76.6935
2.2881	76.6336
2.28709	76.7491
2.28608	76.8065
2.28507	76.829
2.28407	76.8174
2.28306	76.7463
2.28206	76.7586
2.28105	76.8093
2.28005	76.7882
2.27905	76.8999
2.27805	76.8589
2.27705	76.809
2.27605	76.9079
2.27505	76.9835
2.27405	76.9701
2.27305	76.9071
2.27206	76.8536
2.27106	76.7947
2.27007	76.7171
2.26907	76.6646
2.26808	76.7066
2.26709	76.8169
2.2661	76.9752
2.26511	76.8411
2.26412	76.8307
2.26313	76.8692
2.26214	76.8246
2.26116	76.7648
2.26017	76.805
2.25919	76.8102
2.2582	76.7401
2.25722	76.7974
2.25624	76.8257
2.25526	76.8082
2.25428	76.7903
2.2533	76.7936
2.25232	76.8406
2.25134	76.7881
2.25036	76.8574
2.24939	77.0042
2.24841	76.8776
2.24744	76.8532
2.24646	76.909
2.24549	76.8268
2.24452	76.7306
2.24355	76.7125
2.24257	76.7685
2.24161	76.7872
2.24064	76.7618
2.23967	76.7661
2.2387	76.9092
2.23774	76.9072
2.23677	76.776
2.23581	76.7412
2.23484	76.8108
2.23388	76.7879
2.23292	76.8217
2.23196	76.8216
2.231	76.8327
2.23004	76.8319
2.22908	76.9401
2.22812	76.9743
2.22716	76.9372
2.22621	76.9531
2.22525	76.9315
2.2243	76.9264
2.22334	76.8624
2.22239	76.7829
2.22144	76.8501
2.22049	76.8566
2.21953	76.8195
2.21859	76.8637
2.21764	76.8151
2.21669	76.8222
2.21574	76.9298
2.21479	76.9753
2.21385	76.8814
2.2129	76.8565
2.21196	76.8895
2.21102	77.0506
2.21007	77.0366
2.20913	76.9861
2.20819	76.9695
2.20725	76.8447
2.20631	76.7644
2.20537	76.7972
2.20444	76.9068
2.2035	77.125
2.20256	77.2422
2.20163	77.2167
2.20069	77.23
2.19976	77.1981
2.19883	77.2416
2.19789	77.2751
2.19696	77.3074
2.19603	77.4292
2.1951	77.5657
2.19417	77.6147
2.19325	77.4916
2.19232	77.3443
2.19139	77.3968
2.19047	77.5066
2.18954	77.4086
2.18862	77.4262
2.18769	77.5696
2.18677	77.7248
2.18585	77.8687
2.18493	77.9117
2.18401	77.894
2.18309	77.7779
2.18217	77.847
2.18125	77.9935
2.18033	77.9199
2.17942	77.855
2.1785	77.8141
2.17759	77.795
2.17667	78.0091
2.17576	78.0526
2.17485	77.8872
2.17393	77.7802
2.17302	77.7668
2.17211	77.9908
2.1712	78.1696
2.17029	78.1142
2.16939	78.0194
2.16848	78.0874
2.16757	78.218
2.16667	78.3094
2.16576	78.3584
2.16486	78.3636
2.16395	78.3979
2.16305	78.2556
2.16215	78.2216
2.16125	78.2746
2.16035	78.2134
2.15945	78.0837
2.15855	78.1562
2.15765	78.3027
2.15675	78.4894
2.15586	78.5765
2.15496	78.4086
2.15406	78.2521
2.15317	78.1469
2.15228	78.4061
2.15138	78.6232
2.15049	78.6053
2.1496	78.6203
2.14871	78.6483
2.14782	78.4549
2.14693	78.454
2.14604	78.4721
2.14515	78.4435
2.14427	78.4595
2.14338	78.4836
2.14249	78.4846
2.14161	78.4349
2.14072	78.4877
2.13984	78.5802
2.13896	78.5122
2.13808	78.5704
2.13719	78.6529
2.13631	78.6103
2.13543	78.5982
2.13455	78.593
2.13368	78.5711
2.1328	78.5547
2.13192	78.4449
2.13105	78.4723
2.13017	78.6894
2.1293	78.7591
2.12842	78.7455
2.12755	78.64
2.12668	78.6653
2.1258	78.6011
2.12493	78.4894
2.12406	78.3914
2.12319	78.5292
2.12232	78.7028
2.12145	78.6452
2.12059	78.4825
2.11972	78.4726
2.11885	78.5432
2.11799	78.6431
2.11712	78.602
2.11626	78.6578
2.1154	78.7641
2.11453	78.8038
2.11367	78.4221
2.11281	78.3055
2.11195	78.5095
2.11109	78.6916
2.11023	78.8361
2.10937	78.9463
2.10851	78.8393
2.10766	78.6025
2.1068	78.5613
2.10594	78.7416
2.10509	78.8051
2.10423	78.9177
2.10338	78.8545
2.10253	78.5635
2.10168	78.3332
2.10082	78.3288
2.09997	78.4937
2.09912	78.6015
2.09827	78.7553
2.09742	78.8644
2.09658	78.7931
2.09573	78.5083
2.09488	78.6688
2.09404	78.8182
2.09319	78.5657
2.09235	78.2502
2.0915	78.4295
2.09066	78.5897
2.08982	78.705
2.08897	78.9669
2.08813	78.986
2.08729	78.8264
2.08645	78.8264
2.08561	78.987
2.08477	78.9584
2.08394	78.8433
2.0831	78.7672
2.08226	78.7276
2.08143	78.7078
2.08059	78.8349
2.07976	78.8367
2.07892	78.7018
2.07809	78.7618
2.07726	78.7149
2.07643	78.4794
2.07559	78.6909
2.07476	78.5672
2.07393	78.7661
2.0731	79.0275
2.07228	78.8362
2.07145	78.5741
2.07062	78.6931
2.06979	78.8036
2.06897	78.9191
2.06814	79.0267
2.06732	78.9998
2.06649	78.7876
2.06567	78.4994
2.06485	78.5329
2.06403	78.6569
2.0632	78.7701
2.06238	78.7847
2.06156	78.7711
2.06074	79.0039
2.05993	79.1385
2.05911	79.0566
2.05829	79.1109
2.05747	79.0272
2.05666	78.8511
2.05584	78.5892
2.05503	78.652
2.05421	78.6461
2.0534	78.7882
2.05259	78.9848
2.05177	78.8724
2.05096	78.6688
2.05015	78.8437
2.04934	78.8711
2.04853	78.7147
2.04772	78.7031
2.04691	78.7875
2.04611	78.7436
2.0453	78.7466
2.04449	78.8587
2.04369	78.9617
2.04288	78.9675
2.04208	78.9058
2.04127	78.971
2.04047	79.0753
2.03967	79.0394
2.03886	78.8735
2.03806	78.6795
2.03726	78.6529
2.03646	78.8082
2.03566	78.7801
2.03486	78.7037
2.03407	78.4311
2.03327	78.4553
2.03247	78.8827
2.03167	79.0785
2.03088	79.0001
2.03008	79.0101
2.02929	79.0616
2.0285	78.9031
2.0277	78.7441
2.02691	78.689
2.02612	78.6718
2.02533	78.6106
2.02453	78.5915
2.02374	78.6159
2.02295	78.7502
2.02217	78.7758
2.02138	78.7283
2.02059	78.7497
2.0198	78.6728
2.01902	78.6403
2.01823	78.7864
2.01744	78.8368
2.01666	78.7659
2.01588	78.8596
2.01509	78.8413
2.01431	78.8613
2.01353	78.9494
2.01275	78.8341
2.01196	78.902
2.01118	78.9973
2.0104	78.8615
2.00963	78.8418
2.00885	78.846
2.00807	78.8006
2.00729	78.7841
2.00651	78.8507
2.00574	78.8773
2.00496	78.7299
2.00419	78.627
2.00341	78.5754
2.00264	78.6342
2.00187	78.6896
2.00109	78.6199
2.00032	78.5788
