Name: Fluorite CaF_2
Type: Mineral
Class: Halides
Subclass: 
Particle Size: 0-45um
Sample No.: H-2A
Owner: JPL
Wavelength range: IR
Origin: USA, Illinois, Hardin County, Rosiclare
Collected by Ward's
Description:  Purple fluorite. 





Measurement: Hemispherical reflectance
First Column: X
Second Column: Y
X Units:  Wavelength (micrometers)
Y Units:  Reflectance (percent)
First X Value: 15.3853
Last X Value: 2.00032
Number of X Values: 2256
Additional information: h02aa.txt
 
15.3853	0.477223
15.3397	0.587677
15.2945	0.755815
15.2495	0.883108
15.2048	0.933861
15.1603	0.748685
15.1161	0.705402
15.0722	0.882716
15.0285	1.04634
14.9851	1.18176
14.9419	1.36912
14.8989	1.37896
14.8563	1.42121
14.8138	1.5723
14.7716	1.67061
14.7296	1.80323
14.6879	1.83606
14.6464	1.66878
14.6052	1.71679
14.5641	2.11718
14.5233	2.38029
14.4828	2.53323
14.4424	2.50216
14.4023	2.41574
14.3624	2.58467
14.3227	2.89356
14.2833	3.27167
14.244	3.30755
14.205	3.3964
14.1662	3.70312
14.1276	3.75396
14.0892	3.59733
14.051	3.79584
14.0131	4.09872
13.9753	4.11464
13.9377	4.16478
13.9004	4.30213
13.8632	4.47558
13.8262	4.47078
13.7895	4.33588
13.7529	4.55167
13.7165	4.82729
13.6803	5.09029
13.6443	5.33512
13.6085	5.45948
13.5729	5.69234
13.5374	5.98663
13.5022	6.3297
13.4671	6.73686
13.4322	7.15251
13.3975	7.41385
13.363	7.69557
13.3286	8.13826
13.2944	8.64687
13.2604	8.98316
13.2266	9.224
13.193	9.39675
13.1595	9.69662
13.1262	10.1024
13.093	10.5406
13.06	11.0335
13.0272	11.4467
12.9946	11.6514
12.9621	11.8878
12.9298	12.4462
12.8976	12.9385
12.8656	13.299
12.8337	13.8134
12.8021	14.2805
12.7705	14.6608
12.7391	15.1978
12.7079	15.6662
12.6769	16.1579
12.6459	16.8169
12.6152	17.4783
12.5845	18.0206
12.5541	18.5207
12.5238	19.0506
12.4936	19.7265
12.4635	20.3203
12.4337	21.0635
12.4039	21.8486
12.3743	22.5106
12.3448	23.1909
12.3155	23.8773
12.2863	24.5672
12.2573	25.2571
12.2284	25.9463
12.1996	26.506
12.171	27.0679
12.1425	27.7657
12.1141	28.3915
12.0859	28.8686
12.0578	29.4329
12.0298	30.0539
12.0019	30.6157
11.9742	30.9982
11.9466	31.4775
11.9192	32.1138
11.8918	32.6303
11.8646	32.9937
11.8375	33.3775
11.8106	33.6914
11.7837	34.0418
11.757	34.557
11.7304	34.8111
11.7039	34.6802
11.6776	34.466
11.6513	34.0915
11.6252	33.761
11.5992	33.9835
11.5733	34.6934
11.5475	35.505
11.5219	36.1301
11.4963	36.5303
11.4709	36.6705
11.4455	36.5727
11.4203	36.7413
11.3952	37.3968
11.3702	38.3036
11.3454	39.2995
11.3206	40.379
11.2959	41.4904
11.2714	42.4199
11.2469	43.1379
11.2226	43.6828
11.1983	44.2167
11.1742	44.7028
11.1502	45.0759
11.1263	45.3989
11.1024	45.7318
11.0787	46.0664
11.0551	46.3763
11.0316	46.6875
11.0081	47.0693
10.9848	47.2967
10.9616	47.4478
10.9385	47.6947
10.9154	48.046
10.8925	48.2805
10.8697	48.6025
10.8469	48.8709
10.8243	49.0694
10.8017	49.3169
10.7793	49.5384
10.7569	49.7204
10.7346	49.844
10.7125	49.9148
10.6904	50.1877
10.6684	50.4661
10.6465	50.6958
10.6247	51.0324
10.6029	51.3699
10.5813	51.6563
10.5597	51.9478
10.5383	52.2884
10.5169	52.7431
10.4956	53.1356
10.4744	53.3974
10.4533	53.6743
10.4323	53.9369
10.4113	54.2343
10.3904	54.5921
10.3697	54.8778
10.349	55.0764
10.3284	55.3083
10.3078	55.5072
10.2874	55.7702
10.267	56.065
10.2467	56.3357
10.2265	56.5666
10.2064	56.7949
10.1863	57.0317
10.1663	57.265
10.1464	57.4648
10.1266	57.6713
10.1069	57.8643
10.0872	58.0262
10.0676	58.255
10.0481	58.3679
10.0287	58.4369
10.0093	58.5872
9.99005	58.684
9.97084	58.7786
9.95169	58.8329
9.93263	58.9332
9.91364	59.0365
9.89472	59.0875
9.87587	59.2301
9.8571	59.4277
9.83839	59.5238
9.81976	59.5876
9.80119	59.6285
9.78271	59.6826
9.76428	59.8348
9.74592	60.0478
9.72764	60.2293
9.70943	60.3946
9.69128	60.5794
9.6732	60.7232
9.65518	60.8712
9.63724	61.0002
9.61935	61.1044
9.60155	61.1648
9.5838	61.2797
9.56611	61.4455
9.5485	61.6357
9.53094	61.6824
9.51345	61.6763
9.49604	61.7703
9.47867	61.9202
9.46137	62.1174
9.44414	62.405
9.42697	62.6159
9.40986	62.847
9.39281	63.1364
9.37583	63.2717
9.35891	63.2666
9.34204	63.2574
9.32524	63.2713
9.3085	63.4303
9.29182	63.6197
9.27519	63.6292
9.25863	63.3617
9.24213	63.1543
9.22568	63.0094
9.2093	62.9517
9.19297	63.0689
9.17669	63.2607
9.16048	63.5033
9.14433	63.8631
9.12823	64.3351
9.11218	64.8105
9.0962	65.1669
9.08027	65.5438
9.06439	65.9641
9.04858	66.3081
9.03281	66.3971
9.0171	66.5562
9.00145	66.9913
8.98585	67.3059
8.9703	67.5614
8.9548	67.8689
8.93937	68.1005
8.92398	68.3334
8.90865	68.5309
8.89337	68.7523
8.87814	69.0282
8.86296	69.3111
8.84784	69.5154
8.83277	69.7426
8.81774	69.9894
8.80277	70.1531
8.78786	70.1209
8.77298	70.2496
8.75816	70.5274
8.7434	70.7394
8.72868	70.8265
8.714	70.9927
8.69938	71.164
8.68481	71.2379
8.67029	71.353
8.65581	71.5355
8.64139	71.5828
8.62701	71.7771
8.61268	71.9878
8.5984	72.123
8.58416	72.3509
8.56997	72.581
8.55583	72.8028
8.54174	73.0884
8.52769	73.3739
8.51368	73.6419
8.49973	73.8411
8.48582	74.0106
8.47195	74.183
8.45813	74.456
8.44436	74.7183
8.43062	74.8904
8.41693	75.0204
8.4033	75.2383
8.3897	75.5226
8.37614	75.7154
8.36264	75.7515
8.34917	75.872
8.33574	76.0062
8.32236	76.2648
8.30903	76.5048
8.29573	76.6912
8.28248	76.8472
8.26927	76.9421
8.2561	77.0547
8.24298	77.2475
8.2299	77.4266
8.21685	77.6447
8.20385	77.8254
8.19089	77.8587
8.17797	77.8639
8.16509	77.9242
8.15225	77.9869
8.13946	78.0964
8.1267	78.1628
8.11398	78.237
8.10131	78.2112
8.08867	78.2761
8.07606	78.4359
8.0635	78.5429
8.05099	78.5734
8.0385	78.6597
8.02606	78.6971
8.01366	78.7565
8.00129	78.8196
7.98896	78.8528
7.97667	78.9696
7.96442	79.0798
7.9522	79.1141
7.94002	79.1256
7.92788	79.0507
7.91578	78.9667
7.90371	79.0181
7.89168	79.033
7.87969	79.0165
7.86773	79.0808
7.85581	79.0717
7.84392	79.0289
7.83207	78.967
7.82026	78.8972
7.80849	78.8209
7.79674	78.7618
7.78503	78.6559
7.77337	78.5165
7.76173	78.3343
7.75012	78.1049
7.73856	77.872
7.72703	77.715
7.71553	77.5804
7.70406	77.4235
7.69263	77.3342
7.68123	77.2389
7.66987	77.0219
7.65855	76.8166
7.64725	76.5512
7.63598	76.3217
7.62475	76.1204
7.61356	75.9424
7.60239	75.7068
7.59126	75.6294
7.58017	75.532
7.5691	75.3739
7.55806	75.3241
7.54707	75.3648
7.5361	75.4266
7.52516	75.4972
7.51425	75.5043
7.50338	75.4934
7.49253	75.4967
7.48172	75.5105
7.47094	75.4533
7.46019	75.2122
7.44947	74.64
7.43879	74.1918
7.42813	73.7775
7.4175	73.3305
7.4069	72.8333
7.39634	72.4853
7.3858	72.3001
7.37529	72.0451
7.36482	71.7337
7.35437	71.5468
7.34396	71.3849
7.33357	70.8459
7.32321	69.8254
7.31288	69.0923
7.30258	68.3558
7.29231	67.6111
7.28207	67.2222
7.27185	66.6625
7.26167	65.7252
7.25152	65.1314
7.24139	64.6417
7.23129	64.2485
7.22122	63.9047
7.21117	63.8687
7.20116	63.0801
7.19117	61.9418
7.18121	61.4672
7.17128	61.3273
7.16137	60.4119
7.1515	59.6829
7.14164	58.9482
7.13182	58.1153
7.12203	57.8675
7.11225	57.4833
7.10251	57.0047
7.0928	56.8105
7.08311	56.6756
7.07344	56.7034
7.06381	57.0401
7.0542	58.0156
7.04461	58.797
7.03506	58.0996
7.02552	58.0128
7.01601	58.2701
7.00653	58.4969
6.99708	59.2018
6.98765	59.6466
6.97824	59.8122
6.96886	60.7451
6.95951	61.7626
6.95018	60.9088
6.94087	60.4687
6.9316	60.503
6.92234	60.5184
6.91311	60.625
6.90391	60.6713
6.89473	60.2338
6.88557	60.1112
6.87644	60.4392
6.86733	62.1265
6.85824	61.7785
6.84918	59.635
6.84015	58.6801
6.83114	58.9044
6.82215	58.5264
6.81319	57.4321
6.80424	57.2935
6.79532	58.2475
6.78643	58.2282
6.77756	57.1924
6.76871	56.4785
6.75989	55.852
6.75109	55.7382
6.74231	55.5585
6.73355	55.6802
6.72482	56.1302
6.71611	56.5242
6.70742	56.2944
6.69875	55.5528
6.69011	55.9546
6.68149	56.7316
6.67289	56.2945
6.66431	55.599
6.65576	55.36
6.64722	56.7346
6.63871	58.8678
6.63022	57.9785
6.62175	56.3692
6.61331	56.1597
6.60488	56.365
6.59648	57.2805
6.5881	57.8968
6.57974	58.9001
6.5714	60.1567
6.56308	59.6802
6.55478	60.0037
6.54651	60.4291
6.53825	60.7208
6.53001	61.6689
6.5218	63.3311
6.51361	63.601
6.50544	64.6694
6.49729	67.8468
6.48915	68.8202
6.48104	67.5673
6.47295	66.7713
6.46488	66.0362
6.45683	66.0254
6.4488	66.3863
6.44079	66.8801
6.4328	67.7747
6.42482	68.9382
6.41687	71.9615
6.40894	71.5022
6.40103	68.7699
6.39314	68.44
6.38526	68.6737
6.37741	69.3594
6.36957	70.231
6.36176	69.4864
6.35396	69.7284
6.34618	71.3541
6.33843	70.5514
6.33069	69.0451
6.32297	68.7067
6.31527	68.4594
6.30758	68.3037
6.29992	68.1318
6.29227	68.051
6.28465	67.8677
6.27704	67.9272
6.26945	68.0777
6.26188	68.2114
6.25432	68.4748
6.24679	68.9585
6.23927	69.3939
6.23177	69.8065
6.22429	70.2468
6.21683	70.7809
6.20938	71.0833
6.20195	71.3839
6.19454	72.3923
6.18715	74.3307
6.17978	74.0353
6.17242	73.1821
6.16508	74.0615
6.15776	74.6602
6.15045	74.2983
6.14317	74.4557
6.1359	74.3426
6.12864	74.3148
6.12141	75.6457
6.11419	77.5121
6.10699	76.622
6.0998	75.552
6.09263	75.6305
6.08549	76.2398
6.07835	77.9826
6.07123	78.9936
6.06413	78.0384
6.05705	79.2978
6.04998	82.9381
6.04293	80.9381
6.0359	78.2162
6.02888	77.9014
6.02187	78.4477
6.01489	79.3288
6.00792	79.0754
6.00096	79.0438
5.99403	80.4683
5.98711	81.063
5.9802	80.3581
5.97331	80.9956
5.96644	81.3835
5.95958	80.3595
5.95274	80.5069
5.94591	81.5705
5.9391	84.0985
5.9323	83.4219
5.92552	81.5089
5.91876	81.35
5.91201	81.306
5.90528	82.07
5.89856	84.3761
5.89186	84.494
5.88517	85.5679
5.8785	86.1395
5.87184	83.8098
5.8652	84.022
5.85857	83.9639
5.85196	83.6407
5.84536	83.7553
5.83878	84.4824
5.83221	85.7512
5.82566	87.4214
5.81912	87.5628
5.81259	85.8977
5.80608	85.4318
5.79959	85.7195
5.79311	85.7942
5.78665	86.2029
5.78019	86.774
5.77376	88.0085
5.76734	90.0152
5.76093	88.695
5.75453	87.4407
5.74815	88.1921
5.74179	87.9854
5.73543	87.8372
5.7291	87.8458
5.72277	88.2742
5.71646	88.8447
5.71017	89.1826
5.70389	88.1994
5.69762	87.8903
5.69136	88.2461
5.68513	88.0089
5.6789	88.3515
5.67268	88.1955
5.66648	87.2603
5.6603	87.4038
5.65413	87.7156
5.64797	88.1885
5.64182	88.9144
5.63569	87.8404
5.62957	87.0857
5.62347	87.2059
5.61737	87.5739
5.61129	87.5732
5.60522	87.6799
5.59917	87.5611
5.59313	86.9554
5.5871	86.8533
5.58109	87.284
5.57509	86.8423
5.5691	85.9975
5.56312	86.1204
5.55716	86.6916
5.55121	87.3949
5.54528	87.7629
5.53935	88.1358
5.53344	88.4573
5.52754	88.9716
5.52166	89.2576
5.51578	89.1894
5.50992	89.1394
5.50407	89.3414
5.49823	89.393
5.49241	89.522
5.4866	89.7503
5.4808	90.2853
5.47501	90.2389
5.46923	90.4702
5.46347	90.8261
5.45772	90.3041
5.45198	90.0218
5.44625	90.0814
5.44054	90.0985
5.43484	90.0866
5.42914	90.4815
5.42347	91.3805
5.4178	90.9081
5.41214	90.124
5.4065	89.9168
5.40087	89.7823
5.39525	89.825
5.38964	89.8125
5.38404	89.7375
5.37846	89.6682
5.37288	89.6728
5.36732	89.7095
5.36177	89.8159
5.35623	90.2361
5.35071	90.6192
5.34519	90.1004
5.33968	89.6324
5.33419	89.6411
5.32871	89.6377
5.32324	89.6782
5.31778	89.6923
5.31233	89.7119
5.30689	89.7982
5.30147	89.8476
5.29605	90.0962
5.29065	90.2671
5.28525	90.002
5.27987	90.0041
5.2745	90.071
5.26914	90.0469
5.26379	89.9783
5.25845	90.0231
5.25312	90.0991
5.24781	90.1622
5.2425	90.2429
5.23721	90.3722
5.23192	90.3428
5.22665	90.3077
5.22138	90.37
5.21613	90.8083
5.21089	90.8364
5.20566	90.6016
5.20044	90.7083
5.19522	90.5745
5.19002	90.4334
5.18483	90.4132
5.17965	90.411
5.17448	90.4669
5.16933	90.5092
5.16418	90.4824
5.15904	90.4781
5.15391	90.6182
5.14879	90.8861
5.14368	90.7781
5.13859	90.615
5.1335	90.6037
5.12842	90.5442
5.12335	90.5551
5.1183	90.5721
5.11325	90.5491
5.10821	90.4881
5.10318	90.5145
5.09817	90.5204
5.09316	90.5532
5.08816	90.6558
5.08317	90.7409
5.07819	90.6307
5.07322	90.5756
5.06826	90.5934
5.06331	90.5531
5.05837	90.5096
5.05344	90.5564
5.04852	90.5612
5.04361	90.5772
5.03871	90.5864
5.03382	90.5832
5.02894	90.5949
5.02406	90.6389
5.0192	90.6963
5.01435	90.6294
5.0095	90.5905
5.00467	90.5836
4.99984	90.5821
4.99502	90.5466
4.99021	90.5285
4.98542	90.5249
4.98063	90.5344
4.97585	90.6198
4.97108	90.6267
4.96632	90.5906
4.96156	90.6952
4.95682	90.8176
4.95209	90.7527
4.94736	90.7225
4.94264	90.7125
4.93794	90.7285
4.93324	90.7156
4.92855	90.7051
4.92387	90.68
4.9192	90.6818
4.91453	90.7077
4.90988	90.762
4.90524	90.8043
4.9006	90.857
4.89597	90.8797
4.89135	90.897
4.88674	90.8328
4.88214	90.7674
4.87755	90.7745
4.87296	90.8235
4.86839	90.8287
4.86382	90.8547
4.85926	90.8599
4.85471	90.8467
4.85017	90.8761
4.84564	90.9359
4.84111	90.9639
4.8366	90.9201
4.83209	90.8812
4.82759	90.9244
4.8231	90.8658
4.81862	90.8275
4.81415	90.8858
4.80968	90.927
4.80522	90.9471
4.80077	90.9669
4.79633	90.9265
4.7919	90.9555
4.78747	90.9316
4.78306	90.9067
4.77865	90.9056
4.77425	90.9277
4.76986	90.9137
4.76547	90.912
4.7611	90.889
4.75673	90.8633
4.75237	90.8189
4.74802	90.8403
4.74367	90.8153
4.73934	90.8181
4.73501	90.8162
4.73069	90.8105
4.72638	90.815
4.72207	90.8262
4.71777	90.8195
4.71348	90.7463
4.7092	90.7595
4.70493	90.8146
4.70066	90.7608
4.69641	90.7446
4.69216	90.6993
4.68791	90.6944
4.68368	90.7004
4.67945	90.6603
4.67523	90.6313
4.67102	90.6644
4.66682	90.73
4.66262	90.7492
4.65843	90.7123
4.65425	90.7432
4.65007	90.7305
4.64591	90.7512
4.64175	90.7836
4.6376	90.8352
4.63345	90.9046
4.62932	90.9157
4.62519	90.8792
4.62106	90.9018
4.61695	90.896
4.61284	90.908
4.60874	90.885
4.60465	90.8963
4.60056	90.9678
4.59648	91.0144
4.59241	90.9723
4.58835	90.9677
4.58429	90.9893
4.58024	90.9854
4.5762	91.0239
4.57216	91.0596
4.56814	91.0619
4.56411	91.0991
4.5601	91.1027
4.55609	91.0974
4.55209	91.0756
4.5481	91.0505
4.54411	91.0678
4.54013	91.1001
4.53616	91.091
4.5322	91.1243
4.52824	91.1219
4.52429	91.1271
4.52034	91.115
4.51641	91.0737
4.51247	91.1043
4.50855	91.1317
4.50463	91.1508
4.50072	91.1935
4.49682	91.1902
4.49292	91.1783
4.48903	91.172
4.48515	91.2213
4.48127	91.2306
4.4774	91.2288
4.47354	91.1928
4.46968	91.1889
4.46584	91.2259
4.46199	91.2808
4.45815	91.2724
4.45432	91.3167
4.4505	91.3513
4.44668	91.3278
4.44287	91.2887
4.43907	91.3043
4.43527	91.2923
4.43148	91.306
4.4277	91.3525
4.42392	91.3945
4.42015	91.3245
4.41638	91.3132
4.41262	91.3563
4.40887	91.3993
4.40513	91.4319
4.40139	91.4111
4.39765	91.4277
4.39393	91.4296
4.39021	91.4463
4.38649	91.4464
4.38278	91.3923
4.37908	91.3912
4.37539	91.4406
4.3717	91.4969
4.36801	91.4941
4.36434	91.4906
4.36067	91.4935
4.357	91.5116
4.35335	91.5385
4.34969	91.5509
4.34605	91.57
4.34241	91.5841
4.33877	91.588
4.33514	91.6664
4.33152	91.7073
4.32791	91.6992
4.3243	91.7272
4.32069	91.7309
4.3171	91.7829
4.31351	91.8718
4.30992	91.8999
4.30634	91.8924
4.30277	91.9414
4.2992	91.9942
4.29564	91.9665
4.29208	91.9524
4.28853	92.012
4.28499	91.9921
4.28145	92.0184
4.27792	92.0384
4.27439	92.0198
4.27087	92.0352
4.26735	91.9862
4.26384	91.9152
4.26034	91.8158
4.25684	91.7194
4.25335	91.7477
4.24986	91.902
4.24638	92.08
4.24291	92.2228
4.23944	92.2744
4.23598	92.2527
4.23252	92.2334
4.22906	92.2275
4.22562	92.2476
4.22218	92.1756
4.21874	92.0098
4.21531	91.9358
4.21189	91.878
4.20847	91.7889
4.20506	91.7464
4.20165	91.7519
4.19825	91.699
4.19485	91.6839
4.19146	91.6939
4.18807	91.7175
4.18469	91.7452
4.18132	91.702
4.17795	91.6377
4.17458	91.6476
4.17123	91.6494
4.16787	91.6735
4.16453	91.69
4.16118	91.6725
4.15785	91.6536
4.15451	91.6392
4.15119	91.6418
4.14787	91.6313
4.14455	91.592
4.14124	91.6075
4.13794	91.6161
4.13464	91.6309
4.13134	91.6241
4.12805	91.5478
4.12477	91.5066
4.12149	91.5441
4.11822	91.5518
4.11495	91.5399
4.11168	91.4747
4.10843	91.4515
4.10517	91.4528
4.10192	91.417
4.09868	91.3918
4.09545	91.391
4.09221	91.3592
4.08899	91.3074
4.08576	91.2852
4.08255	91.2531
4.07933	91.1976
4.07613	91.1608
4.07292	91.0963
4.06973	91.0239
4.06654	90.9532
4.06335	90.8734
4.06017	90.7945
4.05699	90.7023
4.05382	90.6404
4.05065	90.613
4.04749	90.4842
4.04433	90.3488
4.04118	90.2592
4.03803	90.157
4.03489	90.0153
4.03175	89.8793
4.02862	89.7173
4.02549	89.6016
4.02237	89.4834
4.01925	89.3836
4.01614	89.3191
4.01303	89.2242
4.00993	89.1449
4.00683	89.0256
4.00373	88.8841
4.00064	88.7204
3.99756	88.5331
3.99448	88.3877
3.9914	88.2785
3.98833	88.1906
3.98527	88.1201
3.98221	88.1474
3.97915	88.1741
3.9761	88.2046
3.97305	88.2581
3.97001	88.2369
3.96697	88.3017
3.96394	88.4042
3.96091	88.4767
3.95789	88.6396
3.95487	88.7901
3.95186	88.9094
3.94885	89.054
3.94584	89.2922
3.94284	89.4839
3.93984	89.6386
3.93685	89.7351
3.93386	89.6908
3.93088	89.7088
3.9279	89.7302
3.92493	89.7425
3.92196	89.7429
3.919	89.7797
3.91604	89.8351
3.91308	89.8427
3.91013	89.7906
3.90718	89.7546
3.90424	89.7776
3.9013	89.8094
3.89837	89.8063
3.89544	89.7348
3.89252	89.7535
3.8896	89.7825
3.88668	89.7729
3.88377	89.7449
3.88086	89.7395
3.87796	89.7382
3.87506	89.7231
3.87217	89.6807
3.86928	89.7443
3.86639	89.7285
3.86351	89.6518
3.86064	89.6537
3.85776	89.6379
3.8549	89.6961
3.85203	89.7599
3.84917	89.7526
3.84631	89.7466
3.84346	89.7507
3.84062	89.8233
3.83777	89.8062
3.83494	89.7503
3.8321	89.8106
3.82927	89.8909
3.82644	89.8981
3.82362	89.9361
3.82081	90.0532
3.81799	90.1422
3.81518	90.1946
3.81238	90.1886
3.80958	90.2588
3.80678	90.3491
3.80399	90.3657
3.8012	90.3723
3.79841	90.377
3.79563	90.3735
3.79286	90.3823
3.79008	90.4713
3.78731	90.544
3.78455	90.5208
3.78179	90.486
3.77903	90.4788
3.77628	90.4543
3.77353	90.4182
3.77079	90.3602
3.76805	90.3778
3.76531	90.392
3.76258	90.3373
3.75985	90.3338
3.75713	90.3826
3.7544	90.3844
3.75169	90.3238
3.74898	90.2428
3.74627	90.2175
3.74356	90.2298
3.74086	90.2833
3.73816	90.2685
3.73547	90.2107
3.73278	90.1971
3.7301	90.1392
3.72741	90.1305
3.72474	90.2005
3.72206	90.1207
3.71939	90.042
3.71673	89.9535
3.71406	89.9467
3.71141	90.0506
3.70875	90.0238
3.7061	89.9036
3.70345	89.8475
3.70081	89.8945
3.69817	89.8749
3.69553	89.7833
3.6929	89.7957
3.69027	89.8908
3.68765	89.8768
3.68503	89.7252
3.68241	89.6739
3.6798	89.6942
3.67719	89.6293
3.67458	89.5555
3.67198	89.4893
3.66938	89.4795
3.66678	89.5283
3.66419	89.5642
3.66161	89.562
3.65902	89.5023
3.65644	89.4645
3.65387	89.4343
3.65129	89.4065
3.64872	89.3748
3.64616	89.387
3.64359	89.359
3.64103	89.2561
3.63848	89.1592
3.63593	89.1707
3.63338	89.2581
3.63084	89.2428
3.6283	89.1782
3.62576	89.1202
3.62322	89.1211
3.62069	89.1387
3.61817	89.1229
3.61564	89.0502
3.61312	88.9625
3.61061	88.9618
3.6081	88.8945
3.60559	88.8262
3.60308	88.7803
3.60058	88.804
3.59808	88.836
3.59558	88.8216
3.59309	88.7329
3.59061	88.6562
3.58812	88.6833
3.58564	88.6314
3.58316	88.4968
3.58069	88.4158
3.57822	88.4132
3.57575	88.4459
3.57328	88.3619
3.57082	88.2963
3.56836	88.2836
3.56591	88.1885
3.56346	88.0737
3.56101	87.9642
3.55857	87.9228
3.55613	87.9284
3.55369	87.8368
3.55126	87.6698
3.54883	87.5322
3.5464	87.409
3.54397	87.3511
3.54155	87.2529
3.53914	87.1326
3.53672	87.0223
3.53431	86.9543
3.5319	86.8403
3.5295	86.6522
3.5271	86.53
3.5247	86.4177
3.52231	86.2894
3.51991	86.0716
3.51753	85.805
3.51514	85.5852
3.51276	85.2785
3.51038	84.9105
3.50801	84.6205
3.50563	84.4078
3.50327	84.2637
3.5009	84.2368
3.49854	84.2558
3.49618	84.282
3.49382	84.3229
3.49147	84.4574
3.48912	84.6072
3.48677	84.6395
3.48443	84.6144
3.48209	84.5421
3.47975	84.4707
3.47742	84.4378
3.47509	84.405
3.47276	84.4902
3.47044	84.5596
3.46812	84.5603
3.4658	84.6087
3.46348	84.6671
3.46117	84.6771
3.45886	84.6774
3.45656	84.6442
3.45425	84.5827
3.45195	84.5892
3.44966	84.5707
3.44736	84.4179
3.44507	84.2779
3.44279	84.1287
3.4405	83.9052
3.43822	83.7567
3.43594	83.6582
3.43367	83.5218
3.43139	83.1587
3.42912	82.8181
3.42686	82.5451
3.42459	82.2717
3.42233	82.0652
3.42007	81.9008
3.41782	81.7844
3.41557	81.7524
3.41332	81.8271
3.41108	81.9567
3.40883	82.0721
3.40659	82.2509
3.40435	82.4564
3.40212	82.553
3.39989	82.623
3.39766	82.8128
3.39544	82.977
3.39322	83.0798
3.391	83.1634
3.38878	83.1362
3.38657	83.1495
3.38436	83.1282
3.38215	83.0909
3.37994	83.0405
3.37774	82.9771
3.37554	82.9456
3.37335	82.8983
3.37115	82.9643
3.36896	83.0617
3.36678	83.1317
3.36459	83.2447
3.36241	83.2749
3.36023	83.3632
3.35805	83.5054
3.35588	83.5195
3.35371	83.5025
3.35154	83.5085
3.34938	83.5683
3.34721	83.6669
3.34505	83.8505
3.3429	84.0271
3.34074	84.1463
3.33859	84.2332
3.33644	84.2453
3.3343	84.2664
3.33215	84.3147
3.33001	84.4326
3.32788	84.4886
3.32574	84.4191
3.32361	84.4265
3.32148	84.3868
3.31936	84.2733
3.31723	84.2679
3.31511	84.3671
3.31299	84.4384
3.31088	84.3347
3.30876	84.1829
3.30665	84.2057
3.30455	84.2628
3.30244	84.1902
3.30034	84.164
3.29824	84.1774
3.29614	84.1063
3.29405	83.9716
3.29196	83.9398
3.28987	84.0212
3.28778	83.9282
3.2857	83.7776
3.28362	83.7241
3.28154	83.7113
3.27946	83.6978
3.27739	83.7197
3.27532	83.6922
3.27325	83.6275
3.27119	83.6403
3.26913	83.5715
3.26707	83.4256
3.26501	83.4278
3.26295	83.3885
3.2609	83.3242
3.25885	83.3097
3.2568	83.1834
3.25476	83.0639
3.25272	83.0595
3.25068	83.0376
3.24864	83.0424
3.24661	82.9991
3.24458	82.9428
3.24255	82.9666
3.24052	82.9355
3.2385	82.8863
3.23648	82.7992
3.23446	82.7669
3.23244	82.7603
3.23043	82.7247
3.22841	82.6393
3.2264	82.6704
3.2244	82.6528
3.22239	82.5232
3.22039	82.4659
3.21839	82.433
3.2164	82.3413
3.2144	82.269
3.21241	82.2107
3.21042	82.2017
3.20844	82.1194
3.20645	82.0217
3.20447	82.0309
3.20249	82.0681
3.20051	82.0586
3.19854	81.9813
3.19657	81.8986
3.1946	81.8689
3.19263	81.8813
3.19067	81.8193
3.1887	81.7278
3.18674	81.6509
3.18479	81.586
3.18283	81.4455
3.18088	81.3496
3.17893	81.3016
3.17698	81.3227
3.17504	81.3108
3.17309	81.2496
3.17115	81.2059
3.16921	81.1375
3.16728	81.0771
3.16534	80.9947
3.16341	80.9067
3.16148	80.8612
3.15956	80.8102
3.15763	80.8118
3.15571	80.7246
3.15379	80.5923
3.15187	80.5163
3.14996	80.5026
3.14805	80.5478
3.14614	80.4959
3.14423	80.3933
3.14232	80.4308
3.14042	80.3799
3.13852	80.2503
3.13662	80.2129
3.13472	80.1496
3.13283	80.1331
3.13094	80.1504
3.12905	80.1085
3.12716	80.0434
3.12528	79.9077
3.12339	79.8165
3.12151	79.8143
3.11964	79.8003
3.11776	79.7953
3.11589	79.7979
3.11401	79.7107
3.11214	79.5986
3.11028	79.5238
3.10841	79.4903
3.10655	79.4697
3.10469	79.4503
3.10283	79.4302
3.10098	79.4734
3.09912	79.4236
3.09727	79.2777
3.09542	79.3072
3.09358	79.2941
3.09173	79.1866
3.08989	79.1097
3.08805	79.1094
3.08621	79.0965
3.08437	79.0408
3.08254	79.0744
3.08071	79.0887
3.07888	78.9705
3.07705	78.9343
3.07523	78.968
3.0734	78.9495
3.07158	78.8431
3.06977	78.7697
3.06795	78.7703
3.06613	78.7698
3.06432	78.712
3.06251	78.6957
3.0607	78.6265
3.0589	78.6496
3.0571	78.697
3.05529	78.6801
3.05349	78.5984
3.0517	78.5552
3.0499	78.5079
3.04811	78.3765
3.04632	78.2456
3.04453	78.3048
3.04274	78.3374
3.04096	78.3307
3.03918	78.3437
3.0374	78.3055
3.03562	78.2468
3.03384	78.1356
3.03207	78.1198
3.03029	78.1492
3.02852	78.1611
3.02676	78.0784
3.02499	78.0305
3.02323	77.9862
3.02146	77.9981
3.0197	77.9681
3.01795	77.824
3.01619	77.7394
3.01444	77.7963
3.01269	77.8746
3.01094	77.8626
3.00919	77.8032
3.00744	77.7131
3.0057	77.7052
3.00396	77.659
3.00222	77.5465
3.00048	77.5334
2.99875	77.6043
2.99701	77.6207
2.99528	77.5938
2.99355	77.5023
2.99183	77.4971
2.9901	77.4789
2.98838	77.4617
2.98666	77.4851
2.98494	77.463
2.98322	77.4028
2.9815	77.4843
2.97979	77.4838
2.97808	77.3585
2.97637	77.2402
2.97466	77.1679
2.97295	77.1225
2.97125	77.2284
2.96955	77.2428
2.96785	77.1261
2.96615	77.0586
2.96446	77.0868
2.96276	77.1512
2.96107	77.1343
2.95938	77.2204
2.95769	77.2837
2.95601	77.2625
2.95432	77.2565
2.95264	77.1905
2.95096	77.2602
2.94928	77.323
2.9476	77.2926
2.94593	77.1456
2.94425	77.1066
2.94258	77.093
2.94092	77.1568
2.93925	77.2107
2.93758	77.2355
2.93592	77.2003
2.93426	77.1491
2.9326	77.1225
2.93094	77.1059
2.92928	77.1512
2.92763	77.2476
2.92598	77.2938
2.92433	77.3512
2.92268	77.3663
2.92103	77.2682
2.91939	77.2474
2.91775	77.2846
2.9161	77.2815
2.91447	77.2964
2.91283	77.3591
2.91119	77.4202
2.90956	77.4573
2.90793	77.5398
2.9063	77.5428
2.90467	77.5921
2.90304	77.6739
2.90142	77.7594
2.89979	77.7444
2.89817	77.7241
2.89656	77.7601
2.89494	77.745
2.89332	77.713
2.89171	77.7412
2.8901	77.9314
2.88849	78.0958
2.88688	78.1237
2.88527	78.1267
2.88367	78.0726
2.88206	78.0774
2.88046	78.1739
2.87886	78.2568
2.87727	78.3587
2.87567	78.3858
2.87408	78.3726
2.87248	78.5773
2.87089	78.641
2.8693	78.5814
2.86772	78.625
2.86613	78.7291
2.86455	78.7804
2.86297	78.8486
2.86139	78.9567
2.85981	79.0313
2.85823	79.0597
2.85666	79.1651
2.85508	79.31
2.85351	79.3398
2.85194	79.3369
2.85038	79.4827
2.84881	79.6252
2.84724	79.7153
2.84568	79.6839
2.84412	79.5475
2.84256	79.6369
2.841	79.8138
2.83945	80.0513
2.83789	80.3062
2.83634	80.3396
2.83479	80.3631
2.83324	80.3873
2.83169	80.4121
2.83015	80.4344
2.82861	80.5975
2.82706	80.6265
2.82552	80.5957
2.82398	80.7993
2.82245	80.9818
2.82091	81.2221
2.81938	81.3559
2.81784	81.155
2.81631	81.2645
2.81479	81.533
2.81326	81.4263
2.81173	81.368
2.81021	81.5136
2.80869	81.7091
2.80716	81.9027
2.80565	82.2181
2.80413	82.845
2.80261	83.0267
2.8011	82.3872
2.79959	82.0413
2.79808	82.1615
2.79657	82.3258
2.79506	82.3912
2.79355	82.5607
2.79205	82.6673
2.79055	82.8012
2.78904	83.3244
2.78754	84.0203
2.78605	83.7414
2.78455	83.0814
2.78306	83.3364
2.78156	83.6913
2.78007	83.5799
2.77858	83.4705
2.77709	83.5708
2.77561	83.5586
2.77412	83.6986
2.77264	84.339
2.77116	85.034
2.76968	84.9414
2.7682	85.0119
2.76672	84.8526
2.76524	84.7464
2.76377	85.4501
2.7623	85.5634
2.76083	84.7614
2.75936	84.6393
2.75789	85.1546
2.75642	86.8719
2.75496	87.5251
2.7535	86.0025
2.75203	85.5792
2.75057	85.5223
2.74912	85.6622
2.74766	85.8353
2.7462	85.9456
2.74475	86.2259
2.7433	86.897
2.74185	88.3257
2.7404	89.6043
2.73895	89.134
2.7375	87.5989
2.73606	87.8041
2.73462	88.4774
2.73318	87.7682
2.73174	87.4775
2.7303	87.6107
2.72886	87.7364
2.72742	88.184
2.72599	89.5922
2.72456	90.905
2.72313	90.131
2.7217	90.7909
2.72027	91.9165
2.71884	90.3161
2.71742	89.6833
2.71599	89.4247
2.71457	89.4447
2.71315	89.865
2.71173	91.6115
2.71032	92.1448
2.7089	91.2882
2.70748	90.4736
2.70607	90.1644
2.70466	90.2176
2.70325	90.4771
2.70184	91.2142
2.70043	91.3296
2.69903	91.1452
2.69762	91.503
2.69622	92.4553
2.69482	93.6525
2.69342	93.9222
2.69202	92.7718
2.69062	92.3847
2.68923	92.7089
2.68783	93.0469
2.68644	93.3435
2.68505	93.4413
2.68366	93.6646
2.68227	93.3985
2.68089	93.5249
2.6795	94.8051
2.67812	95.3875
2.67673	95.892
2.67535	94.9319
2.67397	93.8945
2.6726	94.2992
2.67122	96.9104
2.66984	97.1818
2.66847	95.5058
2.6671	96.8458
2.66572	97.2608
2.66435	96.0116
2.66299	94.3878
2.66162	94.4231
2.66025	94.6447
2.65889	94.2977
2.65753	93.7119
2.65616	94.3323
2.65481	94.4087
2.65345	94.5698
2.65209	94.6929
2.65073	93.9903
2.64938	93.6766
2.64803	93.8249
2.64667	94.3194
2.64532	94.5272
2.64397	93.9475
2.64263	93.9877
2.64128	94.022
2.63994	93.974
2.63859	93.9365
2.63725	93.9512
2.63591	93.9141
2.63457	94.4941
2.63323	94.65
2.6319	95.246
2.63056	96.6625
2.62923	95.4945
2.62789	95.0345
2.62656	95.7879
2.62523	94.6969
2.6239	94.0956
2.62258	94.2488
2.62125	95.7792
2.61993	96.2428
2.6186	95.4474
2.61728	96.4884
2.61596	95.8502
2.61464	94.5404
2.61332	94.5677
2.61201	94.4908
2.61069	94.8707
2.60938	95.2588
2.60807	95.389
2.60675	96.0978
2.60544	96.8448
2.60414	96.1012
2.60283	95.3806
2.60152	95.0769
2.60022	94.5953
2.59891	94.1879
2.59761	94.6846
2.59631	96.8552
2.59501	99.4976
2.59371	97.5346
2.59242	95.0307
2.59112	94.5494
2.58983	95.0082
2.58853	95.5004
2.58724	95.779
2.58595	95.2591
2.58466	96.035
2.58338	96.2367
2.58209	95.3281
2.5808	95.2761
2.57952	94.5637
2.57824	94.7903
2.57695	95.3916
2.57567	95.0097
2.5744	95.3361
2.57312	95.7105
2.57184	94.766
2.57057	95.1408
2.56929	95.4027
2.56802	94.6972
2.56675	94.3978
2.56548	94.9829
2.56421	95.7601
2.56294	96.0151
2.56168	96.0741
2.56041	95.3763
2.55915	94.4964
2.55789	94.2513
2.55662	94.3043
2.55536	94.3719
2.5541	94.6861
2.55285	94.9579
2.55159	94.7421
2.55034	94.455
2.54908	94.4033
2.54783	94.621
2.54658	94.4355
2.54533	94.3572
2.54408	94.6268
2.54283	94.8078
2.54159	94.5433
2.54034	94.4075
2.5391	94.4089
2.53785	94.4157
2.53661	94.5615
2.53537	94.4983
2.53413	94.3692
2.53289	94.5544
2.53166	94.5181
2.53042	94.3752
2.52919	94.3159
2.52795	94.352
2.52672	94.329
2.52549	94.3405
2.52426	94.3414
2.52303	94.3321
2.52181	94.2764
2.52058	94.3224
2.51936	94.2786
2.51813	94.2982
2.51691	94.3533
2.51569	94.3479
2.51447	94.2818
2.51325	94.2689
2.51203	94.3267
2.51082	94.3717
2.5096	94.321
2.50839	94.3082
2.50717	94.3123
2.50596	94.4203
2.50475	94.4176
2.50354	94.3609
2.50233	94.3026
2.50113	94.2989
2.49992	94.3894
2.49872	94.3595
2.49751	94.2916
2.49631	94.2339
2.49511	94.2935
2.49391	94.3475
2.49271	94.3385
2.49151	94.4168
2.49031	94.4381
2.48912	94.401
2.48792	94.4644
2.48673	94.5138
2.48554	94.4934
2.48435	94.4178
2.48316	94.4796
2.48197	94.4736
2.48078	94.3178
2.4796	94.289
2.47841	94.3525
2.47723	94.378
2.47604	94.4268
2.47486	94.4014
2.47368	94.4155
2.4725	94.5112
2.47132	94.5288
2.47014	94.4542
2.46897	94.3673
2.46779	94.302
2.46662	94.2971
2.46545	94.3791
2.46427	94.5042
2.4631	94.5058
2.46193	94.5021
2.46077	94.4361
2.4596	94.3196
2.45843	94.3986
2.45727	94.4796
2.4561	94.5079
2.45494	94.5479
2.45378	94.5671
2.45262	94.6555
2.45146	94.6906
2.4503	94.5751
2.44914	94.5082
2.44799	94.5355
2.44683	94.5326
2.44568	94.5138
2.44452	94.5941
2.44337	94.6996
2.44222	94.6182
2.44107	94.5486
2.43992	94.5509
2.43877	94.6047
2.43763	94.6708
2.43648	94.6075
2.43534	94.4933
2.43419	94.5298
2.43305	94.5432
2.43191	94.5162
2.43077	94.469
2.42963	94.5618
2.42849	94.5859
2.42736	94.6343
2.42622	94.6544
2.42509	94.6482
2.42395	94.6911
2.42282	94.6463
2.42169	94.5921
2.42056	94.7776
2.41943	94.8738
2.4183	94.7843
2.41717	94.7344
2.41605	94.726
2.41492	94.7169
2.4138	94.7673
2.41267	94.7633
2.41155	94.6027
2.41043	94.6841
2.40931	94.7885
2.40819	94.8609
2.40707	94.8735
2.40595	94.7489
2.40484	94.6394
2.40372	94.6967
2.40261	94.7875
2.4015	94.8278
2.40039	94.8553
2.39928	94.7484
2.39817	94.6658
2.39706	94.6503
2.39595	94.8038
2.39484	94.9428
2.39374	94.9083
2.39263	94.7397
2.39153	94.752
2.39043	94.8981
2.38932	94.8777
2.38822	94.9356
2.38712	94.9475
2.38603	94.86
2.38493	94.8449
2.38383	94.7738
2.38274	94.7642
2.38164	94.855
2.38055	94.9033
2.37946	94.915
2.37836	95.0345
2.37727	95.0217
2.37618	94.7998
2.3751	94.7557
2.37401	94.8658
2.37292	94.9121
2.37184	94.8828
2.37075	94.8836
2.36967	94.9299
2.36859	94.9186
2.3675	94.9354
2.36642	94.9373
2.36534	94.9158
2.36427	94.8662
2.36319	94.8585
2.36211	94.8539
2.36104	94.8617
2.35996	94.8606
2.35889	94.877
2.35781	94.9214
2.35674	94.9575
2.35567	95.112
2.3546	95.0884
2.35353	94.9086
2.35247	94.9952
2.3514	95.0705
2.35033	95.0087
2.34927	94.9728
2.3482	95.01
2.34714	94.8805
2.34608	94.8811
2.34502	94.9004
2.34396	94.8861
2.3429	94.884
2.34184	94.9254
2.34078	95.0927
2.33973	95.1464
2.33867	95.0626
2.33762	95.0099
2.33656	95.0775
2.33551	95.1134
2.33446	95.0406
2.33341	95.0831
2.33236	95.1355
2.33131	95.0017
2.33026	94.9388
2.32922	94.9747
2.32817	95.0001
2.32712	95.0747
2.32608	95.0059
2.32504	94.9081
2.324	95.0667
2.32295	95.1809
2.32191	95.2332
2.32087	95.2124
2.31984	95.054
2.3188	94.9446
2.31776	95.008
2.31673	95.1587
2.31569	95.3007
2.31466	95.1648
2.31362	94.9451
2.31259	95.0331
2.31156	95.0931
2.31053	94.9808
2.3095	95.0216
2.30847	95.0577
2.30745	94.9961
2.30642	94.9747
2.3054	94.9905
2.30437	95.0458
2.30335	94.9998
2.30232	95.0072
2.3013	95.116
2.30028	95.1533
2.29926	95.0165
2.29824	95.0107
2.29722	95.0406
2.29621	95.0693
2.29519	95.1261
2.29417	95.1953
2.29316	95.1806
2.29215	95.1416
2.29113	95.0956
2.29012	94.9846
2.28911	95.0413
2.2881	95.1677
2.28709	95.1108
2.28608	95.0092
2.28507	95.1634
2.28407	95.2813
2.28306	95.1702
2.28206	95.0552
2.28105	95.0635
2.28005	95.1238
2.27905	95.1982
2.27805	95.2276
2.27705	95.1698
2.27605	95.1514
2.27505	95.161
2.27405	95.264
2.27305	95.2556
2.27206	95.063
2.27106	95.037
2.27007	95.1785
2.26907	95.2544
2.26808	95.2837
2.26709	95.2119
2.2661	95.1338
2.26511	95.1351
2.26412	95.1283
2.26313	95.1271
2.26214	95.1939
2.26116	95.181
2.26017	95.1969
2.25919	95.21
2.2582	95.132
2.25722	95.131
2.25624	95.3127
2.25526	95.2808
2.25428	95.2551
2.2533	95.1889
2.25232	95.1283
2.25134	95.2134
2.25036	95.17
2.24939	95.1362
2.24841	95.1162
2.24744	95.1489
2.24646	95.3337
2.24549	95.4278
2.24452	95.4038
2.24355	95.4765
2.24257	95.4182
2.24161	95.2698
2.24064	95.3057
2.23967	95.3167
2.2387	95.1653
2.23774	95.1975
2.23677	95.2532
2.23581	95.3215
2.23484	95.4083
2.23388	95.364
2.23292	95.3586
2.23196	95.3803
2.231	95.2773
2.23004	95.2881
2.22908	95.3408
2.22812	95.3584
2.22716	95.3492
2.22621	95.2956
2.22525	95.2174
2.2243	95.2677
2.22334	95.354
2.22239	95.3893
2.22144	95.4246
2.22049	95.3392
2.21953	95.2425
2.21859	95.1931
2.21764	95.1489
2.21669	95.191
2.21574	95.3154
2.21479	95.4303
2.21385	95.4008
2.2129	95.2505
2.21196	95.27
2.21102	95.2992
2.21007	95.1469
2.20913	95.0778
2.20819	95.2105
2.20725	95.388
2.20631	95.4274
2.20537	95.2937
2.20444	95.2614
2.2035	95.4097
2.20256	95.3773
2.20163	95.3525
2.20069	95.3936
2.19976	95.3421
2.19883	95.2994
2.19789	95.1669
2.19696	95.0881
2.19603	95.2686
2.1951	95.4141
2.19417	95.4161
2.19325	95.4719
2.19232	95.4427
2.19139	95.3711
2.19047	95.2625
2.18954	95.2719
2.18862	95.3527
2.18769	95.4256
2.18677	95.4437
2.18585	95.4687
2.18493	95.5373
2.18401	95.3486
2.18309	95.1852
2.18217	95.278
2.18125	95.2136
2.18033	95.2763
2.17942	95.4018
2.1785	95.3854
2.17759	95.3941
2.17667	95.4762
2.17576	95.428
2.17485	95.3976
2.17393	95.4555
2.17302	95.415
2.17211	95.3547
2.1712	95.3355
2.17029	95.2909
2.16939	95.2688
2.16848	95.2479
2.16757	95.3501
2.16667	95.4127
2.16576	95.4376
2.16486	95.3563
2.16395	95.3083
2.16305	95.3928
2.16215	95.3786
2.16125	95.3781
2.16035	95.3203
2.15945	95.3228
2.15855	95.4238
2.15765	95.4186
2.15675	95.2183
2.15586	95.0879
2.15496	95.1423
2.15406	95.2618
2.15317	95.195
2.15228	95.2212
2.15138	95.4958
2.15049	95.6104
2.1496	95.3933
2.14871	95.3524
2.14782	95.2988
2.14693	95.2959
2.14604	95.3867
2.14515	95.4197
2.14427	95.3932
2.14338	95.3207
2.14249	95.3515
2.14161	95.2926
2.14072	95.2248
2.13984	95.2057
2.13896	95.132
2.13808	95.1323
2.13719	95.2677
2.13631	95.4354
2.13543	95.4996
2.13455	95.492
2.13368	95.3649
2.1328	95.2651
2.13192	95.2983
2.13105	95.3833
2.13017	95.5215
2.1293	95.43
2.12842	95.2054
2.12755	95.3125
2.12668	95.4553
2.1258	95.4257
2.12493	95.5461
2.12406	95.5534
2.12319	95.3806
2.12232	95.3679
2.12145	95.4306
2.12059	95.3283
2.11972	95.2367
2.11885	95.1689
2.11799	95.3018
2.11712	95.3737
2.11626	95.4285
2.1154	95.5028
2.11453	95.2984
2.11367	95.3017
2.11281	95.414
2.11195	95.3065
2.11109	95.2782
2.11023	95.3484
2.10937	95.431
2.10851	95.5341
2.10766	95.5153
2.1068	95.4156
2.10594	95.3616
2.10509	95.289
2.10423	95.4701
2.10338	95.5635
2.10253	95.5018
2.10168	95.48
2.10082	95.4419
2.09997	95.3529
2.09912	95.277
2.09827	95.309
2.09742	95.4156
2.09658	95.3841
2.09573	95.4691
2.09488	95.547
2.09404	95.5785
2.09319	95.553
2.09235	95.4683
2.0915	95.498
2.09066	95.6033
2.08982	95.5856
2.08897	95.3784
2.08813	95.2551
2.08729	95.3571
2.08645	95.5564
2.08561	95.6597
2.08477	95.6236
2.08394	95.4196
2.0831	95.2945
2.08226	95.3447
2.08143	95.2487
2.08059	95.4278
2.07976	95.5356
2.07892	95.3384
2.07809	95.0315
2.07726	94.9566
2.07643	95.161
2.07559	95.1908
2.07476	95.3113
2.07393	95.6345
2.0731	95.399
2.07228	95.154
2.07145	95.4242
2.07062	95.3755
2.06979	95.1163
2.06897	95.1499
2.06814	95.5177
2.06732	95.7442
2.06649	95.4573
2.06567	95.2467
2.06485	95.2382
2.06403	95.2872
2.0632	95.3235
2.06238	95.2575
2.06156	95.4379
2.06074	95.5185
2.05993	95.2735
2.05911	95.3002
2.05829	95.4187
2.05747	95.2603
2.05666	95.1859
2.05584	95.1668
2.05503	95.1048
2.05421	95.1039
2.0534	95.3108
2.05259	95.5524
2.05177	95.619
2.05096	95.5295
2.05015	95.4496
2.04934	95.4904
2.04853	95.4918
2.04772	95.3084
2.04691	95.2826
2.04611	95.3455
2.0453	95.3187
2.04449	95.3517
2.04369	95.2971
2.04288	95.3222
2.04208	95.4476
2.04127	95.4051
2.04047	95.381
2.03967	95.4835
2.03886	95.2842
2.03806	95.1796
2.03726	95.3125
2.03646	95.2488
2.03566	95.1875
2.03486	95.3108
2.03407	95.4015
2.03327	95.409
2.03247	95.3174
2.03167	95.3291
2.03088	95.513
2.03008	95.5783
2.02929	95.3036
2.0285	95.1828
2.0277	95.3279
2.02691	95.4795
2.02612	95.3341
2.02533	95.105
2.02453	95.0968
2.02374	95.1681
2.02295	95.2393
2.02217	95.3237
2.02138	95.3789
2.02059	95.3224
2.0198	95.2523
2.01902	95.2109
2.01823	95.1207
2.01744	95.2229
2.01666	95.2318
2.01588	95.0892
2.01509	95.1872
2.01431	95.384
2.01353	95.3667
2.01275	95.1487
2.01196	95.0958
2.01118	95.1825
2.0104	95.1846
2.00963	95.1104
2.00885	95.2291
2.00807	95.2542
2.00729	95.2207
2.00651	95.1584
2.00574	95.183
2.00496	95.3208
2.00419	95.5156
2.00341	95.474
2.00264	95.3237
2.00187	95.2824
2.00109	95.298
2.00032	95.4045
