Name: Molybdenite MoS_2
Type: Mineral
Class: Sulfides
Subclass: 
Particle Size: 45-125um
Sample No.: S-11A
Owner: JPL
Wavelength range: IR
Origin: Norway, Arendal, Froland
Collected by JPL
Description: 





Measurement: Hemispherical reflectance
First Column: X
Second Column: Y
X Units:  Wavelength (micrometers)
Y Units:  Reflectance (percent)
First X Value: 15.3853
Last X Value: 2.00032
Number of X Values: 2256
Additional information: s11aa.txt
 
15.3853	31.6308
15.3397	31.3756
15.2945	31.033
15.2495	30.6247
15.2048	30.539
15.1603	30.7947
15.1161	31.0205
15.0722	31.2111
15.0285	31.4646
14.9851	31.0442
14.9419	30.8817
14.8989	30.9694
14.8563	30.8553
14.8138	30.4194
14.7716	30.2665
14.7296	30.8429
14.6879	31.1143
14.6464	31.4296
14.6052	32.6915
14.5641	33.9906
14.5233	34.6156
14.4828	34.9123
14.4424	34.751
14.4023	34.2613
14.3624	33.7405
14.3227	32.7747
14.2833	31.407
14.244	30.5301
14.205	30.1324
14.1662	30.0431
14.1276	30.4887
14.0892	31.265
14.051	31.8284
14.0131	31.9064
13.9753	31.7134
13.9377	31.4686
13.9004	30.9253
13.8632	30.123
13.8262	29.6678
13.7895	29.8261
13.7529	30.1903
13.7165	30.64
13.6803	30.7689
13.6443	30.7185
13.6085	30.4853
13.5729	30.008
13.5374	29.6657
13.5022	29.4805
13.4671	29.2354
13.4322	29.1074
13.3975	28.9306
13.363	28.5655
13.3286	28.1965
13.2944	27.923
13.2604	27.7553
13.2266	27.6484
13.193	27.6058
13.1595	27.6353
13.1262	27.6372
13.093	27.4845
13.06	27.4584
13.0272	28.1357
12.9946	29.0784
12.9621	29.656
12.9298	29.8648
12.8976	29.4589
12.8656	28.5717
12.8337	27.7616
12.8021	27.7321
12.7705	28.2983
12.7391	28.8834
12.7079	29.2846
12.6769	29.657
12.6459	30.2302
12.6152	30.96
12.5845	31.888
12.5541	32.6887
12.5238	33.1643
12.4936	33.2905
12.4635	33.2437
12.4337	33.2557
12.4039	33.2769
12.3743	33.0842
12.3448	32.9733
12.3155	32.9661
12.2863	32.8368
12.2573	32.4855
12.2284	32.027
12.1996	31.5258
12.171	31.1382
12.1425	31.2368
12.1141	32.0635
12.0859	33.3977
12.0578	34.6786
12.0298	35.4798
12.0019	35.8642
11.9742	36.2175
11.9466	36.4919
11.9192	36.6474
11.8918	36.6697
11.8646	36.6471
11.8375	36.7325
11.8106	36.8606
11.7837	36.9451
11.757	36.9123
11.7304	36.8755
11.7039	36.8525
11.6776	36.8608
11.6513	36.9119
11.6252	36.913
11.5992	36.9229
11.5733	36.8377
11.5475	36.7999
11.5219	36.9097
11.4963	36.9372
11.4709	36.9973
11.4455	37.0274
11.4203	37.0741
11.3952	37.1148
11.3702	37.0303
11.3454	36.9578
11.3206	36.9172
11.2959	36.8432
11.2714	36.7207
11.2469	36.4835
11.2226	36.2076
11.1983	35.9464
11.1742	35.7215
11.1502	35.5824
11.1263	35.4421
11.1024	35.3546
11.0787	35.2702
11.0551	35.1758
11.0316	35.2051
11.0081	35.2348
10.9848	35.1535
10.9616	35.1037
10.9385	35.1876
10.9154	35.3865
10.8925	35.5711
10.8697	35.7945
10.8469	36.0195
10.8243	36.2481
10.8017	36.4657
10.7793	36.551
10.7569	36.4342
10.7346	36.3905
10.7125	36.4506
10.6904	36.3717
10.6684	36.2304
10.6465	36.1058
10.6247	36.0064
10.6029	35.8911
10.5813	35.8597
10.5597	35.9348
10.5383	36.053
10.5169	36.1834
10.4956	36.1938
10.4744	36.1764
10.4533	36.172
10.4323	36.2984
10.4113	36.4895
10.3904	36.7291
10.3697	36.9507
10.349	37.2676
10.3284	37.5742
10.3078	37.761
10.2874	37.8747
10.267	38.0015
10.2467	37.9934
10.2265	37.831
10.2064	37.6501
10.1863	37.6506
10.1663	37.6144
10.1464	37.5386
10.1266	37.5386
10.1069	37.5078
10.0872	37.3749
10.0676	37.2211
10.0481	37.2122
10.0287	37.3113
10.0093	37.3274
9.99005	37.2046
9.97084	37.1583
9.95169	37.12
9.93263	37.0627
9.91364	37.0789
9.89472	37.0922
9.87587	37.1238
9.8571	37.1108
9.83839	37.1961
9.81976	37.2332
9.80119	37.1195
9.78271	37.0739
9.76428	36.9779
9.74592	36.9911
9.72764	36.9477
9.70943	36.8752
9.69128	36.7512
9.6732	36.5845
9.65518	36.5205
9.63724	36.559
9.61935	36.6717
9.60155	36.7708
9.5838	36.8201
9.56611	36.9003
9.5485	36.8944
9.53094	37.0049
9.51345	37.1453
9.49604	37.0857
9.47867	36.9559
9.46137	37.0442
9.44414	37.2346
9.42697	37.317
9.40986	37.3775
9.39281	37.5354
9.37583	37.722
9.35891	37.865
9.34204	37.9836
9.32524	38.0221
9.3085	38.1321
9.29182	38.2692
9.27519	38.1101
9.25863	38.0113
9.24213	38.2176
9.22568	38.358
9.2093	38.3866
9.19297	38.3571
9.17669	38.3091
9.16048	38.2904
9.14433	38.3403
9.12823	38.3142
9.11218	38.367
9.0962	38.4213
9.08027	38.2825
9.06439	38.1304
9.04858	38.1326
9.03281	38.3145
9.0171	38.3518
9.00145	38.2464
8.98585	38.1304
8.9703	38.1456
8.9548	38.2525
8.93937	38.2815
8.92398	38.2894
8.90865	38.3054
8.89337	38.2779
8.87814	38.2441
8.86296	38.3055
8.84784	38.296
8.83277	38.3564
8.81774	38.2778
8.80277	38.2821
8.78786	38.4786
8.77298	38.5889
8.75816	38.6043
8.7434	38.7632
8.72868	38.9242
8.714	38.9194
8.69938	38.9724
8.68481	39.0197
8.67029	38.9613
8.65581	38.8058
8.64139	38.7102
8.62701	38.6974
8.61268	38.8166
8.5984	39.0058
8.58416	39.1652
8.56997	39.3604
8.55583	39.4375
8.54174	39.3638
8.52769	39.4584
8.51368	39.6566
8.49973	39.6954
8.48582	39.7813
8.47195	39.9815
8.45813	40.1107
8.44436	40.1186
8.43062	40.0722
8.41693	40.0924
8.4033	40.2164
8.3897	40.3285
8.37614	40.3815
8.36264	40.3492
8.34917	40.4418
8.33574	40.5363
8.32236	40.5492
8.30903	40.4721
8.29573	40.4983
8.28248	40.5634
8.26927	40.583
8.2561	40.7121
8.24298	40.8672
8.2299	40.8778
8.21685	41.0524
8.20385	41.2449
8.19089	41.2969
8.17797	41.29
8.16509	41.343
8.15225	41.565
8.13946	41.7397
8.1267	41.8009
8.11398	41.9427
8.10131	42.0857
8.08867	42.2332
8.07606	42.4168
8.0635	42.6186
8.05099	42.8302
8.0385	42.9852
8.02606	43.155
8.01366	43.3865
8.00129	43.5956
7.98896	43.8039
7.97667	44.0132
7.96442	44.2174
7.9522	44.3908
7.94002	44.5264
7.92788	44.6771
7.91578	44.8636
7.90371	44.9905
7.89168	45.1855
7.87969	45.3068
7.86773	45.481
7.85581	45.6533
7.84392	45.7756
7.83207	45.9444
7.82026	46.0479
7.80849	46.0742
7.79674	46.2164
7.78503	46.4081
7.77337	46.5122
7.76173	46.6055
7.75012	46.7424
7.73856	46.8589
7.72703	46.9453
7.71553	47.0167
7.70406	47.085
7.69263	47.1194
7.68123	47.2253
7.66987	47.3011
7.65855	47.3809
7.64725	47.4405
7.63598	47.4688
7.62475	47.5414
7.61356	47.5956
7.60239	47.738
7.59126	48.0151
7.58017	48.0274
7.5691	48.0071
7.55806	48.0694
7.54707	48.1745
7.5361	48.3408
7.52516	48.4595
7.51425	48.4807
7.50338	48.5187
7.49253	48.6013
7.48172	48.7502
7.47094	48.7882
7.46019	48.709
7.44947	48.5148
7.43879	48.4877
7.42813	48.4893
7.4175	48.4772
7.4069	48.4133
7.39634	48.4678
7.3858	48.4351
7.37529	48.3669
7.36482	48.3931
7.35437	48.4686
7.34396	48.6201
7.33357	48.5268
7.32321	48.1654
7.31288	48.106
7.30258	48.1126
7.29231	48.0717
7.28207	48.1972
7.27185	48.1184
7.26167	47.7895
7.25152	47.6617
7.24139	47.5595
7.23129	47.5547
7.22122	47.6311
7.21117	47.9432
7.20116	47.8079
7.19117	47.4361
7.18121	47.3934
7.17128	47.6266
7.16137	47.3278
7.1515	47.1379
7.14164	46.7842
7.13182	46.1358
7.12203	45.8818
7.11225	45.6832
7.10251	45.3017
7.0928	45.0176
7.08311	44.7222
7.07344	44.3874
7.06381	44.3309
7.0542	44.789
7.04461	45.0156
7.03506	44.2124
7.02552	43.8818
7.01601	43.819
7.00653	43.6946
6.99708	43.8628
6.98765	43.8777
6.97824	43.7818
6.96886	44.268
6.95951	44.9177
6.95018	44.3272
6.94087	44.0269
6.9316	44.1275
6.92234	44.2513
6.91311	44.485
6.90391	44.7174
6.89473	44.6386
6.88557	44.7875
6.87644	45.3575
6.86733	46.9171
6.85824	46.9932
6.84918	45.861
6.84015	45.5913
6.83114	46.1532
6.82215	46.4266
6.81319	46.3384
6.80424	46.8944
6.79532	48.343
6.78643	49.0792
6.77756	48.7558
6.76871	48.6279
6.75989	48.6114
6.75109	48.8758
6.74231	48.9504
6.73355	49.1764
6.72482	49.6966
6.71611	50.1507
6.70742	50.1586
6.69875	49.7273
6.69011	50.2163
6.68149	50.9746
6.67289	50.6962
6.66431	50.1592
6.65576	50.0286
6.64722	51.2475
6.63871	52.9689
6.63022	52.0549
6.62175	50.5909
6.61331	50.2404
6.60488	50.0542
6.59648	50.3979
6.5881	50.5416
6.57974	50.9833
6.5714	51.5515
6.56308	50.6117
6.55478	50.277
6.54651	49.9887
6.53825	49.6024
6.53001	49.797
6.5218	50.4826
6.51361	50.0713
6.50544	50.3823
6.49729	52.3143
6.48915	52.5096
6.48104	51.2816
6.47295	50.527
6.46488	49.8361
6.45683	49.7293
6.4488	49.7816
6.44079	49.8148
6.4328	50.1699
6.42482	50.871
6.41687	52.7254
6.40894	51.9939
6.40103	49.5243
6.39314	48.8108
6.38526	48.6127
6.37741	48.7531
6.36957	48.9463
6.36176	48.1541
6.35396	48.0925
6.34618	49.0285
6.33843	48.2534
6.33069	47.0926
6.32297	46.864
6.31527	46.6667
6.30758	46.4632
6.29992	46.2774
6.29227	46.1447
6.28465	46.0104
6.27704	45.8398
6.26945	45.6092
6.26188	45.3937
6.25432	45.1821
6.24679	45.0763
6.23927	44.9098
6.23177	44.7237
6.22429	44.6292
6.21683	44.5619
6.20938	44.3955
6.20195	44.1938
6.19454	44.4286
6.18715	45.3578
6.17978	44.8643
6.17242	44.0412
6.16508	44.3901
6.15776	44.6916
6.15045	44.4435
6.14317	44.3279
6.1359	44.1526
6.12864	44.094
6.12141	44.877
6.11419	45.9618
6.10699	45.2883
6.0998	44.4609
6.09263	44.3685
6.08549	44.5556
6.07835	45.4404
6.07123	45.845
6.06413	45.1186
6.05705	45.8771
6.04998	48.0475
6.04293	46.5987
6.0359	44.7434
6.02888	44.4143
6.02187	44.645
6.01489	45.0259
6.00792	44.6671
6.00096	44.4326
5.99403	45.1164
5.98711	45.3697
5.9802	44.8408
5.97331	45.1026
5.96644	45.2502
5.95958	44.4994
5.95274	44.4221
5.94591	44.9618
5.9391	46.5382
5.9323	46.1474
5.92552	44.7909
5.91876	44.6709
5.91201	44.6202
5.90528	44.9397
5.89856	46.2862
5.89186	46.2774
5.88517	46.8307
5.8785	47.0932
5.87184	45.6026
5.8652	45.6227
5.85857	45.4913
5.85196	45.2739
5.84536	45.2596
5.83878	45.6193
5.83221	46.4131
5.82566	47.5368
5.81912	47.6104
5.81259	46.6607
5.80608	46.4379
5.79959	46.631
5.79311	46.7206
5.78665	46.9561
5.78019	47.3162
5.77376	48.2589
5.76734	49.7167
5.76093	48.95
5.75453	48.2202
5.74815	48.7619
5.74179	48.6964
5.73543	48.8176
5.7291	48.9872
5.72277	49.353
5.71646	49.913
5.71017	50.3394
5.70389	49.8932
5.69762	49.8496
5.69136	50.1946
5.68513	50.1587
5.6789	50.5352
5.67268	50.6547
5.66648	50.3647
5.6603	50.6649
5.65413	50.9532
5.64797	51.3187
5.64182	51.8563
5.63569	51.2503
5.62957	50.7421
5.62347	50.7931
5.61737	51.0314
5.61129	51.0876
5.60522	51.2659
5.59917	51.408
5.59313	51.3187
5.5871	51.7197
5.58109	52.4675
5.57509	52.4048
5.5691	51.9907
5.56312	52.1769
5.55716	52.5403
5.55121	52.7224
5.54528	52.6137
5.53935	52.6509
5.53344	52.7818
5.52754	53.0607
5.52166	53.3551
5.51578	53.4402
5.50992	53.4737
5.50407	53.6762
5.49823	53.7308
5.49241	53.8855
5.4866	54.1
5.4808	54.449
5.47501	54.4814
5.46923	54.6665
5.46347	54.8912
5.45772	54.5789
5.45198	54.4528
5.44625	54.5244
5.44054	54.4884
5.43484	54.414
5.42914	54.6947
5.42347	55.2373
5.4178	54.8397
5.41214	54.3267
5.4065	54.1841
5.40087	54.0579
5.39525	53.9324
5.38964	53.7611
5.38404	53.7126
5.37846	53.6524
5.37288	53.5375
5.36732	53.4411
5.36177	53.5476
5.35623	53.859
5.35071	54.1155
5.34519	53.8441
5.33968	53.5804
5.33419	53.5925
5.32871	53.5791
5.32324	53.6001
5.31778	53.6303
5.31233	53.6768
5.30689	53.7648
5.30147	53.802
5.29605	54.0033
5.29065	54.0887
5.28525	53.9386
5.27987	54.0504
5.2745	54.152
5.26914	54.1825
5.26379	54.2875
5.25845	54.3986
5.25312	54.5144
5.24781	54.6287
5.2425	54.6951
5.23721	54.918
5.23192	55.0716
5.22665	55.1303
5.22138	55.2674
5.21613	55.5939
5.21089	55.6635
5.20566	55.5669
5.20044	55.5656
5.19522	55.4904
5.19002	55.5371
5.18483	55.5948
5.17965	55.5504
5.17448	55.5583
5.16933	55.5785
5.16418	55.5997
5.15904	55.628
5.15391	55.6632
5.14879	55.7556
5.14368	55.6699
5.13859	55.5845
5.1335	55.5951
5.12842	55.5775
5.12335	55.5982
5.1183	55.6207
5.11325	55.6164
5.10821	55.5386
5.10318	55.5352
5.09817	55.508
5.09316	55.5344
5.08816	55.5295
5.08317	55.5522
5.07819	55.4914
5.07322	55.4209
5.06826	55.3983
5.06331	55.4331
5.05837	55.425
5.05344	55.3801
5.04852	55.3963
5.04361	55.3674
5.03871	55.379
5.03382	55.4368
5.02894	55.4171
5.02406	55.499
5.0192	55.5505
5.01435	55.4435
5.0095	55.4294
5.00467	55.4516
4.99984	55.455
4.99502	55.4823
4.99021	55.5059
4.98542	55.5664
4.98063	55.6434
4.97585	55.7512
4.97108	55.8584
4.96632	55.9374
4.96156	55.9833
4.95682	56.1374
4.95209	56.2323
4.94736	56.2112
4.94264	56.1945
4.93794	56.2225
4.93324	56.284
4.92855	56.3869
4.92387	56.4779
4.9192	56.5623
4.91453	56.6371
4.90988	56.7298
4.90524	56.8879
4.9006	57.1051
4.89597	57.2463
4.89135	57.3395
4.88674	57.4272
4.88214	57.6051
4.87755	57.7652
4.87296	57.8405
4.86839	57.8609
4.86382	57.9069
4.85926	57.9579
4.85471	57.9631
4.85017	57.952
4.84564	58.0838
4.84111	58.1255
4.8366	58.1259
4.83209	58.1956
4.82759	58.214
4.8231	58.1889
4.81862	58.2672
4.81415	58.2238
4.80968	58.1896
4.80522	58.2137
4.80077	58.2914
4.79633	58.3476
4.7919	58.3671
4.78747	58.3509
4.78306	58.3027
4.77865	58.3217
4.77425	58.3571
4.76986	58.3802
4.76547	58.4161
4.7611	58.3777
4.75673	58.3553
4.75237	58.3596
4.74802	58.3461
4.74367	58.3923
4.73934	58.4723
4.73501	58.4482
4.73069	58.4648
4.72638	58.4528
4.72207	58.4379
4.71777	58.439
4.71348	58.4219
4.7092	58.4111
4.70493	58.3819
4.70066	58.3023
4.69641	58.3016
4.69216	58.314
4.68791	58.3008
4.68368	58.23
4.67945	58.2566
4.67523	58.321
4.67102	58.3156
4.66682	58.2509
4.66262	58.3076
4.65843	58.3384
4.65425	58.2814
4.65007	58.3117
4.64591	58.3631
4.64175	58.4118
4.6376	58.4396
4.63345	58.497
4.62932	58.4937
4.62519	58.3694
4.62106	58.346
4.61695	58.3852
4.61284	58.3752
4.60874	58.4021
4.60465	58.475
4.60056	58.4913
4.59648	58.4754
4.59241	58.4633
4.58835	58.4941
4.58429	58.5187
4.58024	58.4418
4.5762	58.3772
4.57216	58.3381
4.56814	58.362
4.56411	58.4089
4.5601	58.4299
4.55609	58.3976
4.55209	58.3393
4.5481	58.2825
4.54411	58.2623
4.54013	58.2815
4.53616	58.2808
4.5322	58.2555
4.52824	58.2074
4.52429	58.1448
4.52034	58.1067
4.51641	58.0209
4.51247	57.9271
4.50855	57.9566
4.50463	57.9587
4.50072	57.899
4.49682	57.8631
4.49292	57.8191
4.48903	57.8088
4.48515	57.8579
4.48127	57.8849
4.4774	57.8273
4.47354	57.7465
4.46968	57.6735
4.46584	57.6399
4.46199	57.6809
4.45815	57.72
4.45432	57.7316
4.4505	57.7342
4.44668	57.7011
4.44287	57.6876
4.43907	57.7154
4.43527	57.7059
4.43148	57.7257
4.4277	57.735
4.42392	57.708
4.42015	57.7369
4.41638	57.7323
4.41262	57.6954
4.40887	57.702
4.40513	57.7216
4.40139	57.7345
4.39765	57.7471
4.39393	57.7826
4.39021	57.8163
4.38649	57.787
4.38278	57.765
4.37908	57.7824
4.37539	57.7388
4.3717	57.6985
4.36801	57.7004
4.36434	57.764
4.36067	57.7366
4.357	57.6388
4.35335	57.6205
4.34969	57.6708
4.34605	57.6507
4.34241	57.6194
4.33877	57.5175
4.33514	57.3853
4.33152	57.3708
4.32791	57.3524
4.3243	57.2475
4.32069	57.1488
4.3171	57.0697
4.31351	56.9649
4.30992	56.7712
4.30634	56.6057
4.30277	56.484
4.2992	56.4739
4.29564	56.3671
4.29208	56.1151
4.28853	55.9885
4.28499	56.0026
4.28145	55.9387
4.27792	55.9025
4.27439	55.8883
4.27087	55.9161
4.26735	56.0486
4.26384	56.2777
4.26034	56.5719
4.25684	56.7084
4.25335	56.4841
4.24986	56.1181
4.24638	55.7746
4.24291	55.4368
4.23944	55.2226
4.23598	55.1674
4.23252	55.1106
4.22906	55.1239
4.22562	55.2956
4.22218	55.5247
4.21874	55.7135
4.21531	55.9747
4.21189	56.2188
4.20847	56.4384
4.20506	56.6679
4.20165	56.7504
4.19825	56.7947
4.19485	56.8839
4.19146	56.8256
4.18807	56.6861
4.18469	56.6424
4.18132	56.6796
4.17795	56.7058
4.17458	56.7051
4.17123	56.6666
4.16787	56.6386
4.16453	56.627
4.16118	56.5997
4.15785	56.5998
4.15451	56.6232
4.15119	56.622
4.14787	56.5354
4.14455	56.4796
4.14124	56.4835
4.13794	56.4511
4.13464	56.4194
4.13134	56.3454
4.12805	56.2847
4.12477	56.3371
4.12149	56.2963
4.11822	56.2099
4.11495	56.2545
4.11168	56.2984
4.10843	56.2352
4.10517	56.1672
4.10192	56.1238
4.09868	56.0902
4.09545	56.1064
4.09221	56.062
4.08899	56.0214
4.08576	56.0152
4.08255	55.9814
4.07933	55.9582
4.07613	55.9812
4.07292	55.9926
4.06973	55.9332
4.06654	55.8933
4.06335	55.8573
4.06017	55.79
4.05699	55.754
4.05382	55.7662
4.05065	55.8
4.04749	55.8302
4.04433	55.7915
4.04118	55.7053
4.03803	55.6585
4.03489	55.6157
4.03175	55.581
4.02862	55.6362
4.02549	55.6864
4.02237	55.6218
4.01925	55.5932
4.01614	55.5839
4.01303	55.5415
4.00993	55.4669
4.00683	55.4631
4.00373	55.403
4.00064	55.3412
3.99756	55.3439
3.99448	55.3832
3.9914	55.3488
3.98833	55.2726
3.98527	55.2769
3.98221	55.2184
3.97915	55.1643
3.9761	55.2256
3.97305	55.2385
3.97001	55.1814
3.96697	55.1428
3.96394	55.1477
3.96091	55.196
3.95789	55.1939
3.95487	55.1458
3.95186	55.1075
3.94885	55.0696
3.94584	55.0431
3.94284	54.9281
3.93984	54.8683
3.93685	54.9305
3.93386	54.985
3.93088	54.9655
3.9279	54.9377
3.92493	54.9146
3.92196	54.923
3.919	54.9559
3.91604	54.9003
3.91308	54.8024
3.91013	54.8241
3.90718	54.7886
3.90424	54.7239
3.9013	54.6916
3.89837	54.6906
3.89544	54.6676
3.89252	54.6839
3.8896	54.7318
3.88668	54.6867
3.88377	54.5874
3.88086	54.567
3.87796	54.5342
3.87506	54.5008
3.87217	54.483
3.86928	54.4887
3.86639	54.4938
3.86351	54.4506
3.86064	54.3651
3.85776	54.3405
3.8549	54.3212
3.85203	54.3118
3.84917	54.2687
3.84631	54.2261
3.84346	54.2269
3.84062	54.2089
3.83777	54.172
3.83494	54.1716
3.8321	54.155
3.82927	54.1537
3.82644	54.0974
3.82362	54.079
3.82081	54.0913
3.81799	54.0259
3.81518	53.9515
3.81238	53.9781
3.80958	53.9255
3.80678	53.827
3.80399	53.7493
3.8012	53.7149
3.79841	53.7941
3.79563	53.8045
3.79286	53.7256
3.79008	53.7682
3.78731	53.8584
3.78455	53.8017
3.78179	53.6539
3.77903	53.4975
3.77628	53.4468
3.77353	53.5253
3.77079	53.5653
3.76805	53.5299
3.76531	53.518
3.76258	53.4335
3.75985	53.3405
3.75713	53.3245
3.7544	53.2852
3.75169	53.2426
3.74898	53.2919
3.74627	53.2624
3.74356	53.2252
3.74086	53.2538
3.73816	53.2253
3.73547	53.1157
3.73278	53.0441
3.7301	53.0462
3.72741	53.0653
3.72474	53.0889
3.72206	53.0251
3.71939	52.9145
3.71673	52.8686
3.71406	52.8639
3.71141	52.8044
3.70875	52.7218
3.7061	52.7569
3.70345	52.7969
3.70081	52.6625
3.69817	52.597
3.69553	52.617
3.6929	52.6137
3.69027	52.5676
3.68765	52.4962
3.68503	52.4007
3.68241	52.2907
3.6798	52.2912
3.67719	52.2828
3.67458	52.2389
3.67198	52.1498
3.66938	52.0723
3.66678	52.0936
3.66419	52.0961
3.66161	52.0236
3.65902	51.9714
3.65644	51.9444
3.65387	51.9267
3.65129	51.923
3.64872	51.869
3.64616	51.7667
3.64359	51.6927
3.64103	51.6225
3.63848	51.6086
3.63593	51.5538
3.63338	51.5159
3.63084	51.4765
3.6283	51.4303
3.62576	51.3513
3.62322	51.2787
3.62069	51.3182
3.61817	51.2927
3.61564	51.1603
3.61312	51.0087
3.61061	50.9728
3.6081	50.9715
3.60559	50.9239
3.60308	50.9065
3.60058	50.8439
3.59808	50.7978
3.59558	50.7566
3.59309	50.637
3.59061	50.6079
3.58812	50.5438
3.58564	50.4447
3.58316	50.3597
3.58069	50.3254
3.57822	50.3025
3.57575	50.2543
3.57328	50.1761
3.57082	50.1109
3.56836	50.0516
3.56591	50.014
3.56346	49.9083
3.56101	49.8284
3.55857	49.7417
3.55613	49.6495
3.55369	49.571
3.55126	49.4928
3.54883	49.4563
3.5464	49.3608
3.54397	49.2488
3.54155	49.2021
3.53914	49.1071
3.53672	48.9584
3.53431	48.8085
3.5319	48.626
3.5295	48.4019
3.5271	48.1369
3.5247	47.8172
3.52231	47.5044
3.51991	47.2023
3.51753	46.9312
3.51514	46.6837
3.51276	46.4542
3.51038	46.3278
3.50801	46.2963
3.50563	46.2695
3.50327	46.301
3.5009	46.4129
3.49854	46.5293
3.49618	46.6074
3.49382	46.645
3.49147	46.714
3.48912	46.71
3.48677	46.6508
3.48443	46.5987
3.48209	46.522
3.47975	46.5283
3.47742	46.5725
3.47509	46.6341
3.47276	46.5651
3.47044	46.4162
3.46812	46.3457
3.4658	46.337
3.46348	46.2507
3.46117	46.158
3.45886	46.0474
3.45656	45.9818
3.45425	45.8211
3.45195	45.5456
3.44966	45.3334
3.44736	45.0604
3.44507	44.8211
3.44279	44.6052
3.4405	44.2609
3.43822	43.8964
3.43594	43.531
3.43367	43.0832
3.43139	42.616
3.42912	42.2174
3.42686	41.9953
3.42459	41.911
3.42233	42.1496
3.42007	42.594
3.41782	42.9387
3.41557	43.2541
3.41332	43.5082
3.41108	43.6467
3.40883	43.7952
3.40659	43.9465
3.40435	44.0148
3.40212	44.0586
3.39989	44.0823
3.39766	44.0899
3.39544	44.0148
3.39322	43.8886
3.391	43.8335
3.38878	43.6917
3.38657	43.6647
3.38436	43.7364
3.38215	43.8135
3.37994	43.9059
3.37774	43.985
3.37554	44.1581
3.37335	44.3349
3.37115	44.3772
3.36896	44.585
3.36678	44.8682
3.36459	44.9189
3.36241	44.9581
3.36023	45.074
3.35805	45.1737
3.35588	45.2183
3.35371	45.1936
3.35154	45.1598
3.34938	45.1514
3.34721	45.1041
3.34505	45.0998
3.3429	45.1308
3.34074	45.2486
3.33859	45.1479
3.33644	45.0079
3.3343	44.9672
3.33215	44.8949
3.33001	44.9234
3.32788	44.9437
3.32574	44.8538
3.32361	44.8221
3.32148	44.8891
3.31936	44.8777
3.31723	44.8578
3.31511	44.8818
3.31299	44.7967
3.31088	44.6705
3.30876	44.6411
3.30665	44.5658
3.30455	44.4024
3.30244	44.3738
3.30034	44.3787
3.29824	44.3609
3.29614	44.3029
3.29405	44.262
3.29196	44.1615
3.28987	44.1067
3.28778	44.153
3.2857	44.1604
3.28362	44.0424
3.28154	43.9426
3.27946	43.8905
3.27739	43.8825
3.27532	43.8548
3.27325	43.8267
3.27119	43.8131
3.26913	43.771
3.26707	43.7493
3.26501	43.6779
3.26295	43.6145
3.2609	43.6631
3.25885	43.6181
3.2568	43.5863
3.25476	43.5298
3.25272	43.3601
3.25068	43.3325
3.24864	43.346
3.24661	43.2882
3.24458	43.1823
3.24255	43.1162
3.24052	43.1888
3.2385	43.2799
3.23648	43.2298
3.23446	43.1612
3.23244	43.1515
3.23043	43.1982
3.22841	43.1463
3.2264	43.1291
3.2244	43.0684
3.22239	43.0616
3.22039	43.0159
3.21839	43.0164
3.2164	42.962
3.2144	42.9126
3.21241	42.8597
3.21042	42.835
3.20844	42.89
3.20645	42.9236
3.20447	42.8779
3.20249	42.7761
3.20051	42.7589
3.19854	42.7821
3.19657	42.7339
3.1946	42.744
3.19263	42.7157
3.19067	42.6357
3.1887	42.5647
3.18674	42.6592
3.18479	42.6297
3.18283	42.4865
3.18088	42.4619
3.17893	42.3564
3.17698	42.3039
3.17504	42.3156
3.17309	42.3297
3.17115	42.3158
3.16921	42.3017
3.16728	42.2961
3.16534	42.1886
3.16341	42.0556
3.16148	42.0781
3.15956	42.1482
3.15763	42.0656
3.15571	41.9611
3.15379	42.0022
3.15187	41.9751
3.14996	41.8764
3.14805	41.8471
3.14614	41.7542
3.14423	41.736
3.14232	41.7705
3.14042	41.74
3.13852	41.6732
3.13662	41.6515
3.13472	41.5634
3.13283	41.4969
3.13094	41.5267
3.12905	41.5992
3.12716	41.6233
3.12528	41.6011
3.12339	41.543
3.12151	41.4554
3.11964	41.4762
3.11776	41.5822
3.11589	41.6245
3.11401	41.4959
3.11214	41.3829
3.11028	41.3456
3.10841	41.3046
3.10655	41.238
3.10469	41.2631
3.10283	41.329
3.10098	41.4072
3.09912	41.3931
3.09727	41.3183
3.09542	41.2918
3.09358	41.2071
3.09173	41.1135
3.08989	41.046
3.08805	41.1369
3.08621	41.3196
3.08437	41.3663
3.08254	41.3864
3.08071	41.338
3.07888	41.2604
3.07705	41.2742
3.07523	41.3711
3.0734	41.374
3.07158	41.3437
3.06977	41.3619
3.06795	41.3345
3.06613	41.2707
3.06432	41.3002
3.06251	41.3766
3.0607	41.4057
3.0589	41.4753
3.0571	41.5206
3.05529	41.4844
3.05349	41.5638
3.0517	41.5272
3.0499	41.448
3.04811	41.4931
3.04632	41.6281
3.04453	41.6795
3.04274	41.7183
3.04096	41.7813
3.03918	41.8033
3.0374	41.8294
3.03562	41.878
3.03384	41.9268
3.03207	41.9142
3.03029	41.8771
3.02852	41.9334
3.02676	41.9913
3.02499	42.0425
3.02323	42.1608
3.02146	42.1807
3.0197	42.2145
3.01795	42.2069
3.01619	42.2393
3.01444	42.2244
3.01269	42.2235
3.01094	42.2765
3.00919	42.3098
3.00744	42.3306
3.0057	42.3571
3.00396	42.4274
3.00222	42.5799
3.00048	42.6388
2.99875	42.5241
2.99701	42.5197
2.99528	42.5728
2.99355	42.5641
2.99183	42.6605
2.9901	42.7473
2.98838	42.6855
2.98666	42.7534
2.98494	42.7828
2.98322	42.8053
2.9815	42.6986
2.97979	42.6641
2.97808	42.7874
2.97637	42.812
2.97466	42.773
2.97295	42.7327
2.97125	42.7215
2.96955	42.7093
2.96785	42.7368
2.96615	42.7074
2.96446	42.6523
2.96276	42.7051
2.96107	42.7538
2.95938	42.7367
2.95769	42.8317
2.95601	42.878
2.95432	42.9275
2.95264	42.9326
2.95096	42.9351
2.94928	42.895
2.9476	42.8336
2.94593	42.7933
2.94425	42.7859
2.94258	42.8198
2.94092	42.7508
2.93925	42.7677
2.93758	42.9015
2.93592	42.9451
2.93426	42.8949
2.9326	42.9335
2.93094	42.9388
2.92928	42.893
2.92763	42.9085
2.92598	42.9949
2.92433	43.1293
2.92268	43.2177
2.92103	43.2428
2.91939	43.1708
2.91775	43.1092
2.9161	43.0519
2.91447	43.1882
2.91283	43.2645
2.91119	43.2464
2.90956	43.341
2.90793	43.3176
2.9063	43.2404
2.90467	43.4373
2.90304	43.5666
2.90142	43.6641
2.89979	43.5412
2.89817	43.4604
2.89656	43.5694
2.89494	43.6972
2.89332	43.737
2.89171	43.7544
2.8901	43.7407
2.88849	43.8038
2.88688	43.8073
2.88527	43.6612
2.88367	43.7803
2.88206	43.9428
2.88046	43.9732
2.87886	44.0559
2.87727	44.0763
2.87567	43.9889
2.87408	44.0437
2.87248	44.1097
2.87089	44.1628
2.8693	44.1714
2.86772	44.1913
2.86613	44.2813
2.86455	44.3135
2.86297	44.2786
2.86139	44.3397
2.85981	44.4156
2.85823	44.3942
2.85666	44.4858
2.85508	44.6568
2.85351	44.7353
2.85194	44.6394
2.85038	44.7555
2.84881	44.9436
2.84724	44.997
2.84568	44.987
2.84412	44.872
2.84256	44.9113
2.841	45.0641
2.83945	45.1572
2.83789	45.2716
2.83634	45.2505
2.83479	45.2008
2.83324	45.2818
2.83169	45.4368
2.83015	45.4349
2.82861	45.4584
2.82706	45.4803
2.82552	45.421
2.82398	45.539
2.82245	45.809
2.82091	46.0046
2.81938	46.0192
2.81784	45.9135
2.81631	45.9174
2.81479	45.9829
2.81326	45.9882
2.81173	46.0699
2.81021	46.178
2.80869	46.2387
2.80716	46.285
2.80565	46.5114
2.80413	47.0828
2.80261	47.209
2.8011	46.7223
2.79959	46.5781
2.79808	46.7067
2.79657	46.7902
2.79506	46.8108
2.79355	46.864
2.79205	46.9575
2.79055	47.0429
2.78904	47.3861
2.78754	47.9697
2.78605	48.0409
2.78455	47.7909
2.78306	47.7723
2.78156	47.6692
2.78007	47.6535
2.77858	47.7727
2.77709	47.853
2.77561	47.907
2.77412	48.0328
2.77264	48.3143
2.77116	48.8075
2.76968	48.7772
2.7682	48.918
2.76672	49.0118
2.76524	48.9701
2.76377	49.2993
2.7623	49.4295
2.76083	49.1292
2.75936	49.0329
2.75789	49.4
2.75642	50.5919
2.75496	51.0608
2.7535	50.2865
2.75203	50.1811
2.75057	50.1169
2.74912	50.1161
2.74766	50.2577
2.7462	50.5367
2.74475	50.7474
2.7433	51.2394
2.74185	52.383
2.7404	53.2593
2.73895	52.8732
2.7375	51.9641
2.73606	52.198
2.73462	52.6519
2.73318	52.3879
2.73174	52.4175
2.7303	52.5404
2.72886	52.6979
2.72742	53.1999
2.72599	54.2872
2.72456	55.2414
2.72313	54.9771
2.7217	55.6167
2.72027	56.3114
2.71884	55.1835
2.71742	54.7202
2.71599	54.5516
2.71457	54.766
2.71315	55.1906
2.71173	56.5298
2.71032	56.9752
2.7089	56.3996
2.70748	55.8694
2.70607	55.661
2.70466	55.752
2.70325	56.0478
2.70184	56.6397
2.70043	56.7678
2.69903	56.5812
2.69762	56.8286
2.69622	57.479
2.69482	58.2654
2.69342	58.6162
2.69202	57.8929
2.69062	57.5996
2.68923	57.9308
2.68783	58.2524
2.68644	58.3817
2.68505	58.4771
2.68366	58.7362
2.68227	58.6264
2.68089	58.5955
2.6795	59.3013
2.67812	59.78
2.67673	60.3018
2.67535	59.681
2.67397	58.9279
2.6726	59.1323
2.67122	61.0914
2.66984	61.362
2.66847	60.146
2.6671	61.0114
2.66572	61.3838
2.66435	60.5102
2.66299	59.2504
2.66162	59.2407
2.66025	59.3801
2.65889	59.298
2.65753	58.8831
2.65616	59.1724
2.65481	59.2654
2.65345	59.4991
2.65209	59.5745
2.65073	59.0634
2.64938	58.8805
2.64803	58.9577
2.64667	59.2184
2.64532	59.4565
2.64397	59.1544
2.64263	59.1008
2.64128	59.1068
2.63994	59.0686
2.63859	59.0471
2.63725	59.0722
2.63591	59.1135
2.63457	59.5245
2.63323	59.6067
2.6319	60.0735
2.63056	61.0231
2.62923	60.1409
2.62789	59.7974
2.62656	60.301
2.62523	59.4473
2.6239	59.0368
2.62258	59.1697
2.62125	60.2586
2.61993	60.5584
2.6186	59.9036
2.61728	60.5809
2.61596	60.393
2.61464	59.5913
2.61332	59.4956
2.61201	59.2873
2.61069	59.4891
2.60938	59.7446
2.60807	59.9229
2.60675	60.6127
2.60544	61.1226
2.60414	60.3981
2.60283	59.9311
2.60152	59.6394
2.60022	59.2717
2.59891	59.2161
2.59761	59.6697
2.59631	61.2327
2.59501	63.0687
2.59371	61.5671
2.59242	59.5757
2.59112	59.2973
2.58983	59.56
2.58853	59.9925
2.58724	60.229
2.58595	59.8002
2.58466	60.3599
2.58338	60.5123
2.58209	59.7868
2.5808	59.7757
2.57952	59.431
2.57824	59.6132
2.57695	59.9222
2.57567	59.5629
2.5744	59.8527
2.57312	60.2517
2.57184	59.5435
2.57057	59.717
2.56929	59.8865
2.56802	59.356
2.56675	59.0785
2.56548	59.4891
2.56421	60.0631
2.56294	60.2879
2.56168	60.2959
2.56041	59.937
2.55915	59.435
2.55789	59.176
2.55662	59.1686
2.55536	59.1801
2.5541	59.2477
2.55285	59.5418
2.55159	59.6
2.55034	59.4494
2.54908	59.3368
2.54783	59.3467
2.54658	59.1936
2.54533	59.1899
2.54408	59.3531
2.54283	59.411
2.54159	59.2386
2.54034	59.1296
2.5391	59.1701
2.53785	59.1644
2.53661	59.1847
2.53537	59.1065
2.53413	59.0569
2.53289	59.1276
2.53166	59.1671
2.53042	59.1543
2.52919	59.1483
2.52795	59.241
2.52672	59.2579
2.52549	59.1519
2.52426	59.0932
2.52303	59.08
2.52181	59.0364
2.52058	59.1295
2.51936	59.1314
2.51813	59.0676
2.51691	59.1336
2.51569	59.175
2.51447	59.0945
2.51325	59.0428
2.51203	59.0373
2.51082	59.079
2.5096	59.148
2.50839	59.2267
2.50717	59.155
2.50596	59.0268
2.50475	58.9422
2.50354	59.0164
2.50233	59.1096
2.50113	59.1067
2.49992	59.1259
2.49872	59.1756
2.49751	59.1492
2.49631	59.0794
2.49511	59.0608
2.49391	59.1302
2.49271	59.0763
2.49151	59.1131
2.49031	59.1402
2.48912	59.085
2.48792	59.012
2.48673	59.013
2.48554	59.0403
2.48435	59.0552
2.48316	59.052
2.48197	59.0025
2.48078	58.9997
2.4796	59.0178
2.47841	59.0089
2.47723	58.9989
2.47604	58.9971
2.47486	59.044
2.47368	59.0986
2.4725	59.0524
2.47132	59.0133
2.47014	58.9737
2.46897	59.0491
2.46779	59.1545
2.46662	59.1544
2.46545	59.1173
2.46427	59.1182
2.4631	59.1023
2.46193	59.0755
2.46077	59.0366
2.4596	59.0773
2.45843	59.15
2.45727	59.1244
2.4561	59.0858
2.45494	59.0726
2.45378	59.0086
2.45262	58.9916
2.45146	58.9908
2.4503	58.9927
2.44914	58.9654
2.44799	58.9643
2.44683	59.0337
2.44568	59.1355
2.44452	59.1341
2.44337	59.1298
2.44222	59.1286
2.44107	59.1152
2.43992	59.1467
2.43877	59.1223
2.43763	58.918
2.43648	58.9813
2.43534	59.1807
2.43419	59.0861
2.43305	58.936
2.43191	58.9975
2.43077	59.198
2.42963	59.2993
2.42849	59.132
2.42736	59.0209
2.42622	59.0056
2.42509	59.0456
2.42395	59.019
2.42282	59.0227
2.42169	59.0787
2.42056	59.1355
2.41943	59.123
2.4183	59.1492
2.41717	59.2586
2.41605	59.337
2.41492	59.3119
2.4138	59.0786
2.41267	58.9369
2.41155	58.9014
2.41043	59.0218
2.40931	59.0704
2.40819	59.0413
2.40707	59.0777
2.40595	59.0667
2.40484	59.138
2.40372	59.0891
2.40261	59.2103
2.4015	59.2914
2.40039	59.1613
2.39928	59.1176
2.39817	59.1478
2.39706	59.1971
2.39595	59.1871
2.39484	59.2311
2.39374	59.3186
2.39263	59.2805
2.39153	59.2954
2.39043	59.2511
2.38932	59.093
2.38822	59.0983
2.38712	59.1737
2.38603	59.1157
2.38493	59.1038
2.38383	59.158
2.38274	59.1684
2.38164	59.1227
2.38055	59.1154
2.37946	59.2092
2.37836	59.2726
2.37727	59.2422
2.37618	59.2506
2.3751	59.147
2.37401	59.1489
2.37292	59.2376
2.37184	59.2573
2.37075	59.2265
2.36967	59.1894
2.36859	59.2028
2.3675	59.2763
2.36642	59.2483
2.36534	59.1754
2.36427	59.0902
2.36319	59.0666
2.36211	59.2346
2.36104	59.2518
2.35996	59.1184
2.35889	59.1737
2.35781	59.227
2.35674	59.1505
2.35567	59.1403
2.3546	59.1601
2.35353	59.1519
2.35247	59.2344
2.3514	59.2108
2.35033	59.1134
2.34927	59.1418
2.3482	59.1763
2.34714	59.0908
2.34608	59.0852
2.34502	59.1139
2.34396	59.1807
2.3429	59.2634
2.34184	59.2762
2.34078	59.1278
2.33973	58.9836
2.33867	59.0386
2.33762	59.2127
2.33656	59.274
2.33551	59.2651
2.33446	59.2329
2.33341	59.132
2.33236	59.1127
2.33131	59.1807
2.33026	59.2857
2.32922	59.2622
2.32817	59.2014
2.32712	59.3468
2.32608	59.3146
2.32504	59.268
2.324	59.2696
2.32295	59.1594
2.32191	59.0195
2.32087	59.1642
2.31984	59.3136
2.3188	59.2188
2.31776	59.1101
2.31673	59.2734
2.31569	59.233
2.31466	59.1153
2.31362	59.0861
2.31259	59.1805
2.31156	59.3027
2.31053	59.2974
2.3095	59.2036
2.30847	59.1733
2.30745	59.1812
2.30642	59.2757
2.3054	59.2489
2.30437	59.2712
2.30335	59.3299
2.30232	59.3745
2.3013	59.3279
2.30028	59.1795
2.29926	59.0591
2.29824	59.0808
2.29722	59.1673
2.29621	59.2665
2.29519	59.4062
2.29417	59.4568
2.29316	59.2737
2.29215	59.2169
2.29113	59.2825
2.29012	59.3366
2.28911	59.1498
2.2881	59.0754
2.28709	59.2701
2.28608	59.4456
2.28507	59.4201
2.28407	59.3035
2.28306	59.2152
2.28206	59.3305
2.28105	59.4336
2.28005	59.3538
2.27905	59.2181
2.27805	59.188
2.27705	59.283
2.27605	59.3822
2.27505	59.3858
2.27405	59.4046
2.27305	59.3181
2.27206	59.2513
2.27106	59.3183
2.27007	59.3577
2.26907	59.3026
2.26808	59.3181
2.26709	59.2669
2.2661	59.2618
2.26511	59.2478
2.26412	59.2296
2.26313	59.331
2.26214	59.3562
2.26116	59.341
2.26017	59.3621
2.25919	59.3509
2.2582	59.3616
2.25722	59.334
2.25624	59.3159
2.25526	59.2106
2.25428	59.1837
2.2533	59.2623
2.25232	59.1496
2.25134	59.1343
2.25036	59.2751
2.24939	59.364
2.24841	59.3734
2.24744	59.375
2.24646	59.5142
2.24549	59.4294
2.24452	59.2806
2.24355	59.1459
2.24257	58.9925
2.24161	59.0443
2.24064	59.1916
2.23967	59.2216
2.2387	59.2677
2.23774	59.2471
2.23677	59.2686
2.23581	59.3754
2.23484	59.37
2.23388	59.3469
2.23292	59.2894
2.23196	59.2426
2.231	59.1165
2.23004	59.129
2.22908	59.1949
2.22812	59.2089
2.22716	59.2141
2.22621	59.107
2.22525	59.1856
2.2243	59.2563
2.22334	59.1432
2.22239	59.1029
2.22144	59.1407
2.22049	59.1123
2.21953	59.0949
2.21859	59.053
2.21764	58.9509
2.21669	59.0588
2.21574	59.2552
2.21479	59.2489
2.21385	59.0731
2.2129	59.0385
2.21196	59.0523
2.21102	59.0349
2.21007	59.0608
2.20913	58.9182
2.20819	58.8482
2.20725	58.8925
2.20631	59.0783
2.20537	59.0949
2.20444	59.0186
2.2035	59.099
2.20256	59.0719
2.20163	59.0162
2.20069	59.0115
2.19976	58.9674
2.19883	59.0572
2.19789	59.1687
2.19696	59.0822
2.19603	58.9796
2.1951	58.9446
2.19417	58.9359
2.19325	59.0805
2.19232	59.0907
2.19139	59.1694
2.19047	59.1009
2.18954	59.1063
2.18862	59.1604
2.18769	59.1443
2.18677	59.1022
2.18585	59.0754
2.18493	59.0308
2.18401	59
2.18309	59.0589
2.18217	59.1061
2.18125	59.1125
2.18033	59.1032
2.17942	59.1327
2.1785	59.0653
2.17759	58.9925
2.17667	58.9015
2.17576	58.9559
2.17485	59.1176
2.17393	59.1104
2.17302	58.9123
2.17211	58.8931
2.1712	59.0448
2.17029	59.0461
2.16939	59.0698
2.16848	59.0405
2.16757	59.1415
2.16667	59.1312
2.16576	59.0189
2.16486	58.7752
2.16395	58.9056
2.16305	59.175
2.16215	59.0717
2.16125	58.8921
2.16035	58.8709
2.15945	59.0154
2.15855	59.1098
2.15765	59.103
2.15675	58.8744
2.15586	58.8158
2.15496	59.0227
2.15406	59.1749
2.15317	59.0127
2.15228	58.7125
2.15138	58.9061
2.15049	59.0588
2.1496	58.9505
2.14871	58.9161
2.14782	58.692
2.14693	58.57
2.14604	58.6485
2.14515	58.762
2.14427	59.0556
2.14338	59.0703
2.14249	58.908
2.14161	58.9205
2.14072	59.0398
2.13984	59.0504
2.13896	58.8821
2.13808	58.8916
2.13719	58.9776
2.13631	58.9934
2.13543	59.0227
2.13455	59.0456
2.13368	58.9056
2.1328	58.7431
2.13192	58.7213
2.13105	58.8006
2.13017	58.9469
2.1293	59.0194
2.12842	58.9607
2.12755	58.9247
2.12668	58.9002
2.1258	58.7418
2.12493	58.7173
2.12406	58.581
2.12319	58.6843
2.12232	58.833
2.12145	58.742
2.12059	58.7024
2.11972	58.736
2.11885	58.7923
2.11799	58.8141
2.11712	58.8445
2.11626	58.9564
2.1154	58.9352
2.11453	58.7091
2.11367	58.6516
2.11281	58.7316
2.11195	58.7238
2.11109	58.7768
2.11023	58.7747
2.10937	58.6342
2.10851	58.6204
2.10766	58.7874
2.1068	59.0234
2.10594	58.9623
2.10509	58.8709
2.10423	58.8582
2.10338	58.8404
2.10253	58.7889
2.10168	58.9263
2.10082	58.9177
2.09997	58.9531
2.09912	58.9746
2.09827	58.8361
2.09742	58.8345
2.09658	58.7795
2.09573	58.614
2.09488	58.6968
2.09404	58.7422
2.09319	58.759
2.09235	58.7678
2.0915	58.623
2.09066	58.5481
2.08982	58.7165
2.08897	58.8492
2.08813	58.7572
2.08729	58.6272
2.08645	58.6515
2.08561	58.7588
2.08477	58.6814
2.08394	58.6451
2.0831	58.5399
2.08226	58.3519
2.08143	58.3135
2.08059	58.5164
2.07976	58.6236
2.07892	58.6301
2.07809	58.4204
2.07726	58.5533
2.07643	58.5993
2.07559	58.5857
2.07476	58.6192
2.07393	58.576
2.0731	58.3917
2.07228	58.5797
2.07145	58.6844
2.07062	58.8789
2.06979	58.8804
2.06897	58.6631
2.06814	58.4213
2.06732	58.4968
2.06649	58.4468
2.06567	58.3919
2.06485	58.3628
2.06403	58.563
2.0632	58.6441
2.06238	58.5688
2.06156	58.3483
2.06074	58.3997
2.05993	58.6242
2.05911	58.6851
2.05829	58.5733
2.05747	58.4405
2.05666	58.2775
2.05584	58.1868
2.05503	58.3972
2.05421	58.645
2.0534	58.6532
2.05259	58.6504
2.05177	58.6046
2.05096	58.5887
2.05015	58.4584
2.04934	58.4823
2.04853	58.5127
2.04772	58.2943
2.04691	58.171
2.04611	58.2514
2.0453	58.3658
2.04449	58.5006
2.04369	58.5631
2.04288	58.5404
2.04208	58.3578
2.04127	58.1837
2.04047	58.2911
2.03967	58.2879
2.03886	58.221
2.03806	58.3405
2.03726	58.2754
2.03646	58.0762
2.03566	58.1396
2.03486	58.3244
2.03407	58.2714
2.03327	58.2281
2.03247	58.2781
2.03167	58.5103
2.03088	58.3292
2.03008	57.8936
2.02929	57.9214
2.0285	58.1141
2.0277	58.2586
2.02691	58.0853
2.02612	58.0149
2.02533	58.2249
2.02453	58.239
2.02374	58.1012
2.02295	58.1038
2.02217	58.3485
2.02138	58.4094
2.02059	58.1847
2.0198	58.1266
2.01902	58.1187
2.01823	58.0056
2.01744	58.1259
2.01666	58.2546
2.01588	58.2699
2.01509	58.2407
2.01431	58.2053
2.01353	58.1279
2.01275	58.1185
2.01196	58.0364
2.01118	57.9706
2.0104	57.9203
2.00963	57.9179
2.00885	57.9961
2.00807	58.0474
2.00729	58.0859
2.00651	58.2018
2.00574	58.3017
2.00496	58.2036
2.00419	57.9653
2.00341	57.8742
2.00264	57.9902
2.00187	57.9165
2.00109	57.906
2.00032	57.9448
