Name: Dolomitic Limestone
Type: Rock
Class: Sedimentary
Subclass:  Limestone 
Particle Size: Solid surface
Sample No.: Ward74.txt
Owner: JPL
Wavelength range:  IR
Origin: Ward's Collection of American Rocks.  Sample locality - Rochester, Monroe County, New York.
Collected by:  Ward's Natural Science
Description: A dark gray dolomitic rock with occasional cavities that
may be filled with crystallized minerals.
Geologic age - Silurian (Niagaran).



Measurement: Hemispherical reflectance
First Column: X
Second Column: Y
X Units: Wavelength (micrometers)
Y Units: Reflectance (percent)
First X Value: 15.3871
Last X Value: 1.9998
Number of X Values: 2257
Additional information: None

15.3871   3.46858
15.3416   3.54753
15.2964   3.44884
15.2514   3.41498
15.2066   3.51957
15.1622   3.75730
15.1180   3.84974
15.0740   3.83180
15.0303   3.54064
14.9869   3.49213
14.9437   3.66838
14.9008   3.70570
14.8581   3.98786
14.8156   4.09366
14.7734   3.86536
14.7314   3.90349
14.6897   4.01345
14.6482   3.94089
14.6069   3.88119
14.5659   3.89240
14.5251   4.04520
14.4845   4.24758
14.4442   4.10087
14.4041   4.16697
14.3642   4.44312
14.3245   4.45844
14.2850   4.43949
14.2458   4.47909
14.2068   4.51970
14.1679   4.51729
14.1293   4.41471
14.0909   4.32235
14.0528   4.34069
14.0148   4.31966
13.9770   4.33912
13.9394   4.41575
13.9021   4.34834
13.8649   4.43384
13.8279   4.80777
13.7911   5.22394
13.7546   5.84036
13.7182   5.76446
13.6820   4.15374
13.6460   2.48681
13.6101   2.26492
13.5745   2.67861
13.5391   2.82032
13.5038   2.95042
13.4687   3.29418
13.4339   3.50109
13.3991   3.58490
13.3646   3.72098
13.3302   3.98671
13.2961   4.09830
13.2621   4.03586
13.2282   4.28318
13.1946   4.43835
13.1611   4.59658
13.1278   4.91361
13.0946   4.98816
13.0616   4.94310
13.0288   5.15467
12.9962   5.23443
12.9637   5.29311
12.9313   5.33686
12.8992   5.30052
12.8672   5.30294
12.8353   5.44498
12.8036   5.67656
12.7721   5.84891
12.7407   5.84836
12.7095   5.83934
12.6784   5.76703
12.6475   5.77816
12.6167   5.78031
12.5861   5.76058
12.5556   5.89978
12.5253   6.09517
12.4951   6.02890
12.4651   6.01815
12.4352   6.30245
12.4054   6.37490
12.3758   6.21324
12.3463   6.29230
12.3170   6.56637
12.2878   6.70813
12.2588   6.62332
12.2299   6.62995
12.2011   6.68259
12.1725   6.68493
12.1439   6.73245
12.1156   6.72539
12.0873   6.57678
12.0592   6.61798
12.0312   6.80344
12.0034   6.82398
11.9757   6.79736
11.9481   6.69192
11.9206   6.82809
11.8933   6.97923
11.8661   6.98080
11.8390   6.93774
11.8120   6.88685
11.7852   6.65521
11.7584   6.16833
11.7318   5.78356
11.7053   5.91310
11.6790   6.36671
11.6527   6.62736
11.6266   6.82773
11.6006   6.92474
11.5747   7.06848
11.5489   7.44248
11.5233   7.61379
11.4977   7.77930
11.4723   8.42144
11.4469   9.50633
11.4217  10.79460
11.3966  12.17840
11.3716  13.78500
11.3468  15.85900
11.3220  18.45890
11.2973  21.25950
11.2728  23.37350
11.2483  24.93730
11.2240  26.29300
11.1997  27.32430
11.1756  27.61480
11.1515  26.47420
11.1276  22.27230
11.1038  16.34840
11.0801  12.28560
11.0564  10.33290
11.0329   9.33565
11.0095   8.86677
10.9862   8.49372
10.9629   8.12724
10.9398   8.04136
10.9168   7.93208
10.8938   7.59939
10.8710   7.52467
10.8483   7.58056
10.8256   7.53180
10.8031   7.42177
10.7806   7.40168
10.7582   7.45537
10.7360   7.47646
10.7138   7.43082
10.6917   7.35008
10.6697   7.26887
10.6478   7.26478
10.6260   7.41922
10.6042   7.44859
10.5826   7.16928
10.5610   7.09491
10.5396   7.21813
10.5182   7.35298
10.4969   7.26636
10.4757   7.16582
10.4546   7.19610
10.4335   7.33893
10.4126   7.47235
10.3917   7.46989
10.3709   7.36155
10.3502   7.17508
10.3296   6.91702
10.3091   6.82184
10.2886   6.87244
10.2683   6.94549
10.2480   6.87480
10.2277   6.86130
10.2076   6.83505
10.1876   6.68434
10.1676   6.54806
10.1477   6.57889
10.1279   6.52069
10.1081   6.38312
10.0885   6.42858
10.0689   6.48901
10.0494   6.49659
10.0299   6.62181
10.0106   6.86425
 9.9913   6.74705
 9.9720   6.53243
 9.9529   6.56516
 9.9338   6.63365
 9.9148   6.52987
 9.8959   6.44347
 9.8771   6.43397
 9.8583   6.47099
 9.8396   6.56707
 9.8210   6.59227
 9.8024   6.45051
 9.7839   6.37946
 9.7655   6.45574
 9.7471   6.51873
 9.7288   6.35113
 9.7106   6.33509
 9.6925   6.51653
 9.6744   6.64898
 9.6564   6.49439
 9.6384   6.40373
 9.6205   6.32837
 9.6027   6.30857
 9.5850   6.50650
 9.5673   6.71552
 9.5497   6.80227
 9.5321   6.82225
 9.5146   6.98070
 9.4972   6.86731
 9.4798   6.72649
 9.4625   6.68556
 9.4453   6.72238
 9.4281   6.75300
 9.4110   6.86147
 9.3940   6.94437
 9.3770   6.89308
 9.3600   6.84333
 9.3432   6.96663
 9.3264   7.04791
 9.3096   7.05184
 9.2930   7.11725
 9.2763   7.08336
 9.2598   6.92381
 9.2432   7.01956
 9.2268   7.19467
 9.2104   7.34508
 9.1941   7.34624
 9.1778   7.30056
 9.1616   7.42154
 9.1454   7.44610
 9.1293   7.25449
 9.1133   7.06975
 9.0973   6.93059
 9.0814   7.04869
 9.0655   7.46361
 9.0497   7.72083
 9.0339   7.69352
 9.0182   7.63423
 9.0025   7.57596
 8.9870   7.50651
 8.9714   7.57512
 8.9559   7.68228
 8.9405   7.54291
 8.9251   7.39632
 8.9097   7.46951
 8.8945   7.69691
 8.8792   7.66610
 8.8641   7.50951
 8.8489   7.55848
 8.8338   7.62277
 8.8188   7.69422
 8.8039   7.64814
 8.7889   7.45957
 8.7741   7.45196
 8.7592   7.50885
 8.7445   7.63785
 8.7297   7.58923
 8.7151   7.55247
 8.7005   7.59404
 8.6859   7.52879
 8.6714   7.53195
 8.6569   7.63353
 8.6425   7.69408
 8.6281   7.62849
 8.6137   7.72040
 8.5994   7.74624
 8.5852   7.62338
 8.5710   7.57953
 8.5569   7.53083
 8.5428   7.61671
 8.5287   7.74007
 8.5147   7.62936
 8.5008   7.42143
 8.4869   7.42816
 8.4730   7.55249
 8.4592   7.42740
 8.4454   7.33918
 8.4316   7.33913
 8.4180   7.31789
 8.4043   7.22592
 8.3907   7.15822
 8.3772   7.21007
 8.3637   7.28939
 8.3502   7.30757
 8.3368   7.41480
 8.3234   7.67575
 8.3100   7.81568
 8.2967   7.81948
 8.2835   7.78631
 8.2703   7.73045
 8.2571   7.72888
 8.2440   7.77531
 8.2309   7.82050
 8.2179   7.80745
 8.2049   7.73634
 8.1919   7.80121
 8.1790   7.68396
 8.1661   7.54277
 8.1532   7.52031
 8.1404   7.32904
 8.1277   7.22296
 8.1150   7.35971
 8.1023   7.51077
 8.0897   7.59916
 8.0770   7.64541
 8.0645   7.66621
 8.0520   7.64422
 8.0395   7.69458
 8.0270   7.81363
 8.0146   7.89435
 8.0023   7.88882
 7.9899   7.86782
 7.9776   7.83657
 7.9654   7.93646
 7.9532   8.01688
 7.9410   8.04016
 7.9288   8.04482
 7.9167   8.08204
 7.9047   8.21665
 7.8926   8.27218
 7.8807   8.18151
 7.8687   8.38884
 7.8568   8.48587
 7.8449   8.46540
 7.8330   8.56023
 7.8212   8.45036
 7.8094   8.27296
 7.7977   8.28756
 7.7860   8.44475
 7.7743   8.47524
 7.7627   8.38071
 7.7511   8.32993
 7.7395   8.40629
 7.7280   8.46884
 7.7165   8.46911
 7.7050   8.47022
 7.6936   8.54548
 7.6822   8.62983
 7.6708   8.65261
 7.6595   8.73475
 7.6482   8.88838
 7.6369   8.99701
 7.6257   8.98459
 7.6145   8.98551
 7.6033   9.07733
 7.5922   9.19879
 7.5811   9.20134
 7.5700   9.07485
 7.5590   9.13859
 7.5480   9.28310
 7.5370   9.40710
 7.5261   9.48206
 7.5152   9.50402
 7.5043   9.54595
 7.4935   9.47230
 7.4826   9.48083
 7.4718   9.65286
 7.4611   9.75104
 7.4504   9.86563
 7.4397   9.96769
 7.4290   9.99838
 7.4184  10.13030
 7.4078  10.28090
 7.3972  10.25820
 7.3867  10.35540
 7.3762  10.60030
 7.3657  10.68310
 7.3553  10.73480
 7.3449  10.79460
 7.3345  10.90470
 7.3241  11.04040
 7.3138  11.14200
 7.3035  11.21040
 7.2932  11.39820
 7.2830  11.74070
 7.2727  11.90310
 7.2626  11.97890
 7.2524  12.16720
 7.2423  12.39810
 7.2322  12.58430
 7.2221  12.76380
 7.2120  13.06320
 7.2020  13.27140
 7.1921  13.46170
 7.1821  13.90690
 7.1722  14.36580
 7.1623  14.67670
 7.1524  15.09420
 7.1425  15.57720
 7.1327  16.06080
 7.1229  16.60200
 7.1131  17.21000
 7.1034  17.72530
 7.0937  17.99240
 7.0840  18.31610
 7.0743  19.01780
 7.0647  20.29940
 7.0551  22.07850
 7.0455  24.04260
 7.0359  25.79550
 7.0264  27.23810
 7.0169  28.03470
 7.0074  28.41200
 6.9979  28.65850
 6.9885  28.73690
 6.9791  28.81260
 6.9697  29.07830
 6.9604  29.27330
 6.9510  29.08880
 6.9417  28.99070
 6.9324  28.93390
 6.9232  29.06320
 6.9140  29.27670
 6.9047  29.40040
 6.8956  29.45120
 6.8864  29.53720
 6.8773  29.87870
 6.8682  30.61120
 6.8591  30.80600
 6.8500  30.58490
 6.8410  30.72140
 6.8320  31.04850
 6.8230  31.25610
 6.8140  31.36120
 6.8051  31.58510
 6.7962  32.08950
 6.7873  32.39720
 6.7784  32.40780
 6.7695  32.50600
 6.7607  32.64430
 6.7519  32.94200
 6.7431  33.18970
 6.7344  33.48860
 6.7256  33.89780
 6.7169  34.27290
 6.7082  34.60830
 6.6996  34.84540
 6.6909  35.45040
 6.6823  36.22870
 6.6737  36.61940
 6.6651  37.03570
 6.6566  37.66830
 6.6480  39.01370
 6.6395  40.71230
 6.6310  41.25290
 6.6226  41.47780
 6.6141  42.13380
 6.6057  42.68760
 6.5973  43.40640
 6.5889  44.08090
 6.5805  44.80210
 6.5722  45.46470
 6.5639  45.57020
 6.5556  45.82280
 6.5473  46.04010
 6.5390  46.34080
 6.5308  46.85310
 6.5226  47.58470
 6.5144  47.81330
 6.5062  48.30450
 6.4981  49.46530
 6.4900  49.84380
 6.4818  49.51010
 6.4737  49.31910
 6.4657  49.23190
 6.4576  49.26390
 6.4496  49.22920
 6.4416  49.29380
 6.4336  49.44110
 6.4256  49.56300
 6.4177  50.07750
 6.4097  49.38400
 6.4018  47.79910
 6.3939  46.88290
 6.3860  46.07080
 6.3782  45.10810
 6.3704  43.51620
 6.3625  40.60900
 6.3547  36.91090
 6.3470  32.81150
 6.3392  28.23840
 6.3315  24.36330
 6.3237  21.17650
 6.3160  18.36790
 6.3083  16.03640
 6.3007  14.06170
 6.2930  12.19790
 6.2854  10.66790
 6.2778   9.41301
 6.2702   8.32837
 6.2626   7.41153
 6.2551   6.72848
 6.2476   6.18253
 6.2400   5.61792
 6.2325   5.13653
 6.2251   4.69456
 6.2176   4.27953
 6.2101   3.98221
 6.2027   3.69776
 6.1953   3.44492
 6.1879   3.23432
 6.1805   3.00591
 6.1732   2.73129
 6.1658   2.57999
 6.1585   2.43259
 6.1512   2.24020
 6.1439   1.94132
 6.1367   1.83625
 6.1294   1.77177
 6.1222   1.63207
 6.1149   1.59318
 6.1077   1.43098
 6.1006   1.28402
 6.0934   1.31380
 6.0862   1.38593
 6.0791   1.32489
 6.0720   1.20130
 6.0649   1.16997
 6.0578   1.14576
 6.0507   1.23147
 6.0437   1.29994
 6.0366   1.29524
 6.0296   1.17461
 6.0226   1.10816
 6.0156   1.05233
 6.0087   1.03556
 6.0017   1.13897
 5.9948   1.16210
 5.9878   1.09989
 5.9809   1.13515
 5.9740   1.18224
 5.9672   1.15901
 5.9603   1.17038
 5.9535   1.28032
 5.9466   1.45146
 5.9398   1.39818
 5.9330   1.27750
 5.9262   1.28865
 5.9195   1.38214
 5.9127   1.40757
 5.9060   1.38516
 5.8993   1.45367
 5.8926   1.42483
 5.8859   1.52577
 5.8792   1.70415
 5.8726   1.66576
 5.8659   1.59521
 5.8593   1.65086
 5.8527   1.65308
 5.8461   1.65478
 5.8395   1.68152
 5.8329   1.66125
 5.8264   1.74390
 5.8198   1.77184
 5.8133   1.74871
 5.8068   1.72934
 5.8003   1.66364
 5.7938   1.68889
 5.7874   1.75850
 5.7809   1.75868
 5.7745   1.89015
 5.7680   1.98077
 5.7616   1.93746
 5.7552   1.94028
 5.7489   1.97719
 5.7425   1.89279
 5.7361   1.89283
 5.7298   1.98764
 5.7235   1.92672
 5.7172   1.87079
 5.7109   2.01058
 5.7046   2.08023
 5.6983   2.12153
 5.6921   2.16690
 5.6858   2.13784
 5.6796   2.07062
 5.6734   2.07292
 5.6672   2.11105
 5.6610   2.11570
 5.6548   2.09923
 5.6487   2.07671
 5.6425   2.12712
 5.6364   2.15352
 5.6303   2.18228
 5.6242   2.22078
 5.6181   2.09979
 5.6120   2.04239
 5.6059   2.11900
 5.5999   2.13200
 5.5938   2.09874
 5.5878   2.09605
 5.5818   2.13642
 5.5758   2.10595
 5.5698   2.05109
 5.5638   2.01870
 5.5578   1.96154
 5.5519   1.87887
 5.5460   1.85326
 5.5400   1.81567
 5.5341   1.74908
 5.5282   1.71303
 5.5223   1.73042
 5.5164   1.75036
 5.5106   1.74513
 5.5047   1.74545
 5.4989   1.77911
 5.4931   1.75413
 5.4873   1.75067
 5.4815   1.77509
 5.4757   1.81078
 5.4699   1.84115
 5.4641   1.96079
 5.4584   2.11326
 5.4527   2.28198
 5.4469   2.43657
 5.4412   2.53631
 5.4355   2.66976
 5.4298   2.89738
 5.4241   3.07674
 5.4185   3.15622
 5.4128   3.33113
 5.4072   3.43857
 5.4015   3.55251
 5.3959   3.70990
 5.3903   3.84002
 5.3847   3.91308
 5.3791   4.02671
 5.3735   4.16895
 5.3680   4.29367
 5.3624   4.41047
 5.3569   4.52701
 5.3514   4.72273
 5.3458   4.80962
 5.3403   4.74069
 5.3348   4.78370
 5.3294   4.80824
 5.3239   4.94206
 5.3184   5.06501
 5.3130   5.11038
 5.3075   5.17566
 5.3021   5.23371
 5.2967   5.36373
 5.2913   5.48290
 5.2859   5.58395
 5.2805   5.70883
 5.2751   5.79098
 5.2698   5.91563
 5.2644   6.07100
 5.2591   6.22078
 5.2538   6.41036
 5.2485   6.60890
 5.2431   6.89315
 5.2378   7.09812
 5.2326   7.11373
 5.2273   7.20001
 5.2220   7.42903
 5.2168   7.68234
 5.2115   7.79985
 5.2063   7.90790
 5.2011   8.09397
 5.1959   8.18844
 5.1907   8.31394
 5.1855   8.50737
 5.1803   8.75627
 5.1751   8.97291
 5.1700   9.07557
 5.1648   9.17615
 5.1597   9.23402
 5.1545   9.35176
 5.1494   9.59150
 5.1443   9.77939
 5.1392   9.83059
 5.1341   9.90998
 5.1291  10.08890
 5.1240  10.21030
 5.1189  10.27220
 5.1139  10.32300
 5.1088  10.35130
 5.1038  10.43290
 5.0988  10.40230
 5.0938  10.39990
 5.0888  10.39840
 5.0838  10.19440
 5.0788   9.80739
 5.0738   9.15797
 5.0689   8.41080
 5.0639   8.02285
 5.0590   8.18745
 5.0541   8.77933
 5.0491   9.53284
 5.0442  10.19710
 5.0393  10.79080
 5.0344  11.29290
 5.0296  11.63610
 5.0247  11.86020
 5.0198  12.08370
 5.0150  12.27170
 5.0101  12.31460
 5.0053  12.33830
 5.0004  12.50600
 4.9956  12.69440
 4.9908  12.75590
 4.9860  12.81880
 4.9812  12.82610
 4.9765  12.82220
 4.9717  12.84420
 4.9669  12.84980
 4.9622  12.90790
 4.9574  13.05310
 4.9527  13.14810
 4.9480  13.23010
 4.9432  13.23880
 4.9385  13.17020
 4.9338  13.18210
 4.9291  13.25520
 4.9245  13.30170
 4.9198  13.31230
 4.9151  13.30050
 4.9105  13.30420
 4.9058  13.31510
 4.9012  13.31880
 4.8966  13.40010
 4.8919  13.41980
 4.8873  13.35110
 4.8827  13.30470
 4.8781  13.35840
 4.8736  13.35850
 4.8690  13.32000
 4.8644  13.34050
 4.8599  13.34120
 4.8553  13.31370
 4.8508  13.35820
 4.8462  13.30210
 4.8417  13.26960
 4.8372  13.22630
 4.8327  13.12230
 4.8282  13.14040
 4.8237  13.21510
 4.8192  13.19640
 4.8147  13.17580
 4.8103  13.19450
 4.8058  13.16810
 4.8014  13.07660
 4.7969  12.99420
 4.7925  12.94200
 4.7881  12.98590
 4.7836  12.96520
 4.7792  12.93170
 4.7748  12.91960
 4.7704  12.90950
 4.7660  12.90850
 4.7617  12.88780
 4.7573  12.71650
 4.7530  12.62020
 4.7486  12.67810
 4.7443  12.66320
 4.7399  12.53490
 4.7356  12.37100
 4.7313  12.30480
 4.7270  12.26460
 4.7226  12.16940
 4.7184  12.00890
 4.7141  11.81430
 4.7098  11.60170
 4.7055  11.39680
 4.7012  11.22620
 4.6970  10.97710
 4.6927  10.63650
 4.6885  10.29120
 4.6842   9.97423
 4.6800   9.56025
 4.6758   9.01579
 4.6716   8.46345
 4.6674   8.10983
 4.6632   7.78980
 4.6590   7.41941
 4.6548   7.15261
 4.6506   6.98097
 4.6465   6.85715
 4.6423   6.80169
 4.6382   6.76387
 4.6340   6.72216
 4.6299   6.67956
 4.6258   6.68467
 4.6216   6.67205
 4.6175   6.66347
 4.6134   6.56589
 4.6093   6.61877
 4.6052   6.80793
 4.6011   6.94816
 4.5971   7.03478
 4.5930   7.08437
 4.5889   7.29907
 4.5849   7.58341
 4.5808   7.78940
 4.5768   7.94434
 4.5727   8.10103
 4.5687   8.30407
 4.5647   8.47139
 4.5607   8.48625
 4.5567   8.64026
 4.5526   8.87306
 4.5487   9.10135
 4.5447   9.21840
 4.5407   9.23049
 4.5367   9.26770
 4.5328   9.40370
 4.5288   9.45904
 4.5248   9.55947
 4.5209   9.74773
 4.5170   9.86535
 4.5130  10.06110
 4.5091  10.36990
 4.5052  10.70630
 4.5013  10.95420
 4.4974  11.08260
 4.4935  11.19860
 4.4896  11.39540
 4.4857  11.48560
 4.4818  11.54810
 4.4779  11.46510
 4.4741  11.20120
 4.4702  10.98270
 4.4664  10.80780
 4.4625  10.66870
 4.4587  10.40840
 4.4549  10.09720
 4.4510   9.99408
 4.4472   9.91843
 4.4434   9.72822
 4.4396   9.65700
 4.4358   9.66535
 4.4320   9.63631
 4.4282   9.65512
 4.4245   9.79122
 4.4207  10.05060
 4.4169  10.27100
 4.4132  10.49480
 4.4094  10.77810
 4.4057  11.03580
 4.4019  11.11520
 4.3982  11.24510
 4.3945  11.51810
 4.3907  11.71260
 4.3870  11.88040
 4.3833  12.02240
 4.3796  12.16520
 4.3759  12.45920
 4.3722  12.65370
 4.3685  12.78450
 4.3649  12.97100
 4.3612  13.21010
 4.3575  13.37000
 4.3539  13.29270
 4.3502  13.03690
 4.3466  12.67830
 4.3429  12.26740
 4.3393  11.80880
 4.3357  11.42580
 4.3320  11.25090
 4.3284  11.16950
 4.3248  11.01790
 4.3212  10.80910
 4.3176  10.72650
 4.3140  10.57690
 4.3105  10.41860
 4.3069  10.43150
 4.3033  10.32250
 4.2997  10.27800
 4.2962  10.38830
 4.2926  10.32180
 4.2890  10.13170
 4.2855  10.03760
 4.2820  10.02230
 4.2784   9.97450
 4.2749  10.07650
 4.2714  10.22270
 4.2679  10.32930
 4.2644  10.66450
 4.2609  11.05750
 4.2574  11.12710
 4.2539  11.06620
 4.2504  10.98970
 4.2469  10.85830
 4.2434  10.72200
 4.2400  10.69310
 4.2365  10.62530
 4.2330  10.70490
 4.2296  10.78860
 4.2261  10.88710
 4.2227  10.98020
 4.2193  11.14820
 4.2158  11.26040
 4.2124  11.50420
 4.2090  11.89380
 4.2056  12.18100
 4.2022  12.42380
 4.1988  12.56780
 4.1954  12.57830
 4.1920  12.51150
 4.1886  12.54630
 4.1852  12.50380
 4.1818  12.32640
 4.1785  12.27700
 4.1751  12.31880
 4.1717  12.29370
 4.1684  12.16820
 4.1650  12.02330
 4.1617  11.89570
 4.1584  11.79060
 4.1550  11.49700
 4.1517  11.29850
 4.1484  11.22670
 4.1451  11.22990
 4.1418  11.32810
 4.1384  11.36800
 4.1351  11.36210
 4.1319  11.41490
 4.1286  11.42910
 4.1253  11.42730
 4.1220  11.45120
 4.1187  11.48820
 4.1155  11.36590
 4.1122  11.26470
 4.1089  11.18850
 4.1057  11.09750
 4.1024  10.95120
 4.0992  10.89480
 4.0959  10.84950
 4.0927  10.79730
 4.0895  10.67300
 4.0863  10.47870
 4.0830  10.23240
 4.0798  10.00250
 4.0766   9.83701
 4.0734   9.75845
 4.0702   9.64869
 4.0670   9.42400
 4.0639   9.26930
 4.0607   9.16331
 4.0575   9.01096
 4.0543   8.80548
 4.0511   8.45321
 4.0480   8.15470
 4.0448   7.95182
 4.0417   7.81479
 4.0385   7.67037
 4.0354   7.54869
 4.0323   7.22760
 4.0291   6.94116
 4.0260   6.68755
 4.0229   6.44905
 4.0197   6.20921
 4.0166   5.92405
 4.0135   5.73819
 4.0104   5.56042
 4.0073   5.31936
 4.0042   5.09188
 4.0011   4.96346
 3.9981   4.79496
 3.9950   4.70602
 3.9919   4.62709
 3.9888   4.54003
 3.9857   4.44672
 3.9827   4.27225
 3.9796   4.02767
 3.9766   3.79019
 3.9735   3.54682
 3.9705   3.47067
 3.9675   3.52859
 3.9644   3.54813
 3.9614   3.42407
 3.9584   3.37316
 3.9554   3.52458
 3.9523   3.59130
 3.9493   3.61303
 3.9463   3.61631
 3.9433   3.49096
 3.9403   3.35386
 3.9373   3.42452
 3.9343   3.54690
 3.9314   3.64162
 3.9284   3.57537
 3.9254   3.41186
 3.9224   3.40753
 3.9195   3.57705
 3.9165   3.71603
 3.9136   3.71019
 3.9106   3.65582
 3.9077   3.59640
 3.9047   3.66252
 3.9018   3.88120
 3.8988   3.96046
 3.8959   3.93428
 3.8930   4.07574
 3.8901   4.21693
 3.8872   4.25354
 3.8842   4.16675
 3.8813   4.04195
 3.8784   4.04292
 3.8755   4.06482
 3.8726   4.17538
 3.8697   4.25615
 3.8669   4.40483
 3.8640   4.46688
 3.8611   4.46084
 3.8582   4.42857
 3.8554   4.44485
 3.8525   4.64932
 3.8496   5.02803
 3.8468   5.24850
 3.8439   5.29295
 3.8411   5.33880
 3.8382   5.32537
 3.8354   5.25035
 3.8326   5.24296
 3.8297   5.06451
 3.8269   4.91315
 3.8241   4.86059
 3.8213   4.70538
 3.8185   4.65560
 3.8157   4.62205
 3.8128   4.52117
 3.8100   4.36960
 3.8072   4.31022
 3.8045   4.35329
 3.8017   4.38574
 3.7989   4.38885
 3.7961   4.50167
 3.7933   4.60123
 3.7906   4.60128
 3.7878   4.72353
 3.7850   4.88586
 3.7822   5.10128
 3.7795   5.13373
 3.7767   5.22004
 3.7740   5.42431
 3.7713   5.61267
 3.7685   5.77740
 3.7658   5.94859
 3.7630   6.35663
 3.7603   6.75025
 3.7576   6.93038
 3.7549   7.04225
 3.7521   7.43447
 3.7494   8.09683
 3.7467   8.66210
 3.7440   9.01697
 3.7413   9.42567
 3.7386   9.79450
 3.7359  10.23190
 3.7332  10.62150
 3.7306  10.89760
 3.7279  11.12100
 3.7252  11.39540
 3.7225  11.58440
 3.7199  11.64980
 3.7172  11.82890
 3.7145  12.03720
 3.7119  12.30170
 3.7092  12.48820
 3.7066  12.54150
 3.7039  12.64960
 3.7013  12.78670
 3.6986  12.95590
 3.6960  13.06810
 3.6934  13.27330
 3.6907  13.40340
 3.6881  13.66830
 3.6855  13.89780
 3.6829  13.92710
 3.6803  13.95730
 3.6776  14.10270
 3.6750  14.23290
 3.6724  14.37320
 3.6698  14.50840
 3.6672  14.63100
 3.6646  14.59450
 3.6620  14.62920
 3.6595  14.71920
 3.6569  14.76250
 3.6543  14.67080
 3.6517  14.61220
 3.6492  14.54520
 3.6466  14.67380
 3.6440  14.87870
 3.6415  14.97300
 3.6389  14.99130
 3.6364  15.02620
 3.6338  14.93950
 3.6313  14.98620
 3.6287  14.96390
 3.6262  14.80600
 3.6237  14.87400
 3.6211  14.98540
 3.6186  14.88300
 3.6161  14.72160
 3.6136  14.60660
 3.6111  14.66060
 3.6085  14.67350
 3.6060  14.47340
 3.6035  14.43060
 3.6010  14.46450
 3.5985  14.42310
 3.5960  14.38830
 3.5935  14.40010
 3.5910  14.21120
 3.5886  14.05430
 3.5861  14.12920
 3.5836  14.14780
 3.5811  14.11950
 3.5787  14.04890
 3.5762  14.02330
 3.5737  13.90810
 3.5713  13.75030
 3.5688  13.63140
 3.5663  13.40300
 3.5639  12.98680
 3.5614  12.49520
 3.5590  12.10200
 3.5566  11.66050
 3.5541  11.05890
 3.5517  10.50600
 3.5493  10.04640
 3.5468  10.05940
 3.5444  10.34370
 3.5420  10.57930
 3.5396  10.80360
 3.5372  10.76590
 3.5347  10.51660
 3.5323  10.34490
 3.5299  10.22730
 3.5275   9.86816
 3.5251   9.53669
 3.5227   9.32143
 3.5203   8.93019
 3.5180   8.42787
 3.5156   7.89123
 3.5132   7.64862
 3.5108   7.38271
 3.5084   7.03335
 3.5061   6.71566
 3.5037   6.37773
 3.5013   6.14405
 3.4990   5.88923
 3.4966   5.47486
 3.4943   5.17819
 3.4919   5.11210
 3.4895   4.91826
 3.4872   4.75931
 3.4849   4.84150
 3.4825   4.79418
 3.4802   4.70442
 3.4778   4.56777
 3.4755   4.42054
 3.4732   4.45183
 3.4709   4.63862
 3.4685   4.64461
 3.4662   4.51804
 3.4639   4.36242
 3.4616   4.32759
 3.4593   4.32316
 3.4570   4.25229
 3.4547   4.18529
 3.4524   4.01234
 3.4501   3.90819
 3.4478   4.09921
 3.4455   4.31662
 3.4432   4.20012
 3.4409   4.08572
 3.4386   4.26438
 3.4364   4.58239
 3.4341   4.65065
 3.4318   4.69500
 3.4295   4.75837
 3.4273   4.91878
 3.4250   5.11525
 3.4228   4.92494
 3.4205   4.67529
 3.4182   4.85242
 3.4160   5.00064
 3.4137   5.10307
 3.4115   5.05654
 3.4093   4.85074
 3.4070   5.04407
 3.4048   5.06412
 3.4025   4.89447
 3.4003   5.00079
 3.3981   5.23103
 3.3958   5.29024
 3.3936   5.30060
 3.3914   5.37541
 3.3892   5.21943
 3.3870   4.99219
 3.3848   5.07026
 3.3826   5.32582
 3.3804   5.29472
 3.3782   5.26628
 3.3760   5.53031
 3.3738   5.45342
 3.3716   5.23055
 3.3694   5.48010
 3.3672   5.45243
 3.3650   5.22714
 3.3628   5.12908
 3.3606   5.06617
 3.3585   5.05777
 3.3563   5.00867
 3.3541   4.96428
 3.3520   4.84752
 3.3498   4.99041
 3.3476   5.22809
 3.3455   5.18373
 3.3433   5.04346
 3.3411   5.04731
 3.3390   4.85374
 3.3369   4.71372
 3.3347   4.89026
 3.3326   4.82488
 3.3304   4.75833
 3.3283   4.87751
 3.3262   4.83270
 3.3240   4.86339
 3.3219   4.93887
 3.3198   4.67049
 3.3176   4.35172
 3.3155   4.45463
 3.3134   4.75363
 3.3113   4.59185
 3.3092   4.61073
 3.3071   4.70701
 3.3049   4.56664
 3.3028   4.46426
 3.3007   4.63362
 3.2986   4.85746
 3.2965   5.07513
 3.2944   5.50843
 3.2924   5.95143
 3.2903   6.29631
 3.2882   6.70707
 3.2861   7.06125
 3.2840   7.24707
 3.2819   7.35031
 3.2799   7.25596
 3.2778   7.23613
 3.2757   7.54870
 3.2736   7.93106
 3.2716   7.77532
 3.2695   7.76716
 3.2675   7.78066
 3.2654   7.68213
 3.2634   7.74402
 3.2613   7.84333
 3.2593   8.22493
 3.2572   8.46647
 3.2552   8.42567
 3.2531   8.21598
 3.2511   8.10882
 3.2490   8.26218
 3.2470   8.41078
 3.2450   8.51045
 3.2429   8.42520
 3.2409   8.20207
 3.2389   8.20538
 3.2369   8.40333
 3.2348   8.19625
 3.2328   8.03630
 3.2308   8.41541
 3.2288   8.45250
 3.2268   8.13987
 3.2248   8.08148
 3.2228   8.01508
 3.2208   8.03281
 3.2188   8.10751
 3.2168   8.20962
 3.2148   8.23740
 3.2128   8.19529
 3.2108   8.04281
 3.2088   7.97742
 3.2068   7.99054
 3.2049   8.03568
 3.2029   7.98991
 3.2009   7.95456
 3.1989   7.85309
 3.1970   7.96446
 3.1950   7.81676
 3.1930   7.59574
 3.1911   7.46771
 3.1891   7.50771
 3.1871   7.86839
 3.1852   7.96741
 3.1832   7.91198
 3.1813   7.97429
 3.1793   7.97625
 3.1774   7.87545
 3.1754   7.56896
 3.1735   7.29181
 3.1715   7.52891
 3.1696   7.64375
 3.1677   7.51132
 3.1657   7.48502
 3.1638   7.50887
 3.1619   7.19196
 3.1599   7.05610
 3.1580   7.21273
 3.1561   7.19827
 3.1542   7.01548
 3.1523   7.03505
 3.1503   7.15258
 3.1484   6.95790
 3.1465   6.69388
 3.1446   6.88791
 3.1427   6.73696
 3.1408   6.64971
 3.1389   6.81688
 3.1370   6.96668
 3.1351   6.90553
 3.1332   6.79997
 3.1313   6.85799
 3.1294   6.66485
 3.1275   6.45161
 3.1257   6.77010
 3.1238   7.03348
 3.1219   6.77827
 3.1200   6.56477
 3.1181   6.63120
 3.1163   6.83589
 3.1144   6.63648
 3.1125   6.51717
 3.1107   6.51153
 3.1088   6.34062
 3.1069   6.40215
 3.1051   6.41984
 3.1032   6.53985
 3.1014   6.66469
 3.0995   6.56003
 3.0976   6.30657
 3.0958   6.40660
 3.0940   6.52291
 3.0921   6.42220
 3.0903   6.32844
 3.0884   6.14819
 3.0866   6.32387
 3.0848   6.56399
 3.0829   6.35521
 3.0811   6.09946
 3.0793   5.78693
 3.0774   5.68415
 3.0756   5.90894
 3.0738   6.39221
 3.0720   6.59974
 3.0701   6.37480
 3.0683   6.06598
 3.0665   5.79653
 3.0647   5.88806
 3.0629   6.14519
 3.0611   6.01104
 3.0593   6.18586
 3.0575   6.61908
 3.0557   6.50052
 3.0539   6.02706
 3.0521   6.29860
 3.0503   6.52415
 3.0485   6.31844
 3.0467   6.06900
 3.0449   5.71299
 3.0431   5.67040
 3.0413   6.05533
 3.0396   6.53229
 3.0378   6.22679
 3.0360   5.87951
 3.0342   6.12424
 3.0324   6.27951
 3.0307   6.04636
 3.0289   6.13108
 3.0271   6.26879
 3.0254   6.47588
 3.0236   6.23794
 3.0218   6.01024
 3.0201   6.25308
 3.0183   6.41682
 3.0166   6.49110
 3.0148   6.04269
 3.0130   5.80755
 3.0113   5.74236
 3.0096   5.93548
 3.0078   6.03413
 3.0061   5.87315
 3.0043   5.87939
 3.0026   5.86466
 3.0008   6.12329
 2.9991   6.31235
 2.9974   6.12888
 2.9956   5.88679
 2.9939   5.86449
 2.9922   5.93847
 2.9905   6.06367
 2.9887   6.01582
 2.9870   6.09953
 2.9853   6.25893
 2.9836   6.20349
 2.9819   5.92539
 2.9802   5.64310
 2.9784   5.56135
 2.9767   5.72227
 2.9750   5.95834
 2.9733   5.89513
 2.9716   5.68992
 2.9699   5.53156
 2.9682   5.53305
 2.9665   5.66315
 2.9648   5.74173
 2.9631   5.56728
 2.9614   5.37197
 2.9597   5.46289
 2.9581   5.62648
 2.9564   5.81198
 2.9547   5.81867
 2.9530   5.79945
 2.9513   5.93116
 2.9496   5.81582
 2.9480   6.09421
 2.9463   5.92289
 2.9446   5.80514
 2.9429   5.55181
 2.9413   5.36575
 2.9396   6.02720
 2.9379   6.62744
 2.9363   6.18444
 2.9346   5.81456
 2.9330   5.73497
 2.9313   5.98202
 2.9296   6.17958
 2.9280   6.05298
 2.9263   5.93222
 2.9247   5.78095
 2.9230   5.58247
 2.9214   5.59132
 2.9197   5.69752
 2.9181   5.56441
 2.9165   5.87058
 2.9148   5.99681
 2.9132   5.70950
 2.9116   5.47336
 2.9099   5.43340
 2.9083   5.65291
 2.9067   5.64593
 2.9050   6.11795
 2.9034   6.26077
 2.9018   5.93365
 2.9002   6.23935
 2.8985   6.24186
 2.8969   6.12504
 2.8953   6.42123
 2.8937   6.22856
 2.8921   6.12766
 2.8905   6.38196
 2.8888   6.13299
 2.8872   5.79952
 2.8856   6.08306
 2.8840   6.12318
 2.8824   5.40008
 2.8808   5.67680
 2.8792   6.43389
 2.8776   6.64459
 2.8760   6.61243
 2.8744   6.42068
 2.8728   6.24570
 2.8712   5.93945
 2.8697   6.06697
 2.8681   6.36649
 2.8665   6.08014
 2.8649   5.82689
 2.8633   6.03885
 2.8617   6.13025
 2.8602   6.32462
 2.8586   6.44157
 2.8570   6.47610
 2.8554   6.49503
 2.8539   6.64331
 2.8523   6.31718
 2.8507   6.24234
 2.8492   6.58674
 2.8476   6.59963
 2.8460   6.76393
 2.8445   6.79462
 2.8429   6.81571
 2.8413   6.37251
 2.8398   6.33572
 2.8382   6.53060
 2.8367   6.51402
 2.8351   6.58026
 2.8336   6.64843
 2.8320   6.47550
 2.8305   6.81506
 2.8289   7.04129
 2.8274   6.54695
 2.8259   6.34566
 2.8243   6.52860
 2.8228   6.49719
 2.8213   6.43074
 2.8197   6.68011
 2.8182   6.81765
 2.8167   6.93869
 2.8151   7.28089
 2.8136   7.61291
 2.8121   7.24976
 2.8106   7.05098
 2.8090   7.27097
 2.8075   7.44935
 2.8060   7.67455
 2.8045   7.37658
 2.8030   7.03241
 2.8014   6.98265
 2.7999   7.03021
 2.7984   6.49351
 2.7969   6.48027
 2.7954   7.71806
 2.7939   8.96753
 2.7924   8.72985
 2.7909   8.45003
 2.7894   8.34395
 2.7879   7.44188
 2.7864   7.52830
 2.7849   7.97483
 2.7834   7.92005
 2.7819   7.28412
 2.7804   6.38320
 2.7789   6.85051
 2.7774   7.72738
 2.7759   8.10820
 2.7745   8.40393
 2.7730   8.32044
 2.7715   8.45826
 2.7700   8.61462
 2.7685   8.22866
 2.7671   7.95539
 2.7656   8.39754
 2.7641   8.95313
 2.7626   8.91168
 2.7612   8.99805
 2.7597   9.22707
 2.7582   9.22499
 2.7568   9.26250
 2.7553   9.36678
 2.7538   9.30882
 2.7524   9.66615
 2.7509   9.89839
 2.7494   9.61469
 2.7480   9.88020
 2.7465  10.42120
 2.7451  10.56450
 2.7436  10.71340
 2.7422  11.51980
 2.7407  11.60050
 2.7393  11.85670
 2.7378  12.30700
 2.7364  12.55790
 2.7350  12.56470
 2.7335  12.76740
 2.7321  13.31590
 2.7306  14.14250
 2.7292  14.39290
 2.7278  13.93280
 2.7263  14.13630
 2.7249  14.95440
 2.7235  15.73110
 2.7220  15.97730
 2.7206  15.89830
 2.7192  16.21550
 2.7178  16.85440
 2.7163  17.23650
 2.7149  17.71780
 2.7135  18.00050
 2.7121  18.25920
 2.7106  18.67160
 2.7092  18.86630
 2.7078  18.78620
 2.7064  19.12120
 2.7050  19.70340
 2.7036  19.90180
 2.7022  19.90660
 2.7008  19.64780
 2.6994  19.75390
 2.6980  20.11410
 2.6965  20.37670
 2.6951  20.78420
 2.6938  20.95920
 2.6923  20.98070
 2.6910  21.06470
 2.6896  21.01940
 2.6882  21.25660
 2.6868  21.45590
 2.6854  21.54760
 2.6840  21.83270
 2.6826  21.78890
 2.6812  21.71980
 2.6798  22.10160
 2.6784  22.23400
 2.6771  22.37460
 2.6757  22.44150
 2.6743  22.77620
 2.6729  23.35880
 2.6715  24.09250
 2.6702  24.32630
 2.6688  23.75960
 2.6674  23.87960
 2.6660  24.07920
 2.6647  23.84540
 2.6633  23.85550
 2.6619  24.24990
 2.6606  24.35990
 2.6592  24.35610
 2.6578  24.50870
 2.6565  24.70800
 2.6551  24.65090
 2.6538  24.54460
 2.6524  24.66620
 2.6511  24.60430
 2.6497  24.60730
 2.6484  24.85740
 2.6470  24.85120
 2.6456  24.76920
 2.6443  24.80960
 2.6429  24.95220
 2.6416  24.80170
 2.6403  24.79000
 2.6389  24.87810
 2.6376  25.29130
 2.6362  25.51260
 2.6349  25.22370
 2.6336  25.41580
 2.6322  25.76700
 2.6309  25.80720
 2.6296  25.71030
 2.6282  25.74820
 2.6269  25.76840
 2.6256  25.46950
 2.6242  25.16980
 2.6229  25.12480
 2.6216  25.52110
 2.6203  25.69860
 2.6189  25.67940
 2.6176  25.91040
 2.6163  26.06520
 2.6150  25.81910
 2.6136  25.67280
 2.6123  25.72750
 2.6110  25.88170
 2.6097  25.81950
 2.6084  25.65900
 2.6071  25.60910
 2.6058  25.74270
 2.6044  25.81130
 2.6031  25.77780
 2.6018  25.62220
 2.6005  25.69870
 2.5992  25.68950
 2.5979  25.73410
 2.5966  26.21070
 2.5953  26.65780
 2.5940  26.49200
 2.5927  25.73750
 2.5914  25.23650
 2.5901  25.55910
 2.5888  25.89120
 2.5876  25.75400
 2.5863  25.61850
 2.5850  25.87120
 2.5837  25.92580
 2.5824  25.30930
 2.5811  24.65110
 2.5798  24.54300
 2.5785  24.90050
 2.5773  25.25540
 2.5760  25.24220
 2.5747  25.42200
 2.5734  25.63140
 2.5722  25.33700
 2.5709  25.11410
 2.5696  25.12480
 2.5683  24.86850
 2.5671  24.51310
 2.5658  24.52270
 2.5645  24.67180
 2.5633  24.87060
 2.5620  24.63380
 2.5607  24.61290
 2.5595  24.58010
 2.5582  24.29360
 2.5569  24.40560
 2.5557  24.46350
 2.5544  24.05870
 2.5532  23.84820
 2.5519  23.64870
 2.5507  23.42840
 2.5494  23.48930
 2.5481  23.30830
 2.5469  22.97480
 2.5456  21.99930
 2.5444  21.56200
 2.5431  21.49710
 2.5419  21.37170
 2.5406  20.73830
 2.5394  20.47140
 2.5382  20.29720
 2.5369  19.79190
 2.5357  19.22440
 2.5344  18.88420
 2.5332  18.47190
 2.5320  18.35170
 2.5307  18.19490
 2.5295  17.71690
 2.5283  17.72940
 2.5270  17.50400
 2.5258  17.10560
 2.5246  17.27830
 2.5233  17.31080
 2.5221  16.64780
 2.5209  16.55880
 2.5197  16.87210
 2.5184  17.00940
 2.5172  16.64870
 2.5160  16.51110
 2.5148  16.35670
 2.5136  16.13590
 2.5123  15.94880
 2.5111  16.16330
 2.5099  16.12890
 2.5087  16.02470
 2.5075  16.45020
 2.5063  17.10270
 2.5051  16.96040
 2.5038  16.66710
 2.5026  16.93430
 2.5014  17.13030
 2.5002  16.99500
 2.4990  17.45340
 2.4978  18.19710
 2.4966  18.02890
 2.4954  17.63950
 2.4942  17.79200
 2.4930  17.84520
 2.4918  17.79250
 2.4906  17.91200
 2.4894  18.02550
 2.4882  18.53500
 2.4870  18.76140
 2.4858  18.68130
 2.4846  18.95130
 2.4835  19.24870
 2.4823  19.27570
 2.4811  19.01470
 2.4799  19.20250
 2.4787  19.22500
 2.4775  19.60890
 2.4764  20.19980
 2.4752  20.37020
 2.4740  20.02400
 2.4728  19.80840
 2.4716  19.69550
 2.4705  19.59080
 2.4693  19.72470
 2.4681  20.03480
 2.4669  20.16240
 2.4657  20.11260
 2.4646  20.12770
 2.4634  19.67090
 2.4622  20.05740
 2.4611  20.70770
 2.4599  19.99250
 2.4587  19.74890
 2.4576  20.16340
 2.4564  20.37230
 2.4552  20.50640
 2.4541  20.61940
 2.4529  21.02810
 2.4518  21.03550
 2.4506  20.86840
 2.4494  20.85210
 2.4483  21.19970
 2.4471  21.65750
 2.4460  21.28900
 2.4448  20.78440
 2.4437  20.88920
 2.4425  21.32990
 2.4414  22.04630
 2.4402  22.47840
 2.4391  22.76670
 2.4379  22.75400
 2.4368  22.88440
 2.4356  22.75470
 2.4345  22.90640
 2.4333  23.34440
 2.4322  22.46070
 2.4311  22.08310
 2.4299  23.17320
 2.4288  23.75300
 2.4276  23.17560
 2.4265  23.55690
 2.4254  24.18680
 2.4242  24.05500
 2.4231  23.92520
 2.4220  24.19220
 2.4209  24.30160
 2.4197  24.45760
 2.4186  24.65690
 2.4175  25.11960
 2.4163  24.96640
 2.4152  24.70840
 2.4141  24.53680
 2.4130  24.98320
 2.4118  25.09110
 2.4107  24.95210
 2.4096  24.65950
 2.4085  24.33770
 2.4074  24.89250
 2.4063  25.21120
 2.4051  25.24490
 2.4040  25.30290
 2.4029  25.43240
 2.4018  24.91570
 2.4007  24.45500
 2.3996  24.84110
 2.3985  25.34860
 2.3973  25.34400
 2.3962  25.61860
 2.3951  26.06990
 2.3940  26.05900
 2.3929  26.18450
 2.3918  26.06660
 2.3907  25.70450
 2.3896  25.40810
 2.3885  25.47590
 2.3874  25.82000
 2.3863  25.99600
 2.3852  26.06690
 2.3841  25.93300
 2.3830  25.83990
 2.3819  25.31270
 2.3808  25.08730
 2.3798  25.59780
 2.3786  26.17650
 2.3776  26.42550
 2.3765  26.47020
 2.3754  26.61490
 2.3743  25.91470
 2.3732  25.93630
 2.3721  26.15320
 2.3710  26.20190
 2.3700  26.38540
 2.3689  26.46380
 2.3678  26.37090
 2.3667  26.14520
 2.3656  26.38360
 2.3645  26.33670
 2.3635  26.03660
 2.3624  26.06670
 2.3613  26.08850
 2.3603  26.14980
 2.3592  26.25670
 2.3581  26.10740
 2.3570  26.02300
 2.3560  26.03980
 2.3549  26.11240
 2.3538  26.02650
 2.3527  26.16340
 2.3517  26.12730
 2.3506  25.95760
 2.3495  25.43630
 2.3485  24.72600
 2.3474  24.27270
 2.3464  24.10360
 2.3453  24.18820
 2.3442  23.85890
 2.3432  23.55180
 2.3421  23.83900
 2.3411  23.86740
 2.3400  23.34640
 2.3390  23.04480
 2.3379  22.75400
 2.3369  22.73520
 2.3358  22.61590
 2.3347  22.20420
 2.3337  21.91100
 2.3326  21.69340
 2.3316  21.16130
 2.3306  21.25420
 2.3295  21.15930
 2.3285  21.25570
 2.3274  21.18230
 2.3264  20.78280
 2.3253  21.07360
 2.3243  21.30620
 2.3232  20.64580
 2.3222  20.67580
 2.3212  20.70840
 2.3201  20.31860
 2.3191  20.74020
 2.3180  21.39700
 2.3170  21.57300
 2.3160  20.97090
 2.3149  21.03530
 2.3139  21.40460
 2.3129  21.46690
 2.3118  21.37900
 2.3108  21.50220
 2.3098  21.56210
 2.3088  21.75390
 2.3077  21.63970
 2.3067  21.45160
 2.3057  21.47990
 2.3047  21.92670
 2.3036  22.17450
 2.3026  22.00920
 2.3016  21.96960
 2.3006  22.11620
 2.2995  21.79690
 2.2985  22.03650
 2.2975  22.27210
 2.2965  22.14030
 2.2955  22.21170
 2.2944  22.29890
 2.2934  22.31040
 2.2924  22.27620
 2.2914  22.46880
 2.2904  22.58240
 2.2894  22.48500
 2.2884  22.51170
 2.2874  22.64920
 2.2864  22.71840
 2.2854  22.67740
 2.2843  23.23930
 2.2833  23.65120
 2.2823  23.13430
 2.2813  22.91470
 2.2803  23.47040
 2.2793  23.26380
 2.2783  23.35750
 2.2773  23.49980
 2.2763  23.49870
 2.2753  23.22320
 2.2743  22.79740
 2.2733  23.17420
 2.2723  23.55130
 2.2713  23.12150
 2.2703  22.80200
 2.2694  22.91580
 2.2684  22.67010
 2.2674  22.54400
 2.2664  22.84900
 2.2654  23.74830
 2.2644  24.14620
 2.2634  23.90370
 2.2624  24.16220
 2.2614  24.26950
 2.2605  24.15110
 2.2595  23.82950
 2.2585  23.73830
 2.2575  23.95230
 2.2565  24.90160
 2.2555  24.87600
 2.2546  24.11610
 2.2536  23.87030
 2.2526  23.75230
 2.2516  24.56340
 2.2506  25.46480
 2.2497  25.12340
 2.2487  24.72210
 2.2477  25.04460
 2.2467  25.57630
 2.2458  26.10180
 2.2448  26.24930
 2.2438  25.82970
 2.2428  25.81120
 2.2419  25.34410
 2.2409  24.84370
 2.2399  24.97740
 2.2390  25.06380
 2.2380  25.21470
 2.2370  25.69900
 2.2361  25.96480
 2.2351  26.18620
 2.2342  26.13080
 2.2332  26.10350
 2.2322  25.91070
 2.2313  26.09970
 2.2303  25.64160
 2.2294  25.71040
 2.2284  25.70950
 2.2274  25.53910
 2.2265  25.85670
 2.2255  26.58950
 2.2246  27.01980
 2.2236  25.95230
 2.2227  25.29110
 2.2217  26.16280
 2.2208  26.71450
 2.2198  26.70140
 2.2189  26.54630
 2.2179  26.63600
 2.2170  26.59830
 2.2160  25.86150
 2.2151  25.76610
 2.2141  26.03730
 2.2132  26.42200
 2.2122  26.43900
 2.2113  26.53570
 2.2103  26.37600
 2.2094  26.21140
 2.2085  26.18400
 2.2075  26.49840
 2.2066  26.84590
 2.2056  26.70220
 2.2047  25.84550
 2.2038  26.31480
 2.2028  26.55220
 2.2019  25.98140
 2.2010  26.34150
 2.2000  26.64590
 2.1991  26.43370
 2.1982  26.76090
 2.1972  27.00530
 2.1963  26.73110
 2.1954  26.81790
 2.1944  27.11530
 2.1935  26.80670
 2.1926  26.54940
 2.1917  26.34120
 2.1907  26.23300
 2.1898  26.43490
 2.1889  26.63160
 2.1880  26.47740
 2.1870  26.82450
 2.1861  27.17220
 2.1852  26.81140
 2.1843  26.60800
 2.1833  26.55790
 2.1824  26.35450
 2.1815  26.20370
 2.1806  26.43040
 2.1797  26.77640
 2.1788  26.39160
 2.1778  26.60120
 2.1769  26.39530
 2.1760  26.55610
 2.1751  26.62060
 2.1742  26.23050
 2.1733  26.43560
 2.1724  26.97660
 2.1715  26.77100
 2.1706  26.27730
 2.1696  26.83880
 2.1687  27.20160
 2.1678  26.93870
 2.1669  26.85530
 2.1660  26.84760
 2.1651  26.90610
 2.1642  27.38790
 2.1633  26.95500
 2.1624  25.90630
 2.1615  25.63110
 2.1606  26.29690
 2.1597  26.85010
 2.1588  27.15480
 2.1579  27.01810
 2.1570  27.23670
 2.1561  27.27350
 2.1552  26.89980
 2.1543  27.03710
 2.1534  27.25210
 2.1525  27.09300
 2.1517  26.62210
 2.1507  26.30220
 2.1499  25.67790
 2.1490  25.77030
 2.1481  26.01370
 2.1472  26.29140
 2.1463  26.70900
 2.1454  26.57350
 2.1445  26.78970
 2.1436  27.43310
 2.1428  27.43660
 2.1419  27.05370
 2.1410  26.96190
 2.1401  26.53210
 2.1392  25.88060
 2.1383  25.37420
 2.1375  25.86100
 2.1366  26.61280
 2.1357  26.90220
 2.1348  26.69800
 2.1339  26.51330
 2.1331  26.65300
 2.1322  26.58100
 2.1313  26.47840
 2.1304  26.44600
 2.1296  26.31000
 2.1287  26.33750
 2.1278  26.77250
 2.1269  26.31520
 2.1261  25.38260
 2.1252  26.06730
 2.1243  26.20580
 2.1235  25.43560
 2.1226  26.22360
 2.1217  27.07430
 2.1208  26.33400
 2.1200  25.91850
 2.1191  26.29380
 2.1183  26.12220
 2.1174  25.55680
 2.1165  25.60920
 2.1157  26.23260
 2.1148  26.57950
 2.1139  26.74250
 2.1131  25.93990
 2.1122  26.07050
 2.1113  26.61700
 2.1105  26.28210
 2.1096  26.23670
 2.1088  26.03110
 2.1079  25.93190
 2.1071  26.14600
 2.1062  26.48980
 2.1054  26.75880
 2.1045  26.41320
 2.1036  26.30640
 2.1028  26.65910
 2.1019  26.98070
 2.1011  26.98540
 2.1002  26.95280
 2.0994  27.02630
 2.0985  26.39040
 2.0977  26.25600
 2.0968  26.40940
 2.0960  26.30030
 2.0951  25.98600
 2.0943  25.37010
 2.0934  25.41240
 2.0926  25.90560
 2.0918  26.26470
 2.0909  26.53680
 2.0901  27.86310
 2.0892  27.88020
 2.0884  27.04950
 2.0875  26.72710
 2.0867  25.57630
 2.0859  25.04970
 2.0850  26.99290
 2.0842  27.61640
 2.0833  26.68160
 2.0825  26.59930
 2.0817  26.67190
 2.0808  25.49140
 2.0800  24.71630
 2.0792  25.37290
 2.0783  26.67740
 2.0775  27.57380
 2.0767  27.82960
 2.0759  26.43020
 2.0750  26.19360
 2.0742  26.86390
 2.0734  27.29780
 2.0725  26.25810
 2.0717  25.84420
 2.0709  26.66280
 2.0701  27.51630
 2.0692  27.00560
 2.0684  25.58380
 2.0676  25.34450
 2.0667  26.27120
 2.0659  25.82790
 2.0651  25.56040
 2.0643  26.17190
 2.0635  27.21680
 2.0626  27.19750
 2.0618  26.68360
 2.0610  26.12030
 2.0602  25.94460
 2.0594  26.07010
 2.0585  25.75320
 2.0577  25.10840
 2.0569  25.16870
 2.0561  27.01890
 2.0553  28.43590
 2.0545  28.44490
 2.0537  28.44180
 2.0528  27.06920
 2.0520  26.81410
 2.0512  25.56880
 2.0504  24.66660
 2.0496  24.38870
 2.0488  24.13500
 2.0480  26.96160
 2.0472  26.77770
 2.0464  25.94160
 2.0456  26.49970
 2.0447  25.26430
 2.0439  26.50740
 2.0431  27.53590
 2.0423  27.86330
 2.0415  25.88840
 2.0407  23.89060
 2.0399  24.49770
 2.0391  24.73700
 2.0383  25.36750
 2.0375  26.64090
 2.0367  26.98880
 2.0359  25.60610
 2.0351  25.73790
 2.0343  26.06370
 2.0335  25.84100
 2.0327  25.93490
 2.0319  24.94340
 2.0311  24.50910
 2.0303  26.24750
 2.0295  27.42180
 2.0287  26.73990
 2.0280  26.64660
 2.0272  25.72470
 2.0264  25.61690
 2.0256  25.48500
 2.0248  26.06030
 2.0240  26.40160
 2.0232  25.71980
 2.0224  25.64190
 2.0216  25.83050
 2.0208  26.15260
 2.0200  25.94810
 2.0193  25.51190
 2.0185  26.40320
 2.0177  26.88590
 2.0169  25.66220
 2.0161  25.08940
 2.0153  24.57970
 2.0146  25.28180
 2.0138  26.40470
 2.0130  27.40100
 2.0122  26.28720
 2.0114  25.21760
 2.0107  26.34460
 2.0099  26.68580
 2.0091  24.75460
 2.0083  24.17620
 2.0075  24.77610
 2.0068  24.52380
 2.0060  24.84990
 2.0052  24.65050
 2.0044  24.98550
 2.0037  25.03390
 2.0029  24.72690
 2.0021  24.51540
 2.0013  24.23190
 2.0006  24.73480
 1.9998  25.28140
