Name: Brass plate
Type: Manmade materials
Class: Reflectance target
Subclass: 
Particle Size: Solid
Sample No.: SN: ILF-17464-2-2
Owner: JPL
Wavelength range: IR
Origin: Labsphere, P.O. Box 70, Shaker Street, North Sutton, NH 03260
(603) 927-4266
Description: Measurement made at bottom left. Field Brass 1.
Measured Oct. 29 1997.




Measurement: Hemispherical Reflectance
First Column: X
Second Column: Y
X Units: Wavelength (micrometers)
Y Units: Reflectence (percent)
First X Value: 15.3853
Last X Value: 2.00032
Number of X Values: 2256
Additional information: None.
 
15.3853	80.5175
15.3397	80.6071
15.2945	80.7266
15.2495	80.7397
15.2048	80.8326
15.1603	80.7877
15.1161	80.6263
15.0722	80.5483
15.0285	80.4316
14.9851	80.2987
14.9419	80.5582
14.8989	80.8098
14.8563	80.8205
14.8138	80.8029
14.7716	80.7758
14.7296	80.7109
14.6879	80.6025
14.6464	80.4586
14.6052	80.4254
14.5641	80.5178
14.5233	80.4911
14.4828	80.4423
14.4424	80.4249
14.4023	80.5176
14.3624	80.5368
14.3227	80.4877
14.2833	80.6034
14.244	80.7983
14.205	80.7729
14.1662	80.6603
14.1276	80.5716
14.0892	80.2987
14.051	80.1
14.0131	80.1179
13.9753	80.246
13.9377	80.3766
13.9004	80.446
13.8632	80.4438
13.8262	80.4332
13.7895	80.4588
13.7529	80.5413
13.7165	80.5904
13.6803	80.5507
13.6443	80.5314
13.6085	80.5706
13.5729	80.6687
13.5374	80.8441
13.5022	80.862
13.4671	80.7413
13.4322	80.6283
13.3975	80.5992
13.363	80.6583
13.3286	80.6294
13.2944	80.499
13.2604	80.4928
13.2266	80.5276
13.193	80.4741
13.1595	80.4332
13.1262	80.5095
13.093	80.575
13.06	80.6761
13.0272	80.5796
12.9946	80.3097
12.9621	80.1862
12.9298	80.1546
12.8976	80.191
12.8656	80.2709
12.8337	80.197
12.8021	80.0708
12.7705	79.993
12.7391	80.1336
12.7079	80.1985
12.6769	80.1702
12.6459	80.1433
12.6152	80.0376
12.5845	79.9741
12.5541	80.0743
12.5238	80.0863
12.4936	80.0264
12.4635	80.1413
12.4337	80.3898
12.4039	80.4331
12.3743	80.4804
12.3448	80.6005
12.3155	80.6337
12.2863	80.7267
12.2573	80.7409
12.2284	80.798
12.1996	80.8664
12.171	80.8969
12.1425	80.9324
12.1141	80.9211
12.0859	80.8647
12.0578	80.8586
12.0298	80.8758
12.0019	80.9271
11.9742	81.0259
11.9466	81.0243
11.9192	80.9174
11.8918	80.8446
11.8646	80.8912
11.8375	80.8486
11.8106	80.6345
11.7837	80.5829
11.757	80.7438
11.7304	80.7608
11.7039	80.7555
11.6776	80.7543
11.6513	80.7685
11.6252	80.668
11.5992	80.5124
11.5733	80.368
11.5475	80.2083
11.5219	79.9718
11.4963	79.6157
11.4709	79.3746
11.4455	79.4061
11.4203	79.443
11.3952	79.5288
11.3702	79.7065
11.3454	79.8544
11.3206	79.9332
11.2959	79.9987
11.2714	80.1923
11.2469	80.3174
11.2226	80.3191
11.1983	80.2929
11.1742	80.1637
11.1502	80.0765
11.1263	80.0627
11.1024	79.9451
11.0787	79.8717
11.0551	79.8642
11.0316	79.8161
11.0081	79.7414
10.9848	79.7634
10.9616	79.7456
10.9385	79.6915
10.9154	79.6351
10.8925	79.5294
10.8697	79.5123
10.8469	79.4989
10.8243	79.529
10.8017	79.5754
10.7793	79.5322
10.7569	79.4441
10.7346	79.4379
10.7125	79.4086
10.6904	79.2977
10.6684	79.2871
10.6465	79.2734
10.6247	79.1627
10.6029	79.0518
10.5813	79.1361
10.5597	79.1279
10.5383	79.0817
10.5169	79.0068
10.4956	79.0085
10.4744	78.9817
10.4533	78.8496
10.4323	78.8259
10.4113	78.7367
10.3904	78.5959
10.3697	78.5141
10.349	78.4595
10.3284	78.4051
10.3078	78.3881
10.2874	78.3383
10.267	78.304
10.2467	78.3233
10.2265	78.2198
10.2064	78.1112
10.1863	78.0748
10.1663	78.0729
10.1464	78.0665
10.1266	77.9643
10.1069	77.9346
10.0872	77.8986
10.0676	77.8766
10.0481	77.8566
10.0287	77.8381
10.0093	77.8537
9.99005	77.8454
9.97084	77.8597
9.95169	77.8044
9.93263	77.7362
9.91364	77.7395
9.89472	77.7711
9.87587	77.771
9.8571	77.7642
9.83839	77.7686
9.81976	77.7599
9.80119	77.7698
9.78271	77.7475
9.76428	77.8034
9.74592	77.8646
9.72764	77.7272
9.70943	77.6936
9.69128	77.7778
9.6732	77.7851
9.65518	77.8099
9.63724	77.7789
9.61935	77.774
9.60155	77.91
9.5838	78.002
9.56611	77.8899
9.5485	77.865
9.53094	77.9718
9.51345	78.0402
9.49604	78.0296
9.47867	78.0625
9.46137	78.1143
9.44414	78.0851
9.42697	78.1077
9.40986	78.2494
9.39281	78.3364
9.37583	78.286
9.35891	78.3269
9.34204	78.4665
9.32524	78.6042
9.3085	78.6229
9.29182	78.6028
9.27519	78.6658
9.25863	78.6964
9.24213	78.6768
9.22568	78.6195
9.2093	78.6714
9.19297	78.7583
9.17669	78.8831
9.16048	78.9414
9.14433	78.8808
9.12823	78.9108
9.11218	78.9196
9.0962	78.9243
9.08027	78.9839
9.06439	79.0842
9.04858	79.1199
9.03281	79.1983
9.0171	79.3322
9.00145	79.3544
8.98585	79.3611
8.9703	79.279
8.9548	79.2223
8.93937	79.2418
8.92398	79.2865
8.90865	79.3606
8.89337	79.4186
8.87814	79.4182
8.86296	79.4605
8.84784	79.3629
8.83277	79.3333
8.81774	79.3525
8.80277	79.3276
8.78786	79.4214
8.77298	79.5123
8.75816	79.5647
8.7434	79.5399
8.72868	79.5645
8.714	79.6161
8.69938	79.5967
8.68481	79.597
8.67029	79.5867
8.65581	79.5634
8.64139	79.6056
8.62701	79.7771
8.61268	79.8078
8.5984	79.7238
8.58416	79.8186
8.56997	79.961
8.55583	80.0197
8.54174	80.1079
8.52769	80.1144
8.51368	80.1351
8.49973	80.1968
8.48582	80.3143
8.47195	80.2863
8.45813	80.2623
8.44436	80.3985
8.43062	80.5513
8.41693	80.6306
8.4033	80.6399
8.3897	80.6292
8.37614	80.7102
8.36264	80.7516
8.34917	80.77
8.33574	80.8158
8.32236	80.8513
8.30903	80.9137
8.29573	80.9894
8.28248	81.0183
8.26927	81.0407
8.2561	81.1004
8.24298	81.1368
8.2299	81.2024
8.21685	81.2558
8.20385	81.3203
8.19089	81.3416
8.17797	81.3813
8.16509	81.4633
8.15225	81.4726
8.13946	81.4926
8.1267	81.4862
8.11398	81.5018
8.10131	81.5386
8.08867	81.5769
8.07606	81.6458
8.0635	81.6905
8.05099	81.6759
8.0385	81.6288
8.02606	81.6603
8.01366	81.749
8.00129	81.7342
7.98896	81.7696
7.97667	81.8375
7.96442	81.9921
7.9522	82.0978
7.94002	82.0751
7.92788	82.037
7.91578	82.1305
7.90371	82.2104
7.89168	82.2475
7.87969	82.3043
7.86773	82.3573
7.85581	82.4231
7.84392	82.4559
7.83207	82.4988
7.82026	82.5713
7.80849	82.5786
7.79674	82.5679
7.78503	82.5598
7.77337	82.5863
7.76173	82.6175
7.75012	82.6221
7.73856	82.6789
7.72703	82.6929
7.71553	82.7314
7.70406	82.7705
7.69263	82.7857
7.68123	82.7653
7.66987	82.7329
7.65855	82.751
7.64725	82.694
7.63598	82.6853
7.62475	82.7162
7.61356	82.7304
7.60239	82.6737
7.59126	82.6923
7.58017	82.7172
7.5691	82.6777
7.55806	82.6627
7.54707	82.6892
7.5361	82.706
7.52516	82.693
7.51425	82.7106
7.50338	82.7123
7.49253	82.644
7.48172	82.6522
7.47094	82.6602
7.46019	82.6221
7.44947	82.5706
7.43879	82.504
7.42813	82.4593
7.4175	82.4424
7.4069	82.4127
7.39634	82.3229
7.3858	82.2211
7.37529	82.2108
7.36482	82.2224
7.35437	82.1456
7.34396	82.1499
7.33357	82.1415
7.32321	81.9995
7.31288	81.9133
7.30258	81.8723
7.29231	81.8091
7.28207	81.825
7.27185	81.7875
7.26167	81.7035
7.25152	81.6716
7.24139	81.5674
7.23129	81.5022
7.22122	81.4909
7.21117	81.5317
7.20116	81.5295
7.19117	81.4573
7.18121	81.4455
7.17128	81.5478
7.16137	81.5114
7.1515	81.4798
7.14164	81.4342
7.13182	81.3429
7.12203	81.4192
7.11225	81.483
7.10251	81.3495
7.0928	81.2176
7.08311	81.2404
7.07344	81.3417
7.06381	81.3622
7.0542	81.5374
7.04461	81.7144
7.03506	81.5008
7.02552	81.3948
7.01601	81.3859
7.00653	81.3544
6.99708	81.3456
6.98765	81.2676
6.97824	81.251
6.96886	81.3759
6.95951	81.493
6.95018	81.2871
6.94087	81.2362
6.9316	81.2315
6.92234	81.2561
6.91311	81.3043
6.90391	81.2907
6.89473	81.1979
6.88557	81.1908
6.87644	81.3306
6.86733	81.7543
6.85824	81.7852
6.84918	81.3871
6.84015	81.2026
6.83114	81.3257
6.82215	81.3572
6.81319	81.2128
6.80424	81.2707
6.79532	81.574
6.78643	81.6224
6.77756	81.4476
6.76871	81.3336
6.75989	81.238
6.75109	81.299
6.74231	81.3635
6.73355	81.3887
6.72482	81.5361
6.71611	81.7237
6.70742	81.7326
6.69875	81.5779
6.69011	81.6983
6.68149	81.9472
6.67289	81.8892
6.66431	81.7618
6.65576	81.7478
6.64722	82.1661
6.63871	82.7245
6.63022	82.5204
6.62175	82.2101
6.61331	82.1972
6.60488	82.2272
6.59648	82.4466
6.5881	82.5604
6.57974	82.7552
6.5714	83.0202
6.56308	82.7934
6.55478	82.7012
6.54651	82.651
6.53825	82.5739
6.53001	82.7225
6.5218	83.0663
6.51361	82.9546
6.50544	82.9881
6.49729	83.5239
6.48915	83.5855
6.48104	83.3188
6.47295	83.1906
6.46488	83.0732
6.45683	83.0896
6.4488	83.2005
6.44079	83.2287
6.4328	83.3756
6.42482	83.6027
6.41687	84.0777
6.40894	83.882
6.40103	83.2546
6.39314	83.118
6.38526	83.1309
6.37741	83.2448
6.36957	83.3242
6.36176	83.1457
6.35396	83.155
6.34618	83.4259
6.33843	83.2279
6.33069	82.9171
6.32297	82.8762
6.31527	82.8702
6.30758	82.8455
6.29992	82.8187
6.29227	82.7629
6.28465	82.6848
6.27704	82.6495
6.26945	82.5711
6.26188	82.5574
6.25432	82.6319
6.24679	82.6922
6.23927	82.6781
6.23177	82.6025
6.22429	82.6108
6.21683	82.6302
6.20938	82.5619
6.20195	82.5018
6.19454	82.6289
6.18715	82.9236
6.17978	82.7887
6.17242	82.5142
6.16508	82.5634
6.15776	82.5096
6.15045	82.3404
6.14317	82.4056
6.1359	82.4503
6.12864	82.533
6.12141	82.8756
6.11419	83.2467
6.10699	83.0674
6.0998	82.8271
6.09263	82.8201
6.08549	82.8827
6.07835	83.1882
6.07123	83.352
6.06413	83.1386
6.05705	83.4758
6.04998	84.1733
6.04293	83.711
6.0359	83.1627
6.02888	83.0738
6.02187	83.1076
6.01489	83.2868
6.00792	83.2835
6.00096	83.2925
5.99403	83.5364
5.98711	83.5724
5.9802	83.4483
5.97331	83.6014
5.96644	83.5579
5.95958	83.2506
5.95274	83.2527
5.94591	83.4465
5.9391	83.9378
5.9323	83.8095
5.92552	83.3749
5.91876	83.3611
5.91201	83.3768
5.90528	83.4988
5.89856	83.8758
5.89186	83.8272
5.88517	83.9806
5.8785	84.0659
5.87184	83.6564
5.8652	83.6738
5.85857	83.5592
5.85196	83.4501
5.84536	83.466
5.83878	83.5208
5.83221	83.671
5.82566	83.9781
5.81912	83.9615
5.81259	83.6428
5.80608	83.5663
5.79959	83.6215
5.79311	83.5675
5.78665	83.5815
5.78019	83.7311
5.77376	83.9766
5.76734	84.2881
5.76093	84.0053
5.75453	83.7495
5.74815	83.9154
5.74179	83.8858
5.73543	83.8929
5.7291	83.8801
5.72277	83.8392
5.71646	83.907
5.71017	83.961
5.70389	83.8204
5.69762	83.8184
5.69136	83.9104
5.68513	83.8468
5.6789	83.8727
5.67268	83.8898
5.66648	83.848
5.6603	83.9318
5.65413	83.9571
5.64797	84.0328
5.64182	84.1957
5.63569	84.015
5.62957	83.7943
5.62347	83.8094
5.61737	83.8856
5.61129	83.8045
5.60522	83.6821
5.59917	83.5801
5.59313	83.4963
5.5871	83.4727
5.58109	83.5156
5.57509	83.3257
5.5691	83.0737
5.56312	83.0841
5.55716	83.18
5.55121	83.3126
5.54528	83.4774
5.53935	83.6304
5.53344	83.7134
5.52754	83.6905
5.52166	83.7381
5.51578	83.7838
5.50992	83.7128
5.50407	83.7149
5.49823	83.7371
5.49241	83.7836
5.4866	83.8598
5.4808	83.9384
5.47501	83.9454
5.46923	83.9749
5.46347	84.0482
5.45772	84.0491
5.45198	84.0164
5.44625	83.9772
5.44054	83.96
5.43484	83.9801
5.42914	84.0936
5.42347	84.2856
5.4178	84.2141
5.41214	84.0483
5.4065	83.9773
5.40087	83.8963
5.39525	83.8936
5.38964	83.9452
5.38404	83.9869
5.37846	84.007
5.37288	83.971
5.36732	83.9785
5.36177	83.9917
5.35623	84.0425
5.35071	84.1068
5.34519	83.9968
5.33968	83.9339
5.33419	83.966
5.32871	83.9716
5.32324	83.9669
5.31778	83.9544
5.31233	83.96
5.30689	84.0038
5.30147	84.0092
5.29605	84.0055
5.29065	84.0479
5.28525	84.0283
5.27987	84.0733
5.2745	84.0967
5.26914	84.0865
5.26379	84.08
5.25845	84.062
5.25312	84.0965
5.24781	84.1471
5.2425	84.1406
5.23721	84.1502
5.23192	84.1256
5.22665	84.1569
5.22138	84.2055
5.21613	84.2718
5.21089	84.2414
5.20566	84.2232
5.20044	84.2912
5.19522	84.3094
5.19002	84.2575
5.18483	84.2265
5.17965	84.2313
5.17448	84.2207
5.16933	84.2136
5.16418	84.2296
5.15904	84.1749
5.15391	84.196
5.14879	84.2714
5.14368	84.2715
5.13859	84.2538
5.1335	84.2013
5.12842	84.2141
5.12335	84.2644
5.1183	84.2655
5.11325	84.2909
5.10821	84.2917
5.10318	84.3077
5.09817	84.2747
5.09316	84.2751
5.08816	84.278
5.08317	84.259
5.07819	84.2295
5.07322	84.2225
5.06826	84.2326
5.06331	84.2715
5.05837	84.2991
5.05344	84.3368
5.04852	84.3231
5.04361	84.228
5.03871	84.2091
5.03382	84.283
5.02894	84.3051
5.02406	84.2839
5.0192	84.2754
5.01435	84.2787
5.0095	84.2885
5.00467	84.2784
4.99984	84.2949
4.99502	84.3142
4.99021	84.3244
4.98542	84.262
4.98063	84.2627
4.97585	84.3021
4.97108	84.3292
4.96632	84.3165
4.96156	84.3751
4.95682	84.4197
4.95209	84.379
4.94736	84.3334
4.94264	84.3678
4.93794	84.3826
4.93324	84.4021
4.92855	84.4431
4.92387	84.3983
4.9192	84.3384
4.91453	84.3728
4.90988	84.4253
4.90524	84.4489
4.9006	84.4475
4.89597	84.4204
4.89135	84.3999
4.88674	84.4104
4.88214	84.4481
4.87755	84.4236
4.87296	84.42
4.86839	84.4015
4.86382	84.4671
4.85926	84.5143
4.85471	84.4497
4.85017	84.4389
4.84564	84.439
4.84111	84.4692
4.8366	84.4854
4.83209	84.4714
4.82759	84.4632
4.8231	84.4454
4.81862	84.461
4.81415	84.5177
4.80968	84.5614
4.80522	84.5444
4.80077	84.5501
4.79633	84.5391
4.7919	84.4895
4.78747	84.4826
4.78306	84.4961
4.77865	84.4481
4.77425	84.4146
4.76986	84.4465
4.76547	84.4679
4.7611	84.4571
4.75673	84.4266
4.75237	84.4361
4.74802	84.4993
4.74367	84.5132
4.73934	84.5086
4.73501	84.4429
4.73069	84.4176
4.72638	84.4158
4.72207	84.4181
4.71777	84.4115
4.71348	84.409
4.7092	84.4485
4.70493	84.4962
4.70066	84.4583
4.69641	84.4558
4.69216	84.458
4.68791	84.4318
4.68368	84.4055
4.67945	84.4227
4.67523	84.4811
4.67102	84.4915
4.66682	84.3948
4.66262	84.3756
4.65843	84.3781
4.65425	84.4234
4.65007	84.4381
4.64591	84.4536
4.64175	84.4905
4.6376	84.4805
4.63345	84.4793
4.62932	84.4909
4.62519	84.4868
4.62106	84.4439
4.61695	84.379
4.61284	84.4404
4.60874	84.504
4.60465	84.4418
4.60056	84.4278
4.59648	84.4461
4.59241	84.4542
4.58835	84.4767
4.58429	84.4365
4.58024	84.4285
4.5762	84.4797
4.57216	84.4926
4.56814	84.4678
4.56411	84.4482
4.5601	84.4548
4.55609	84.4569
4.55209	84.4882
4.5481	84.4801
4.54411	84.4708
4.54013	84.5674
4.53616	84.5992
4.5322	84.5198
4.52824	84.4827
4.52429	84.5025
4.52034	84.4698
4.51641	84.4707
4.51247	84.5106
4.50855	84.5411
4.50463	84.4928
4.50072	84.4457
4.49682	84.4102
4.49292	84.3937
4.48903	84.453
4.48515	84.4836
4.48127	84.4979
4.4774	84.5103
4.47354	84.5504
4.46968	84.5361
4.46584	84.5327
4.46199	84.547
4.45815	84.5516
4.45432	84.5163
4.4505	84.4647
4.44668	84.4571
4.44287	84.5046
4.43907	84.547
4.43527	84.5357
4.43148	84.4889
4.4277	84.4315
4.42392	84.4172
4.42015	84.4354
4.41638	84.4901
4.41262	84.5066
4.40887	84.4487
4.40513	84.4482
4.40139	84.4745
4.39765	84.4635
4.39393	84.5128
4.39021	84.5174
4.38649	84.4812
4.38278	84.4477
4.37908	84.4061
4.37539	84.4095
4.3717	84.4857
4.36801	84.4792
4.36434	84.4249
4.36067	84.4203
4.357	84.4593
4.35335	84.4724
4.34969	84.442
4.34605	84.431
4.34241	84.4449
4.33877	84.4695
4.33514	84.4275
4.33152	84.3409
4.32791	84.3492
4.3243	84.3026
4.32069	84.1892
4.3171	84.1312
4.31351	84.1168
4.30992	84.0497
4.30634	83.9822
4.30277	83.9665
4.2992	83.9357
4.29564	83.806
4.29208	83.695
4.28853	83.6801
4.28499	83.7185
4.28145	83.6864
4.27792	83.6336
4.27439	83.6652
4.27087	83.7244
4.26735	83.823
4.26384	83.9309
4.26034	84.0832
4.25684	84.2415
4.25335	84.0883
4.24986	83.8464
4.24638	83.696
4.24291	83.5338
4.23944	83.4323
4.23598	83.3498
4.23252	83.334
4.22906	83.3581
4.22562	83.4804
4.22218	83.6286
4.21874	83.7432
4.21531	83.8799
4.21189	84.0508
4.20847	84.1848
4.20506	84.3371
4.20165	84.4047
4.19825	84.4218
4.19485	84.4449
4.19146	84.4404
4.18807	84.4974
4.18469	84.4873
4.18132	84.4586
4.17795	84.4473
4.17458	84.4846
4.17123	84.4795
4.16787	84.4904
4.16453	84.4751
4.16118	84.4549
4.15785	84.4428
4.15451	84.4159
4.15119	84.3896
4.14787	84.4196
4.14455	84.4977
4.14124	84.4917
4.13794	84.478
4.13464	84.5185
4.13134	84.4726
4.12805	84.4072
4.12477	84.4394
4.12149	84.4804
4.11822	84.471
4.11495	84.4305
4.11168	84.3956
4.10843	84.4091
4.10517	84.4093
4.10192	84.4377
4.09868	84.3972
4.09545	84.3182
4.09221	84.326
4.08899	84.3554
4.08576	84.3299
4.08255	84.309
4.07933	84.3337
4.07613	84.4072
4.07292	84.4416
4.06973	84.4147
4.06654	84.397
4.06335	84.39
4.06017	84.2832
4.05699	84.2312
4.05382	84.2564
4.05065	84.3022
4.04749	84.2943
4.04433	84.2799
4.04118	84.2573
4.03803	84.2468
4.03489	84.2424
4.03175	84.2651
4.02862	84.2094
4.02549	84.2033
4.02237	84.1533
4.01925	84.047
4.01614	84.0155
4.01303	84.0199
4.00993	83.9903
4.00683	83.9401
4.00373	83.8608
4.00064	83.8208
3.99756	83.8104
3.99448	83.7509
3.9914	83.6672
3.98833	83.68
3.98527	83.6893
3.98221	83.6151
3.97915	83.6108
3.9761	83.6011
3.97305	83.5143
3.97001	83.4427
3.96697	83.4867
3.96394	83.4954
3.96091	83.5276
3.95789	83.6176
3.95487	83.6361
3.95186	83.6525
3.94885	83.7098
3.94584	83.7303
3.94284	83.7399
3.93984	83.8176
3.93685	83.8824
3.93386	83.9013
3.93088	83.885
3.9279	83.8243
3.92493	83.873
3.92196	83.9557
3.919	83.9936
3.91604	83.9705
3.91308	83.95
3.91013	83.8911
3.90718	83.8605
3.90424	83.9356
3.9013	83.9796
3.89837	84.0378
3.89544	84.0552
3.89252	84.0173
3.8896	84.0711
3.88668	84.1053
3.88377	84.0365
3.88086	84.0306
3.87796	84.108
3.87506	84.1495
3.87217	84.045
3.86928	83.9008
3.86639	83.9309
3.86351	83.9951
3.86064	83.9978
3.85776	83.9876
3.8549	83.9783
3.85203	83.9292
3.84917	83.9507
3.84631	84.0173
3.84346	84.0923
3.84062	84.0818
3.83777	84.0542
3.83494	84.0517
3.8321	84.1012
3.82927	84.0822
3.82644	84.0449
3.82362	84.1131
3.82081	84.0968
3.81799	84.1028
3.81518	84.0596
3.81238	84.0295
3.80958	84.1211
3.80678	84.1609
3.80399	84.1857
3.8012	84.206
3.79841	84.1671
3.79563	84.1068
3.79286	84.1452
3.79008	84.1948
3.78731	84.164
3.78455	84.1348
3.78179	84.1388
3.77903	84.2254
3.77628	84.2174
3.77353	84.199
3.77079	84.2234
3.76805	84.2422
3.76531	84.2393
3.76258	84.2202
3.75985	84.249
3.75713	84.2539
3.7544	84.2089
3.75169	84.1868
3.74898	84.2116
3.74627	84.1986
3.74356	84.1516
3.74086	84.1947
3.73816	84.2573
3.73547	84.2214
3.73278	84.1482
3.7301	84.1971
3.72741	84.2439
3.72474	84.2244
3.72206	84.1495
3.71939	84.1887
3.71673	84.2022
3.71406	84.1751
3.71141	84.2306
3.70875	84.2476
3.7061	84.2184
3.70345	84.2183
3.70081	84.158
3.69817	84.1485
3.69553	84.2003
3.6929	84.2386
3.69027	84.1944
3.68765	84.2081
3.68503	84.2374
3.68241	84.1714
3.6798	84.1522
3.67719	84.1521
3.67458	84.2316
3.67198	84.2308
3.66938	84.1242
3.66678	84.0269
3.66419	84.0259
3.66161	84.0857
3.65902	84.1678
3.65644	84.2488
3.65387	84.2676
3.65129	84.1983
3.64872	84.1663
3.64616	84.1155
3.64359	84.1235
3.64103	84.0793
3.63848	84.0605
3.63593	84.1011
3.63338	84.1317
3.63084	84.1764
3.6283	84.2197
3.62576	84.1337
3.62322	84.0876
3.62069	84.1268
3.61817	84.0781
3.61564	83.9292
3.61312	83.9698
3.61061	84.0176
3.6081	84.0456
3.60559	84.0947
3.60308	84.0724
3.60058	84.077
3.59808	84.1047
3.59558	84.0735
3.59309	84.0511
3.59061	84.0498
3.58812	84.0291
3.58564	83.9697
3.58316	84.0458
3.58069	84.0572
3.57822	84.0205
3.57575	84.0095
3.57328	83.9583
3.57082	83.9612
3.56836	83.9632
3.56591	83.9289
3.56346	83.9245
3.56101	83.9626
3.55857	83.9965
3.55613	84.0034
3.55369	84.0002
3.55126	83.9223
3.54883	83.9424
3.5464	83.9965
3.54397	83.9428
3.54155	83.8524
3.53914	83.857
3.53672	83.8927
3.53431	83.8841
3.5319	83.8652
3.5295	83.803
3.5271	83.7405
3.5247	83.7678
3.52231	83.7121
3.51991	83.6147
3.51753	83.5649
3.51514	83.5195
3.51276	83.4752
3.51038	83.4547
3.50801	83.4457
3.50563	83.3988
3.50327	83.3615
3.5009	83.3136
3.49854	83.2654
3.49618	83.2516
3.49382	83.2628
3.49147	83.2256
3.48912	83.2169
3.48677	83.2138
3.48443	83.2055
3.48209	83.2348
3.47975	83.2094
3.47742	83.2575
3.47509	83.3236
3.47276	83.2809
3.47044	83.257
3.46812	83.2437
3.4658	83.2921
3.46348	83.344
3.46117	83.3104
3.45886	83.3555
3.45656	83.3863
3.45425	83.3711
3.45195	83.3371
3.44966	83.332
3.44736	83.2836
3.44507	83.1541
3.44279	83.066
3.4405	83.1421
3.43822	83.2095
3.43594	83.2007
3.43367	83.1994
3.43139	83.2
3.42912	83.1661
3.42686	83.168
3.42459	83.1456
3.42233	83.0834
3.42007	83.0116
3.41782	83.0708
3.41557	83.1301
3.41332	83.1111
3.41108	83.0342
3.40883	83.0019
3.40659	83.0167
3.40435	83.0887
3.40212	83.1266
3.39989	83.0993
3.39766	83.1298
3.39544	83.2252
3.39322	83.2533
3.391	83.2007
3.38878	83.1261
3.38657	83.088
3.38436	83.0963
3.38215	83.0455
3.37994	83.0017
3.37774	83.0764
3.37554	83.1823
3.37335	83.2293
3.37115	83.1857
3.36896	83.1701
3.36678	83.1935
3.36459	83.1249
3.36241	83.1989
3.36023	83.2894
3.35805	83.2777
3.35588	83.2515
3.35371	83.2282
3.35154	83.234
3.34938	83.2572
3.34721	83.2479
3.34505	83.3132
3.3429	83.3658
3.34074	83.4418
3.33859	83.4638
3.33644	83.4183
3.3343	83.4489
3.33215	83.3972
3.33001	83.3879
3.32788	83.4693
3.32574	83.5125
3.32361	83.5237
3.32148	83.5263
3.31936	83.5354
3.31723	83.5529
3.31511	83.4787
3.31299	83.4608
3.31088	83.4323
3.30876	83.4394
3.30665	83.4886
3.30455	83.5001
3.30244	83.5253
3.30034	83.4953
3.29824	83.4165
3.29614	83.4362
3.29405	83.4371
3.29196	83.481
3.28987	83.5567
3.28778	83.5462
3.2857	83.508
3.28362	83.4376
3.28154	83.4275
3.27946	83.4447
3.27739	83.5144
3.27532	83.5781
3.27325	83.5349
3.27119	83.5097
3.26913	83.4665
3.26707	83.3925
3.26501	83.5099
3.26295	83.5435
3.2609	83.4989
3.25885	83.4579
3.2568	83.3794
3.25476	83.4478
3.25272	83.4664
3.25068	83.4116
3.24864	83.3773
3.24661	83.2577
3.24458	83.3642
3.24255	83.4361
3.24052	83.3731
3.2385	83.3029
3.23648	83.3197
3.23446	83.4001
3.23244	83.39
3.23043	83.3269
3.22841	83.3512
3.2264	83.34
3.2244	83.343
3.22239	83.3399
3.22039	83.3243
3.21839	83.3503
3.2164	83.3218
3.2144	83.2229
3.21241	83.1491
3.21042	83.2395
3.20844	83.1793
3.20645	83.1751
3.20447	83.2744
3.20249	83.3167
3.20051	83.2929
3.19854	83.2341
3.19657	83.1616
3.1946	83.2546
3.19263	83.3282
3.19067	83.2908
3.1887	83.2673
3.18674	83.2529
3.18479	83.2075
3.18283	83.1955
3.18088	83.1927
3.17893	83.1631
3.17698	83.0844
3.17504	83.1475
3.17309	83.2439
3.17115	83.1878
3.16921	83.163
3.16728	83.2144
3.16534	83.1912
3.16341	83.153
3.16148	83.1404
3.15956	83.0908
3.15763	83.106
3.15571	83.1779
3.15379	83.1687
3.15187	83.054
3.14996	83.0059
3.14805	83.043
3.14614	83.0612
3.14423	83.0451
3.14232	83.0926
3.14042	83.1538
3.13852	83.1298
3.13662	83.068
3.13472	83.0225
3.13283	82.9606
3.13094	82.9094
3.12905	82.9652
3.12716	82.9595
3.12528	82.9241
3.12339	82.9303
3.12151	82.9183
3.11964	82.9816
3.11776	83.0558
3.11589	82.9977
3.11401	82.9417
3.11214	82.9236
3.11028	82.9117
3.10841	82.8126
3.10655	82.7489
3.10469	82.7898
3.10283	82.8043
3.10098	82.9149
3.09912	83.022
3.09727	82.8871
3.09542	82.7725
3.09358	82.7587
3.09173	82.8128
3.08989	82.8101
3.08805	82.812
3.08621	82.8247
3.08437	82.775
3.08254	82.7777
3.08071	82.7722
3.07888	82.7874
3.07705	82.8254
3.07523	82.7812
3.0734	82.7514
3.07158	82.7412
3.06977	82.7034
3.06795	82.6802
3.06613	82.6124
3.06432	82.5864
3.06251	82.6167
3.0607	82.6673
3.0589	82.7331
3.0571	82.7935
3.05529	82.8452
3.05349	82.7917
3.0517	82.7313
3.0499	82.7883
3.04811	82.8132
3.04632	82.7684
3.04453	82.7708
3.04274	82.7801
3.04096	82.6794
3.03918	82.6417
3.0374	82.6418
3.03562	82.5813
3.03384	82.6591
3.03207	82.6502
3.03029	82.6558
3.02852	82.7594
3.02676	82.6735
3.02499	82.5815
3.02323	82.5473
3.02146	82.5472
3.0197	82.5377
3.01795	82.5626
3.01619	82.6286
3.01444	82.625
3.01269	82.5607
3.01094	82.6724
3.00919	82.8679
3.00744	82.7393
3.0057	82.6275
3.00396	82.6541
3.00222	82.6613
3.00048	82.5894
2.99875	82.5261
2.99701	82.5239
2.99528	82.5478
2.99355	82.519
2.99183	82.5219
2.9901	82.55
2.98838	82.6073
2.98666	82.6133
2.98494	82.4629
2.98322	82.4576
2.9815	82.6019
2.97979	82.6898
2.97808	82.6198
2.97637	82.5189
2.97466	82.44
2.97295	82.4108
2.97125	82.5213
2.96955	82.6544
2.96785	82.6335
2.96615	82.602
2.96446	82.5352
2.96276	82.3471
2.96107	82.4382
2.95938	82.5784
2.95769	82.4635
2.95601	82.464
2.95432	82.4305
2.95264	82.3715
2.95096	82.4368
2.94928	82.4688
2.9476	82.3425
2.94593	82.31
2.94425	82.3449
2.94258	82.423
2.94092	82.5593
2.93925	82.5715
2.93758	82.481
2.93592	82.4145
2.93426	82.35
2.9326	82.394
2.93094	82.4678
2.92928	82.494
2.92763	82.464
2.92598	82.4525
2.92433	82.5054
2.92268	82.5201
2.92103	82.5753
2.91939	82.5808
2.91775	82.4526
2.9161	82.3957
2.91447	82.4579
2.91283	82.4077
2.91119	82.3755
2.90956	82.5261
2.90793	82.5608
2.9063	82.4607
2.90467	82.4185
2.90304	82.5284
2.90142	82.6486
2.89979	82.6674
2.89817	82.548
2.89656	82.4162
2.89494	82.4626
2.89332	82.4815
2.89171	82.4478
2.8901	82.4674
2.88849	82.5318
2.88688	82.5304
2.88527	82.3938
2.88367	82.3838
2.88206	82.4877
2.88046	82.4826
2.87886	82.4211
2.87727	82.4466
2.87567	82.4652
2.87408	82.5364
2.87248	82.5766
2.87089	82.521
2.8693	82.5729
2.86772	82.5588
2.86613	82.4506
2.86455	82.4805
2.86297	82.5185
2.86139	82.5572
2.85981	82.5064
2.85823	82.4877
2.85666	82.5618
2.85508	82.5297
2.85351	82.4274
2.85194	82.2854
2.85038	82.1685
2.84881	82.2406
2.84724	82.3703
2.84568	82.3525
2.84412	82.2889
2.84256	82.4198
2.841	82.4227
2.83945	82.4327
2.83789	82.5485
2.83634	82.5049
2.83479	82.4848
2.83324	82.4224
2.83169	82.4372
2.83015	82.4479
2.82861	82.3873
2.82706	82.4209
2.82552	82.3456
2.82398	82.3193
2.82245	82.3298
2.82091	82.3575
2.81938	82.3696
2.81784	82.3375
2.81631	82.312
2.81479	82.3246
2.81326	82.3771
2.81173	82.429
2.81021	82.2943
2.80869	82.2057
2.80716	82.3286
2.80565	82.421
2.80413	82.3946
2.80261	82.3371
2.8011	82.1954
2.79959	82.0202
2.79808	82.2126
2.79657	82.1798
2.79506	82.0457
2.79355	82.1348
2.79205	82.2785
2.79055	82.558
2.78904	82.7572
2.78754	82.5542
2.78605	82.0097
2.78455	81.8813
2.78306	81.9758
2.78156	81.9365
2.78007	82.0423
2.77858	82.3229
2.77709	82.4982
2.77561	82.1158
2.77412	82.0052
2.77264	82.1434
2.77116	82.1771
2.76968	81.9701
2.7682	82.0361
2.76672	82.2513
2.76524	82.2403
2.76377	82.1693
2.7623	82.05
2.76083	81.9623
2.75936	81.9917
2.75789	82.1339
2.75642	82.2331
2.75496	82.2809
2.7535	82.3159
2.75203	82.3403
2.75057	82.2597
2.74912	82.1421
2.74766	82.253
2.7462	82.2441
2.74475	82.2287
2.7433	82.3565
2.74185	82.5782
2.7404	82.8246
2.73895	82.7301
2.7375	82.4655
2.73606	82.5925
2.73462	82.6672
2.73318	82.6489
2.73174	82.6503
2.7303	82.6752
2.72886	82.6665
2.72742	82.7295
2.72599	82.9758
2.72456	83.2818
2.72313	83.1837
2.7217	83.3024
2.72027	83.5262
2.71884	83.192
2.71742	83.021
2.71599	83.0037
2.71457	82.9959
2.71315	83.1203
2.71173	83.469
2.71032	83.5869
2.7089	83.5112
2.70748	83.2967
2.70607	83.1309
2.70466	83.2406
2.70325	83.3684
2.70184	83.5384
2.70043	83.6429
2.69903	83.5982
2.69762	83.6117
2.69622	83.8074
2.69482	84.0335
2.69342	83.9275
2.69202	83.7233
2.69062	83.7988
2.68923	83.8082
2.68783	83.7761
2.68644	83.8521
2.68505	83.9521
2.68366	84.0392
2.68227	84.0607
2.68089	84.1436
2.6795	84.3249
2.67812	84.2859
2.67673	84.3864
2.67535	84.2858
2.67397	84.0569
2.6726	84.1933
2.67122	84.8442
2.66984	84.7962
2.66847	84.3875
2.6671	84.6633
2.66572	84.7579
2.66435	84.4219
2.66299	84.1789
2.66162	84.1637
2.66025	84.1169
2.65889	84.0551
2.65753	83.9965
2.65616	84.1947
2.65481	84.0936
2.65345	84.0539
2.65209	84.0816
2.65073	83.9465
2.64938	83.8842
2.64803	84.0074
2.64667	84.1448
2.64532	84.0087
2.64397	83.8576
2.64263	83.906
2.64128	83.9436
2.63994	84.0042
2.63859	84.0873
2.63725	84.2141
2.63591	84.1554
2.63457	84.0599
2.63323	83.9851
2.6319	84.0762
2.63056	84.3101
2.62923	84.1492
2.62789	84.1383
2.62656	84.2631
2.62523	84.0289
2.6239	83.9352
2.62258	84.0222
2.62125	84.2254
2.61993	84.3277
2.6186	84.1776
2.61728	84.2608
2.61596	84.1973
2.61464	84.0714
2.61332	84.098
2.61201	84.126
2.61069	84.1265
2.60938	84.1384
2.60807	84.1248
2.60675	84.2857
2.60544	84.4885
2.60414	84.2867
2.60283	84.2925
2.60152	84.3133
2.60022	84.1642
2.59891	84.1122
2.59761	84.126
2.59631	84.4646
2.59501	85.0464
2.59371	84.7465
2.59242	84.1745
2.59112	84.0442
2.58983	84.1569
2.58853	84.214
2.58724	84.1248
2.58595	84.0214
2.58466	84.1069
2.58338	84.1481
2.58209	84.1166
2.5808	84.2206
2.57952	84.1287
2.57824	84.2218
2.57695	84.2756
2.57567	84.1537
2.5744	84.1271
2.57312	84.0612
2.57184	83.8701
2.57057	84.1272
2.56929	84.2737
2.56802	84.0663
2.56675	84.0412
2.56548	84.1578
2.56421	84.1919
2.56294	84.1911
2.56168	84.2278
2.56041	84.2015
2.55915	84.1142
2.55789	83.9979
2.55662	83.9465
2.55536	83.8942
2.5541	83.9567
2.55285	84.0309
2.55159	84.0175
2.55034	84.019
2.54908	84.0318
2.54783	84.1253
2.54658	84.0681
2.54533	84.1378
2.54408	84.0851
2.54283	83.9621
2.54159	84.0218
2.54034	84.0553
2.5391	83.9474
2.53785	83.9841
2.53661	83.9645
2.53537	83.812
2.53413	83.9524
2.53289	84.1325
2.53166	84.0829
2.53042	84.0147
2.52919	83.9682
2.52795	83.8552
2.52672	83.8198
2.52549	83.8441
2.52426	83.7704
2.52303	83.8003
2.52181	83.8975
2.52058	83.8703
2.51936	83.872
2.51813	83.9235
2.51691	83.9301
2.51569	84.0252
2.51447	84.1194
2.51325	84.0756
2.51203	83.8915
2.51082	83.7935
2.5096	83.8094
2.50839	83.8238
2.50717	83.9241
2.50596	84.0096
2.50475	83.8554
2.50354	83.7893
2.50233	83.7831
2.50113	83.7399
2.49992	83.9486
2.49872	84.0863
2.49751	84.0221
2.49631	84.0361
2.49511	84.031
2.49391	83.8999
2.49271	83.7101
2.49151	83.7045
2.49031	83.8853
2.48912	83.8933
2.48792	83.8519
2.48673	83.9225
2.48554	83.963
2.48435	83.901
2.48316	83.8613
2.48197	83.9873
2.48078	83.9645
2.4796	83.8685
2.47841	83.9512
2.47723	83.9649
2.47604	83.9961
2.47486	83.9653
2.47368	83.838
2.4725	83.8969
2.47132	84.059
2.47014	83.9782
2.46897	83.8597
2.46779	83.9385
2.46662	83.9172
2.46545	83.7836
2.46427	83.8365
2.4631	83.934
2.46193	83.9208
2.46077	83.8383
2.4596	83.7592
2.45843	83.7474
2.45727	83.7201
2.4561	83.7288
2.45494	83.8405
2.45378	83.855
2.45262	83.723
2.45146	83.7348
2.4503	83.7744
2.44914	83.7719
2.44799	83.7852
2.44683	83.825
2.44568	83.8054
2.44452	83.7594
2.44337	83.7702
2.44222	83.8323
2.44107	83.8988
2.43992	83.9266
2.43877	84.074
2.43763	84.1471
2.43648	83.9998
2.43534	84.0785
2.43419	83.9964
2.43305	83.8703
2.43191	83.7485
2.43077	83.7757
2.42963	83.9002
2.42849	83.8666
2.42736	83.8239
2.42622	83.8919
2.42509	83.9358
2.42395	83.8285
2.42282	83.6778
2.42169	83.7978
2.42056	83.9478
2.41943	83.9255
2.4183	83.8589
2.41717	83.8442
2.41605	83.8576
2.41492	83.8198
2.4138	83.6868
2.41267	83.6824
2.41155	83.7563
2.41043	83.7488
2.40931	83.8256
2.40819	83.879
2.40707	83.9336
2.40595	83.9456
2.40484	83.8336
2.40372	83.8263
2.40261	83.85
2.4015	83.817
2.40039	83.6923
2.39928	83.6907
2.39817	83.7918
2.39706	83.8567
2.39595	83.8736
2.39484	83.9106
2.39374	83.8337
2.39263	83.7657
2.39153	83.7952
2.39043	83.8225
2.38932	83.8245
2.38822	83.8965
2.38712	83.9401
2.38603	83.933
2.38493	83.777
2.38383	83.7333
2.38274	83.7343
2.38164	83.7314
2.38055	83.7716
2.37946	83.9088
2.37836	83.919
2.37727	83.8666
2.37618	83.7728
2.3751	83.7232
2.37401	83.7204
2.37292	83.8916
2.37184	83.98
2.37075	83.8965
2.36967	83.7789
2.36859	83.8699
2.3675	84.0199
2.36642	83.9799
2.36534	83.798
2.36427	83.6736
2.36319	83.7437
2.36211	83.8269
2.36104	83.8161
2.35996	83.8079
2.35889	83.7774
2.35781	83.7383
2.35674	83.7355
2.35567	83.7273
2.3546	83.6879
2.35353	83.7192
2.35247	83.7447
2.3514	83.6978
2.35033	83.6596
2.34927	83.6702
2.3482	83.6782
2.34714	83.682
2.34608	83.7462
2.34502	83.8851
2.34396	83.9342
2.3429	83.8324
2.34184	83.8251
2.34078	83.9174
2.33973	83.8829
2.33867	83.8539
2.33762	83.7283
2.33656	83.6043
2.33551	83.6569
2.33446	83.7013
2.33341	83.7098
2.33236	83.7145
2.33131	83.7446
2.33026	83.844
2.32922	83.8112
2.32817	83.7566
2.32712	83.6921
2.32608	83.7191
2.32504	83.7455
2.324	83.8271
2.32295	84.0003
2.32191	83.9605
2.32087	83.8027
2.31984	83.6369
2.3188	83.6689
2.31776	83.7241
2.31673	83.6967
2.31569	83.6692
2.31466	83.7438
2.31362	83.8407
2.31259	83.8111
2.31156	83.7614
2.31053	83.807
2.3095	83.6721
2.30847	83.6217
2.30745	83.7423
2.30642	83.7207
2.3054	83.6795
2.30437	83.8661
2.30335	83.8316
2.30232	83.6481
2.3013	83.7004
2.30028	83.6594
2.29926	83.4824
2.29824	83.4851
2.29722	83.7971
2.29621	83.8052
2.29519	83.7168
2.29417	83.8475
2.29316	83.8905
2.29215	83.6837
2.29113	83.6172
2.29012	83.591
2.28911	83.6266
2.2881	83.6707
2.28709	83.7002
2.28608	83.6899
2.28507	83.6657
2.28407	83.7104
2.28306	83.6764
2.28206	83.7545
2.28105	83.6714
2.28005	83.4684
2.27905	83.4273
2.27805	83.5806
2.27705	83.8113
2.27605	83.8488
2.27505	83.677
2.27405	83.5679
2.27305	83.5917
2.27206	83.758
2.27106	83.707
2.27007	83.6528
2.26907	83.7661
2.26808	83.7065
2.26709	83.6422
2.2661	83.5969
2.26511	83.5711
2.26412	83.6282
2.26313	83.6213
2.26214	83.7108
2.26116	83.8376
2.26017	83.7586
2.25919	83.6172
2.2582	83.6249
2.25722	83.6036
2.25624	83.6176
2.25526	83.7273
2.25428	83.7993
2.2533	83.8263
2.25232	83.7806
2.25134	83.6295
2.25036	83.6335
2.24939	83.6591
2.24841	83.6557
2.24744	83.6799
2.24646	83.5652
2.24549	83.4411
2.24452	83.4977
2.24355	83.6152
2.24257	83.6266
2.24161	83.7179
2.24064	83.8048
2.23967	83.8389
2.2387	83.7846
2.23774	83.6075
2.23677	83.5086
2.23581	83.51
2.23484	83.5744
2.23388	83.6693
2.23292	83.6128
2.23196	83.4579
2.231	83.607
2.23004	83.8237
2.22908	83.8038
2.22812	83.6803
2.22716	83.6842
2.22621	83.7515
2.22525	83.6212
2.2243	83.4996
2.22334	83.5205
2.22239	83.5834
2.22144	83.7322
2.22049	83.712
2.21953	83.7
2.21859	83.689
2.21764	83.5896
2.21669	83.6056
2.21574	83.4842
2.21479	83.4288
2.21385	83.5706
2.2129	83.6801
2.21196	83.6166
2.21102	83.5763
2.21007	83.5858
2.20913	83.5382
2.20819	83.6522
2.20725	83.6264
2.20631	83.5354
2.20537	83.4502
2.20444	83.511
2.2035	83.5453
2.20256	83.6165
2.20163	83.649
2.20069	83.6205
2.19976	83.6276
2.19883	83.5569
2.19789	83.5138
2.19696	83.4456
2.19603	83.3848
2.1951	83.4873
2.19417	83.6703
2.19325	83.5517
2.19232	83.6074
2.19139	83.7997
2.19047	83.6708
2.18954	83.5159
2.18862	83.4304
2.18769	83.3874
2.18677	83.4625
2.18585	83.4355
2.18493	83.4752
2.18401	83.5268
2.18309	83.7517
2.18217	83.7416
2.18125	83.5734
2.18033	83.6118
2.17942	83.5656
2.1785	83.5587
2.17759	83.6281
2.17667	83.6077
2.17576	83.5385
2.17485	83.4736
2.17393	83.3736
2.17302	83.5836
2.17211	83.7389
2.1712	83.5594
2.17029	83.4909
2.16939	83.543
2.16848	83.4326
2.16757	83.4318
2.16667	83.4674
2.16576	83.5868
2.16486	83.5302
2.16395	83.5
2.16305	83.5594
2.16215	83.618
2.16125	83.5939
2.16035	83.5676
2.15945	83.59
2.15855	83.531
2.15765	83.4405
2.15675	83.6022
2.15586	83.7819
2.15496	83.7021
2.15406	83.5251
2.15317	83.5729
2.15228	83.6745
2.15138	83.607
2.15049	83.6386
2.1496	83.6991
2.14871	83.5033
2.14782	83.3097
2.14693	83.3692
2.14604	83.3812
2.14515	83.3061
2.14427	83.4129
2.14338	83.5099
2.14249	83.4531
2.14161	83.4417
2.14072	83.7292
2.13984	83.7972
2.13896	83.5145
2.13808	83.2914
2.13719	83.3704
2.13631	83.6053
2.13543	83.4745
2.13455	83.5068
2.13368	83.5246
2.1328	83.3754
2.13192	83.2714
2.13105	83.3392
2.13017	83.4659
2.1293	83.6346
2.12842	83.6376
2.12755	83.5519
2.12668	83.3752
2.1258	83.3111
2.12493	83.5208
2.12406	83.6112
2.12319	83.6358
2.12232	83.6104
2.12145	83.5097
2.12059	83.4475
2.11972	83.4413
2.11885	83.3748
2.11799	83.3001
2.11712	83.3922
2.11626	83.569
2.1154	83.4768
2.11453	83.2279
2.11367	83.1784
2.11281	83.377
2.11195	83.7267
2.11109	83.7619
2.11023	83.4412
2.10937	83.342
2.10851	83.4632
2.10766	83.3333
2.1068	83.4044
2.10594	83.5076
2.10509	83.3483
2.10423	83.3715
2.10338	83.4415
2.10253	83.5243
2.10168	83.5063
2.10082	83.6188
2.09997	83.5792
2.09912	83.3723
2.09827	83.4383
2.09742	83.4122
2.09658	83.4346
2.09573	83.5066
2.09488	83.41
2.09404	83.3684
2.09319	83.4966
2.09235	83.3863
2.0915	83.1971
2.09066	83.268
2.08982	83.3629
2.08897	83.3567
2.08813	83.3809
2.08729	83.3932
2.08645	83.3537
2.08561	83.308
2.08477	83.3224
2.08394	83.5728
2.0831	83.6084
2.08226	83.4523
2.08143	83.3782
2.08059	83.3945
2.07976	83.5151
2.07892	83.3957
2.07809	83.347
2.07726	83.5175
2.07643	83.6468
2.07559	83.4557
2.07476	83.3062
2.07393	83.4786
2.0731	83.5458
2.07228	83.4649
2.07145	83.3586
2.07062	83.2751
2.06979	83.215
2.06897	83.285
2.06814	83.4063
2.06732	83.3985
2.06649	83.3136
2.06567	83.3815
2.06485	83.273
2.06403	83.0796
2.0632	83.4104
2.06238	83.8927
2.06156	83.9099
2.06074	83.3543
2.05993	83.0429
2.05911	83.1867
2.05829	83.3138
2.05747	83.3403
2.05666	83.3889
2.05584	83.5614
2.05503	83.6868
2.05421	83.6025
2.0534	83.6635
2.05259	83.5256
2.05177	83.1615
2.05096	83.2756
2.05015	83.4225
2.04934	83.2582
2.04853	83.2098
2.04772	83.3008
2.04691	83.4571
2.04611	83.6802
2.0453	83.9066
2.04449	83.5755
2.04369	83.1817
2.04288	83.0661
2.04208	83.1617
2.04127	83.1285
2.04047	83.0922
2.03967	83.0118
2.03886	83.444
2.03806	83.705
2.03726	83.4023
2.03646	83.3893
2.03566	83.6901
2.03486	83.4339
2.03407	83.0645
2.03327	83.0268
2.03247	83.174
2.03167	83.468
2.03088	83.4597
2.03008	83.1986
2.02929	83.2504
2.0285	83.4129
2.0277	83.3433
2.02691	83.2968
2.02612	83.4801
2.02533	83.3338
2.02453	83.0911
2.02374	83.0879
2.02295	83.2302
2.02217	83.5286
2.02138	83.5733
2.02059	83.422
2.0198	83.5444
2.01902	83.3156
2.01823	83.109
2.01744	83.1892
2.01666	83.3747
2.01588	83.4148
2.01509	83.3846
2.01431	83.28
2.01353	83.1971
2.01275	83.2632
2.01196	83.1633
2.01118	83.27
2.0104	83.4582
2.00963	83.4808
2.00885	83.4231
2.00807	83.4684
2.00729	83.487
2.00651	83.2675
2.00574	83.1775
2.00496	83.2037
2.00419	83.252
2.00341	83.4222
2.00264	83.4382
2.00187	83.2693
2.00109	82.9965
2.00032	82.7069
