Name: Lepidolite K(Li,Al)3(Si,Al)_4O_10(F,OH)_2
Type: Mineral
Class: Silicates
Subclass: Phyllosilicates
Particle Size: 0-45um
Sample No.: PS-13A
Owner: JPL
Wavelength range: IR
Origin: USA, South Dakota
Collected by Ward's
Description:  Yellow lepidolite. 





Measurement: Hemispherical reflectance
First Column: X
Second Column: Y
X Units:  Wavelength (micrometers)
Y Units:  Reflectance (percent)
First X Value: 15.3853
Last X Value: 2.00032
Number of X Values: 2256
Additional information: ps13aa.txt
 
15.3853	1.41018
15.3397	1.55893
15.2945	1.49125
15.2495	1.54836
15.2048	1.50671
15.1603	1.57613
15.1161	1.80731
15.0722	1.77675
15.0285	1.75747
14.9851	1.84775
14.9419	1.80637
14.8989	1.73307
14.8563	1.71769
14.8138	1.96711
14.7716	2.29507
14.7296	2.20961
14.6879	1.95401
14.6464	1.936
14.6052	1.89823
14.5641	1.91026
14.5233	1.92595
14.4828	1.94005
14.4424	1.89747
14.4023	1.92514
14.3624	2.08808
14.3227	2.1141
14.2833	2.0641
14.244	2.14867
14.205	2.21302
14.1662	2.34938
14.1276	2.23767
14.0892	2.24905
14.051	2.38239
14.0131	2.39414
13.9753	2.36743
13.9377	2.39073
13.9004	2.50641
13.8632	2.71387
13.8262	2.85828
13.7895	2.72054
13.7529	2.36975
13.7165	2.37164
13.6803	2.48802
13.6443	2.52851
13.6085	2.5815
13.5729	2.52734
13.5374	2.53398
13.5022	2.69389
13.4671	2.60095
13.4322	2.55572
13.3975	2.5834
13.363	2.65174
13.3286	2.54802
13.2944	2.31501
13.2604	2.25778
13.2266	2.25517
13.193	2.09794
13.1595	2.1342
13.1262	2.18686
13.093	1.93911
13.06	1.94876
13.0272	2.04555
12.9946	2.01946
12.9621	2.04764
12.9298	2.04534
12.8976	2.09766
12.8656	2.37409
12.8337	2.6928
12.8021	2.79247
12.7705	2.69105
12.7391	2.60471
12.7079	2.70185
12.6769	3.07427
12.6459	3.17097
12.6152	3.01562
12.5845	2.97864
12.5541	2.87039
12.5238	2.73412
12.4936	2.61731
12.4635	2.81361
12.4337	2.95282
12.4039	2.79798
12.3743	2.79854
12.3448	3.04654
12.3155	3.11524
12.2863	3.18524
12.2573	3.43392
12.2284	3.74334
12.1996	3.77637
12.171	3.84037
12.1425	4.0167
12.1141	4.16276
12.0859	4.29961
12.0578	4.24494
12.0298	4.20996
12.0019	4.20646
11.9742	4.3488
11.9466	4.64375
11.9192	4.9109
11.8918	5.04657
11.8646	5.27714
11.8375	5.5835
11.8106	5.8853
11.7837	6.09959
11.757	6.04508
11.7304	5.9973
11.7039	5.98959
11.6776	6.13298
11.6513	6.19055
11.6252	6.15297
11.5992	6.18446
11.5733	6.28558
11.5475	6.06062
11.5219	5.69017
11.4963	5.66186
11.4709	5.60895
11.4455	5.40115
11.4203	5.37064
11.3952	5.27572
11.3702	5.25218
11.3454	5.29372
11.3206	5.24613
11.2959	5.25434
11.2714	5.24752
11.2469	5.21026
11.2226	5.23981
11.1983	5.19482
11.1742	5.16443
11.1502	5.12081
11.1263	5.31752
11.1024	5.33514
11.0787	5.13179
11.0551	5.0707
11.0316	5.22415
11.0081	5.30442
10.9848	5.13759
10.9616	4.90204
10.9385	4.75913
10.9154	4.70778
10.8925	4.92609
10.8697	5.06454
10.8469	5.10019
10.8243	4.98215
10.8017	4.92733
10.7793	4.85786
10.7569	4.80224
10.7346	4.80576
10.7125	4.81684
10.6904	4.74898
10.6684	4.62757
10.6465	4.53215
10.6247	4.53723
10.6029	4.55587
10.5813	4.60989
10.5597	4.70664
10.5383	4.79082
10.5169	4.76133
10.4956	4.85841
10.4744	5.09327
10.4533	5.33109
10.4323	5.52434
10.4113	5.61442
10.3904	5.58134
10.3697	5.71697
10.349	5.98376
10.3284	6.2062
10.3078	6.34071
10.2874	6.49678
10.267	6.65278
10.2467	6.82647
10.2265	6.92121
10.2064	7.06195
10.1863	7.25642
10.1663	7.38249
10.1464	7.46092
10.1266	7.63948
10.1069	7.63759
10.0872	7.7042
10.0676	7.74421
10.0481	7.76947
10.0287	7.78899
10.0093	7.82394
9.99005	7.83385
9.97084	7.85649
9.95169	8.02125
9.93263	8.20416
9.91364	8.268
9.89472	8.39487
9.87587	8.54423
9.8571	8.57204
9.83839	8.55654
9.81976	8.75998
9.80119	8.98825
9.78271	9.24764
9.76428	9.47726
9.74592	9.71225
9.72764	10.0137
9.70943	10.3149
9.69128	10.6722
9.6732	11.04
9.65518	11.4714
9.63724	11.9191
9.61935	12.2734
9.60155	12.3732
9.5838	12.168
9.56611	11.8842
9.5485	11.5112
9.53094	10.9449
9.51345	10.1554
9.49604	9.5048
9.47867	9.05701
9.46137	8.75752
9.44414	8.61079
9.42697	8.63419
9.40986	8.81505
9.39281	9.25826
9.37583	9.59915
9.35891	9.85362
9.34204	10.2645
9.32524	10.6365
9.3085	10.8682
9.29182	11.0278
9.27519	11.3092
9.25863	11.7486
9.24213	12.1348
9.22568	12.366
9.2093	12.5836
9.19297	12.7441
9.17669	12.738
9.16048	12.846
9.14433	12.9098
9.12823	12.7103
9.11218	12.6376
9.0962	12.6997
9.08027	12.6619
9.06439	12.5349
9.04858	12.3585
9.03281	12.1465
9.0171	12.1667
9.00145	12.1928
8.98585	12.0877
8.9703	12.047
8.9548	11.9694
8.93937	11.8573
8.92398	11.7023
8.90865	11.5996
8.89337	11.4271
8.87814	11.2992
8.86296	11.103
8.84784	10.8079
8.83277	10.7089
8.81774	10.6075
8.80277	10.3866
8.78786	10.1622
8.77298	9.8345
8.75816	9.64628
8.7434	9.60067
8.72868	9.35113
8.714	8.92742
8.69938	8.56453
8.68481	8.07316
8.67029	7.46952
8.65581	7.02057
8.64139	6.71147
8.62701	6.24293
8.61268	5.71833
8.5984	5.43397
8.58416	5.18582
8.56997	4.9732
8.55583	4.74385
8.54174	4.36522
8.52769	4.02302
8.51368	3.79505
8.49973	3.59088
8.48582	3.35981
8.47195	3.20154
8.45813	3.10537
8.44436	2.97642
8.43062	2.87771
8.41693	2.78204
8.4033	2.61966
8.3897	2.42954
8.37614	2.30973
8.36264	2.33352
8.34917	2.33625
8.33574	2.21929
8.32236	2.02263
8.30903	1.85064
8.29573	1.78444
8.28248	1.76316
8.26927	1.75219
8.2561	1.7288
8.24298	1.77096
8.2299	1.62366
8.21685	1.55455
8.20385	1.55816
8.19089	1.45058
8.17797	1.33654
8.16509	1.31633
8.15225	1.31036
8.13946	1.22451
8.1267	1.22749
8.11398	1.18246
8.10131	1.03378
8.08867	1.03944
8.07606	1.11764
8.0635	1.17336
8.05099	1.16485
8.0385	1.15422
8.02606	1.25415
8.01366	1.33752
8.00129	1.32026
7.98896	1.35981
7.97667	1.42843
7.96442	1.53619
7.9522	1.67906
7.94002	1.69234
7.92788	1.72189
7.91578	1.79456
7.90371	1.88106
7.89168	1.95754
7.87969	2.00599
7.86773	2.09737
7.85581	2.20777
7.84392	2.21877
7.83207	2.3343
7.82026	2.49338
7.80849	2.61307
7.79674	2.61865
7.78503	2.71147
7.77337	2.89981
7.76173	3.07413
7.75012	3.2252
7.73856	3.3698
7.72703	3.4973
7.71553	3.53907
7.70406	3.61375
7.69263	3.7317
7.68123	3.78904
7.66987	3.94967
7.65855	4.22243
7.64725	4.40434
7.63598	4.47834
7.62475	4.57767
7.61356	4.82322
7.60239	5.05263
7.59126	5.22661
7.58017	5.4508
7.5691	5.57953
7.55806	5.6616
7.54707	5.80234
7.5361	5.94149
7.52516	6.03365
7.51425	6.24454
7.50338	6.49238
7.49253	6.70134
7.48172	6.83042
7.47094	6.82459
7.46019	6.8757
7.44947	7.12247
7.43879	7.31497
7.42813	7.42211
7.4175	7.52479
7.4069	7.62549
7.39634	7.69316
7.3858	7.89512
7.37529	8.08686
7.36482	8.19057
7.35437	8.27375
7.34396	8.41732
7.33357	8.59262
7.32321	8.72256
7.31288	8.77941
7.30258	8.85512
7.29231	8.97273
7.28207	9.14405
7.27185	9.29531
7.26167	9.39406
7.25152	9.53706
7.24139	9.70864
7.23129	9.78184
7.22122	9.91927
7.21117	10.1384
7.20116	10.2153
7.19117	10.1755
7.18121	10.3132
7.17128	10.5101
7.16137	10.5833
7.1515	10.6391
7.14164	10.6992
7.13182	10.6593
7.12203	10.5953
7.11225	10.6965
7.10251	10.8748
7.0928	10.9162
7.08311	10.977
7.07344	11.0813
7.06381	11.225
7.0542	11.4008
7.04461	11.5909
7.03506	11.6085
7.02552	11.59
7.01601	11.6561
7.00653	11.7382
6.99708	11.8909
6.98765	12.0261
6.97824	12.174
6.96886	12.4178
6.95951	12.7496
6.95018	12.8879
6.94087	12.9096
6.9316	12.998
6.92234	13.2137
6.91311	13.4595
6.90391	13.6523
6.89473	13.9371
6.88557	14.2301
6.87644	14.4761
6.86733	14.8427
6.85824	15.0638
6.84918	15.0968
6.84015	15.3074
6.83114	15.6353
6.82215	15.9128
6.81319	16.0489
6.80424	16.2616
6.79532	16.5907
6.78643	16.9199
6.77756	17.0962
6.76871	17.2456
6.75989	17.4102
6.75109	17.6953
6.74231	17.9703
6.73355	18.2033
6.72482	18.4827
6.71611	18.7507
6.70742	18.94
6.69875	19.0629
6.69011	19.32
6.68149	19.6091
6.67289	19.7162
6.66431	19.7252
6.65576	19.8217
6.64722	20.1842
6.63871	20.5572
6.63022	20.537
6.62175	20.517
6.61331	20.6112
6.60488	20.7258
6.59648	20.9005
6.5881	21.0568
6.57974	21.419
6.5714	21.7034
6.56308	21.6201
6.55478	21.6465
6.54651	21.7556
6.53825	21.8932
6.53001	22.0403
6.5218	22.2055
6.51361	22.2625
6.50544	22.5085
6.49729	23.0198
6.48915	23.196
6.48104	23.0921
6.47295	23.0041
6.46488	22.957
6.45683	23.044
6.4488	23.1717
6.44079	23.2918
6.4328	23.5057
6.42482	23.6888
6.41687	24.031
6.40894	23.9293
6.40103	23.4796
6.39314	23.424
6.38526	23.4474
6.37741	23.4802
6.36957	23.5673
6.36176	23.4983
6.35396	23.6434
6.34618	23.9555
6.33843	23.8272
6.33069	23.6804
6.32297	23.72
6.31527	23.6999
6.30758	23.7527
6.29992	23.7332
6.29227	23.7288
6.28465	23.8416
6.27704	23.8899
6.26945	23.8258
6.26188	23.7262
6.25432	23.6769
6.24679	23.6533
6.23927	23.6539
6.23177	23.6729
6.22429	23.6207
6.21683	23.5466
6.20938	23.3935
6.20195	23.2118
6.19454	23.1269
6.18715	23.2198
6.17978	22.9857
6.17242	22.6228
6.16508	22.5296
6.15776	22.4488
6.15045	22.2975
6.14317	22.1708
6.1359	22.0669
6.12864	21.957
6.12141	22.0648
6.11419	22.1996
6.10699	21.9394
6.0998	21.6277
6.09263	21.4807
6.08549	21.4256
6.07835	21.4813
6.07123	21.5101
6.06413	21.3474
6.05705	21.3952
6.04998	21.7152
6.04293	21.3859
6.0359	21.0034
6.02888	20.9341
6.02187	20.892
6.01489	20.8151
6.00792	20.6362
6.00096	20.574
5.99403	20.6844
5.98711	20.6947
5.9802	20.5776
5.97331	20.5091
5.96644	20.4073
5.95958	20.2162
5.95274	20.1864
5.94591	20.1984
5.9391	20.4046
5.9323	20.2516
5.92552	19.9271
5.91876	19.8185
5.91201	19.7825
5.90528	19.8019
5.89856	20.018
5.89186	19.9556
5.88517	20.0152
5.8785	20.1233
5.87184	19.8377
5.8652	19.8096
5.85857	19.9072
5.85196	19.9238
5.84536	19.8962
5.83878	20.0066
5.83221	20.2525
5.82566	20.4967
5.81912	20.4758
5.81259	20.2467
5.80608	20.157
5.79959	20.1146
5.79311	20.1169
5.78665	20.1166
5.78019	20.0194
5.77376	19.9789
5.76734	20.1708
5.76093	20.1055
5.75453	19.905
5.74815	19.8207
5.74179	19.6818
5.73543	19.5638
5.7291	19.4617
5.72277	19.4585
5.71646	19.4595
5.71017	19.4927
5.70389	19.4097
5.69762	19.2644
5.69136	19.2382
5.68513	19.276
5.6789	19.3199
5.67268	19.2773
5.66648	19.1215
5.6603	19.0513
5.65413	19.0811
5.64797	19.0959
5.64182	19.2173
5.63569	19.0989
5.62957	18.9119
5.62347	18.8202
5.61737	18.7947
5.61129	18.7844
5.60522	18.7364
5.59917	18.6106
5.59313	18.4798
5.5871	18.4723
5.58109	18.513
5.57509	18.449
5.5691	18.3281
5.56312	18.2906
5.55716	18.2701
5.55121	18.2326
5.54528	18.1759
5.53935	18.1707
5.53344	18.1796
5.52754	18.2434
5.52166	18.3287
5.51578	18.2729
5.50992	18.2606
5.50407	18.3351
5.49823	18.3918
5.49241	18.3156
5.4866	18.308
5.4808	18.4021
5.47501	18.3989
5.46923	18.4594
5.46347	18.5608
5.45772	18.5056
5.45198	18.5058
5.44625	18.5747
5.44054	18.6844
5.43484	18.8184
5.42914	18.9045
5.42347	19.0178
5.4178	19.112
5.41214	19.1571
5.4065	19.2044
5.40087	19.4027
5.39525	19.559
5.38964	19.6325
5.38404	19.7839
5.37846	19.9535
5.37288	20.1102
5.36732	20.1925
5.36177	20.3961
5.35623	20.7458
5.35071	20.9925
5.34519	21.1359
5.33968	21.3488
5.33419	21.5678
5.32871	21.8116
5.32324	22.1166
5.31778	22.3583
5.31233	22.6343
5.30689	22.9766
5.30147	23.2945
5.29605	23.626
5.29065	23.9293
5.28525	24.277
5.27987	24.6271
5.2745	24.977
5.26914	25.3653
5.26379	25.7557
5.25845	26.1546
5.25312	26.5084
5.24781	26.7937
5.2425	27.1013
5.23721	27.4674
5.23192	27.7996
5.22665	28.1537
5.22138	28.5602
5.21613	28.9444
5.21089	29.2818
5.20566	29.6379
5.20044	30.0028
5.19522	30.2979
5.19002	30.6523
5.18483	30.9763
5.17965	31.3384
5.17448	31.7824
5.16933	32.1969
5.16418	32.5209
5.15904	32.8165
5.15391	33.2011
5.14879	33.6181
5.14368	33.9139
5.13859	34.2732
5.1335	34.6213
5.12842	34.904
5.12335	35.2011
5.1183	35.5587
5.11325	35.8871
5.10821	36.1346
5.10318	36.3976
5.09817	36.6782
5.09316	36.9759
5.08816	37.232
5.08317	37.4445
5.07819	37.6066
5.07322	37.6941
5.06826	37.8778
5.06331	38.1036
5.05837	38.2316
5.05344	38.2975
5.04852	38.3518
5.04361	38.4723
5.03871	38.5966
5.03382	38.6973
5.02894	38.8256
5.02406	38.9365
5.0192	38.9827
5.01435	39.0305
5.0095	39.1291
5.00467	39.0871
4.99984	39.0159
4.99502	39.0676
4.99021	39.1638
4.98542	39.2715
4.98063	39.2676
4.97585	39.306
4.97108	39.3864
4.96632	39.4839
4.96156	39.57
4.95682	39.6237
4.95209	39.6406
4.94736	39.7373
4.94264	39.7816
4.93794	39.7192
4.93324	39.7185
4.92855	39.8094
4.92387	39.8238
4.9192	39.842
4.91453	39.8311
4.90988	39.8701
4.90524	39.9272
4.9006	40.0303
4.89597	40.2047
4.89135	40.3343
4.88674	40.4514
4.88214	40.5647
4.87755	40.7405
4.87296	40.9381
4.86839	41.0209
4.86382	41.2395
4.85926	41.4681
4.85471	41.5637
4.85017	41.6322
4.84564	41.8049
4.84111	41.9743
4.8366	42.0869
4.83209	42.148
4.82759	42.2722
4.8231	42.4202
4.81862	42.5178
4.81415	42.5563
4.80968	42.576
4.80522	42.7017
4.80077	42.8395
4.79633	42.8661
4.7919	42.9535
4.78747	43.0746
4.78306	43.198
4.77865	43.3497
4.77425	43.526
4.76986	43.7148
4.76547	43.9515
4.7611	44.1876
4.75673	44.4031
4.75237	44.5657
4.74802	44.8122
4.74367	44.9863
4.73934	45.1689
4.73501	45.4189
4.73069	45.5345
4.72638	45.6415
4.72207	45.8151
4.71777	46.0734
4.71348	46.2992
4.7092	46.4828
4.70493	46.662
4.70066	46.8673
4.69641	47.0662
4.69216	47.128
4.68791	47.2582
4.68368	47.479
4.67945	47.7169
4.67523	47.9902
4.67102	48.2813
4.66682	48.4621
4.66262	48.6285
4.65843	48.9065
4.65425	49.2272
4.65007	49.5327
4.64591	49.7818
4.64175	50.0411
4.6376	50.3399
4.63345	50.7055
4.62932	51.0758
4.62519	51.4321
4.62106	51.7585
4.61695	52.0396
4.61284	52.3052
4.60874	52.6297
4.60465	52.9543
4.60056	53.2685
4.59648	53.5258
4.59241	53.7078
4.58835	53.9709
4.58429	54.2607
4.58024	54.5006
4.5762	54.7188
4.57216	54.9604
4.56814	55.2225
4.56411	55.3912
4.5601	55.5123
4.55609	55.7951
4.55209	56.0798
4.5481	56.2877
4.54411	56.5064
4.54013	56.7738
4.53616	56.9899
4.5322	57.21
4.52824	57.453
4.52429	57.6466
4.52034	57.903
4.51641	58.1709
4.51247	58.3808
4.50855	58.5733
4.50463	58.7797
4.50072	58.9788
4.49682	59.2197
4.49292	59.4366
4.48903	59.6328
4.48515	59.924
4.48127	60.1671
4.4774	60.4083
4.47354	60.6364
4.46968	60.8528
4.46584	61.1094
4.46199	61.3863
4.45815	61.5739
4.45432	61.8043
4.4505	62.0775
4.44668	62.2807
4.44287	62.5252
4.43907	62.8178
4.43527	63.091
4.43148	63.376
4.4277	63.6413
4.42392	63.8196
4.42015	63.9879
4.41638	64.2011
4.41262	64.476
4.40887	64.6773
4.40513	64.7946
4.40139	64.9406
4.39765	65.1562
4.39393	65.4204
4.39021	65.5822
4.38649	65.6858
4.38278	65.7815
4.37908	65.9753
4.37539	66.1306
4.3717	66.2391
4.36801	66.2891
4.36434	66.3057
4.36067	66.4026
4.357	66.5176
4.35335	66.5908
4.34969	66.6822
4.34605	66.7812
4.34241	66.8371
4.33877	66.9093
4.33514	66.9806
4.33152	67.0122
4.32791	67.0379
4.3243	67.1051
4.32069	67.1775
4.3171	67.1856
4.31351	67.2133
4.30992	67.2719
4.30634	67.374
4.30277	67.4355
4.2992	67.4655
4.29564	67.5146
4.29208	67.474
4.28853	67.467
4.28499	67.5201
4.28145	67.5183
4.27792	67.6102
4.27439	67.5988
4.27087	67.5386
4.26735	67.5375
4.26384	67.612
4.26034	67.6572
4.25684	67.6735
4.25335	67.7325
4.24986	67.7518
4.24638	67.7334
4.24291	67.7693
4.23944	67.8347
4.23598	67.8684
4.23252	67.9446
4.22906	67.9825
4.22562	67.9035
4.22218	67.8801
4.21874	67.9027
4.21531	67.8883
4.21189	67.8664
4.20847	67.9111
4.20506	67.9549
4.20165	67.9619
4.19825	67.914
4.19485	67.9398
4.19146	67.9302
4.18807	67.9557
4.18469	68.053
4.18132	68.0336
4.17795	67.9906
4.17458	68.0495
4.17123	68.0598
4.16787	68.0367
4.16453	68.092
4.16118	68.1749
4.15785	68.1323
4.15451	68.0862
4.15119	68.0489
4.14787	68.0147
4.14455	68.0942
4.14124	68.1409
4.13794	68.143
4.13464	68.1311
4.13134	68.0666
4.12805	68.0611
4.12477	68.1736
4.12149	68.1998
4.11822	68.107
4.11495	68.092
4.11168	68.1855
4.10843	68.1982
4.10517	68.202
4.10192	68.2511
4.09868	68.252
4.09545	68.2029
4.09221	68.1823
4.08899	68.2502
4.08576	68.3056
4.08255	68.3393
4.07933	68.3454
4.07613	68.3888
4.07292	68.3797
4.06973	68.3909
4.06654	68.4189
4.06335	68.4035
4.06017	68.3558
4.05699	68.3423
4.05382	68.4322
4.05065	68.5094
4.04749	68.5593
4.04433	68.5219
4.04118	68.4958
4.03803	68.5396
4.03489	68.5404
4.03175	68.4963
4.02862	68.5168
4.02549	68.5449
4.02237	68.5443
4.01925	68.6212
4.01614	68.6154
4.01303	68.567
4.00993	68.5926
4.00683	68.5898
4.00373	68.5813
4.00064	68.6462
3.99756	68.6508
3.99448	68.6641
3.9914	68.6946
3.98833	68.6445
3.98527	68.607
3.98221	68.5769
3.97915	68.6147
3.9761	68.693
3.97305	68.6886
3.97001	68.6943
3.96697	68.637
3.96394	68.6228
3.96091	68.7055
3.95789	68.7126
3.95487	68.7006
3.95186	68.7133
3.94885	68.7174
3.94584	68.7703
3.94284	68.8106
3.93984	68.8638
3.93685	68.9
3.93386	68.875
3.93088	68.8589
3.9279	68.9008
3.92493	68.9084
3.92196	68.9489
3.919	68.9658
3.91604	68.9624
3.91308	68.9816
3.91013	68.9845
3.90718	69.0321
3.90424	69.0662
3.9013	69.018
3.89837	68.9877
3.89544	68.9927
3.89252	69.0286
3.8896	69.025
3.88668	69.0953
3.88377	69.0898
3.88086	69.0659
3.87796	69.0633
3.87506	69.0861
3.87217	69.1103
3.86928	69.0823
3.86639	69.112
3.86351	69.1065
3.86064	69.0512
3.85776	69.0479
3.8549	69.0534
3.85203	69.0591
3.84917	68.9899
3.84631	68.9016
3.84346	68.9414
3.84062	69.011
3.83777	68.9657
3.83494	68.9469
3.8321	68.9624
3.82927	68.8952
3.82644	68.9106
3.82362	68.9772
3.82081	68.9296
3.81799	68.848
3.81518	68.772
3.81238	68.7
3.80958	68.6781
3.80678	68.6389
3.80399	68.6433
3.8012	68.6596
3.79841	68.5532
3.79563	68.4697
3.79286	68.3816
3.79008	68.3329
3.78731	68.3505
3.78455	68.3405
3.78179	68.2645
3.77903	68.141
3.77628	68.0359
3.77353	67.9276
3.77079	67.8306
3.76805	67.7805
3.76531	67.7206
3.76258	67.5893
3.75985	67.4477
3.75713	67.281
3.7544	67.0968
3.75169	66.9327
3.74898	66.7394
3.74627	66.5626
3.74356	66.4616
3.74086	66.2301
3.73816	66.023
3.73547	65.893
3.73278	65.8035
3.7301	65.7313
3.72741	65.6455
3.72474	65.5819
3.72206	65.5236
3.71939	65.454
3.71673	65.3935
3.71406	65.3908
3.71141	65.2962
3.70875	65.1654
3.7061	65.1284
3.70345	65.1023
3.70081	65.0719
3.69817	65.0612
3.69553	65.044
3.6929	65.0561
3.69027	65.0473
3.68765	65.0789
3.68503	65.0527
3.68241	65.0064
3.6798	64.9668
3.67719	64.886
3.67458	64.813
3.67198	64.7025
3.66938	64.6454
3.66678	64.6352
3.66419	64.6318
3.66161	64.5544
3.65902	64.3881
3.65644	64.347
3.65387	64.4322
3.65129	64.3857
3.64872	64.2762
3.64616	64.2095
3.64359	64.2192
3.64103	64.1486
3.63848	64.0297
3.63593	63.9775
3.63338	63.9749
3.63084	63.9863
3.6283	63.9727
3.62576	63.8707
3.62322	63.7787
3.62069	63.7335
3.61817	63.7168
3.61564	63.636
3.61312	63.5372
3.61061	63.4284
3.6081	63.2869
3.60559	63.2356
3.60308	63.2258
3.60058	63.0842
3.59808	62.9024
3.59558	62.7902
3.59309	62.6875
3.59061	62.523
3.58812	62.4394
3.58564	62.2871
3.58316	62.0897
3.58069	61.9829
3.57822	61.826
3.57575	61.6285
3.57328	61.469
3.57082	61.3281
3.56836	61.1861
3.56591	61.0534
3.56346	60.8768
3.56101	60.7253
3.55857	60.6461
3.55613	60.5139
3.55369	60.3572
3.55126	60.2276
3.54883	60.1088
3.5464	59.9698
3.54397	59.8584
3.54155	59.8079
3.53914	59.6649
3.53672	59.5637
3.53431	59.4312
3.5319	59.3784
3.5295	59.327
3.5271	59.1977
3.5247	59.0938
3.52231	58.9627
3.51991	58.7861
3.51753	58.5568
3.51514	58.2964
3.51276	58.091
3.51038	57.8973
3.50801	57.7266
3.50563	57.5957
3.50327	57.5269
3.5009	57.4231
3.49854	57.3208
3.49618	57.3897
3.49382	57.4251
3.49147	57.3818
3.48912	57.3658
3.48677	57.3896
3.48443	57.2978
3.48209	57.1643
3.47975	57.0453
3.47742	57.0164
3.47509	56.9851
3.47276	56.9744
3.47044	56.8997
3.46812	56.7906
3.4658	56.7643
3.46348	56.7302
3.46117	56.5485
3.45886	56.3838
3.45656	56.3012
3.45425	56.2673
3.45195	56.194
3.44966	55.991
3.44736	55.71
3.44507	55.512
3.44279	55.3352
3.4405	55.1336
3.43822	54.8867
3.43594	54.722
3.43367	54.5977
3.43139	54.3876
3.42912	54.0834
3.42686	53.8369
3.42459	53.6041
3.42233	53.3033
3.42007	53.0485
3.41782	52.872
3.41557	52.6712
3.41332	52.5303
3.41108	52.4519
3.40883	52.3892
3.40659	52.3923
3.40435	52.3566
3.40212	52.3657
3.39989	52.3625
3.39766	52.327
3.39544	52.2263
3.39322	52.1497
3.391	52.0321
3.38878	51.8031
3.38657	51.6052
3.38436	51.509
3.38215	51.3452
3.37994	51.158
3.37774	50.9553
3.37554	50.7998
3.37335	50.7353
3.37115	50.6343
3.36896	50.6066
3.36678	50.625
3.36459	50.5411
3.36241	50.4602
3.36023	50.4447
3.35805	50.3261
3.35588	50.2089
3.35371	50.0399
3.35154	49.8741
3.34938	49.8061
3.34721	49.7437
3.34505	49.5978
3.3429	49.4353
3.34074	49.4301
3.33859	49.4419
3.33644	49.2312
3.3343	48.9676
3.33215	48.8067
3.33001	48.7076
3.32788	48.6085
3.32574	48.5214
3.32361	48.411
3.32148	48.316
3.31936	48.1805
3.31723	48.068
3.31511	47.9814
3.31299	47.9627
3.31088	47.8395
3.30876	47.685
3.30665	47.6045
3.30455	47.4695
3.30244	47.2999
3.30034	47.2384
3.29824	47.2219
3.29614	47.1984
3.29405	47.142
3.29196	47.0056
3.28987	46.9656
3.28778	46.898
3.2857	46.7761
3.28362	46.7673
3.28154	46.7707
3.27946	46.7229
3.27739	46.6648
3.27532	46.738
3.27325	46.8386
3.27119	46.8619
3.26913	46.8181
3.26707	46.7553
3.26501	46.7235
3.26295	46.7209
3.2609	46.8117
3.25885	46.9788
3.2568	47.0113
3.25476	46.9091
3.25272	46.8763
3.25068	46.9391
3.24864	46.9418
3.24661	46.9123
3.24458	46.9387
3.24255	46.9654
3.24052	46.9512
3.2385	46.8382
3.23648	46.7415
3.23446	46.718
3.23244	46.6638
3.23043	46.6173
3.22841	46.529
3.2264	46.4223
3.2244	46.281
3.22239	46.1379
3.22039	46.097
3.21839	45.9725
3.2164	45.8687
3.2144	45.8932
3.21241	45.8065
3.21042	45.6698
3.20844	45.5555
3.20645	45.4357
3.20447	45.4046
3.20249	45.2607
3.20051	45.1146
3.19854	45.1368
3.19657	45.1105
3.1946	45.0095
3.19263	44.8682
3.19067	44.7627
3.1887	44.7289
3.18674	44.6588
3.18479	44.524
3.18283	44.5026
3.18088	44.4651
3.17893	44.354
3.17698	44.354
3.17504	44.3039
3.17309	44.2008
3.17115	44.1145
3.16921	44.0111
3.16728	44.0073
3.16534	43.9517
3.16341	44.0307
3.16148	44.0865
3.15956	43.9566
3.15763	43.8979
3.15571	43.8276
3.15379	43.6727
3.15187	43.5707
3.14996	43.612
3.14805	43.6239
3.14614	43.5709
3.14423	43.5171
3.14232	43.4494
3.14042	43.3016
3.13852	43.2091
3.13662	43.3002
3.13472	43.2148
3.13283	43.1188
3.13094	43.1438
3.12905	43.1026
3.12716	43.0514
3.12528	42.9673
3.12339	42.8716
3.12151	42.7421
3.11964	42.619
3.11776	42.5648
3.11589	42.5709
3.11401	42.5818
3.11214	42.5634
3.11028	42.4575
3.10841	42.3245
3.10655	42.2105
3.10469	42.1141
3.10283	41.9777
3.10098	41.9498
3.09912	42.0056
3.09727	41.9231
3.09542	41.8056
3.09358	41.6981
3.09173	41.5746
3.08989	41.4918
3.08805	41.4386
3.08621	41.3601
3.08437	41.2338
3.08254	41.1439
3.08071	41.1598
3.07888	41.1065
3.07705	40.9652
3.07523	40.8891
3.0734	40.8115
3.07158	40.6949
3.06977	40.593
3.06795	40.4349
3.06613	40.3716
3.06432	40.3319
3.06251	40.3047
3.0607	40.2645
3.0589	40.163
3.0571	39.9843
3.05529	39.8651
3.05349	39.7368
3.0517	39.6374
3.0499	39.5597
3.04811	39.4392
3.04632	39.4129
3.04453	39.4145
3.04274	39.3376
3.04096	39.2744
3.03918	39.2383
3.0374	39.2195
3.03562	39.1207
3.03384	38.9924
3.03207	38.9164
3.03029	38.8437
3.02852	38.8582
3.02676	38.8145
3.02499	38.8535
3.02323	38.9153
3.02146	38.757
3.0197	38.7327
3.01795	38.8587
3.01619	38.7677
3.01444	38.6918
3.01269	38.6884
3.01094	38.7283
3.00919	38.7291
3.00744	38.6385
3.0057	38.6293
3.00396	38.7143
3.00222	38.8321
3.00048	38.8228
2.99875	38.8601
2.99701	38.9134
2.99528	38.9397
2.99355	39.04
2.99183	39.0542
2.9901	39.0698
2.98838	39.2771
2.98666	39.3445
2.98494	39.3211
2.98322	39.4458
2.9815	39.4954
2.97979	39.5739
2.97808	39.6537
2.97637	39.6892
2.97466	39.7345
2.97295	39.8247
2.97125	39.8774
2.96955	39.9166
2.96785	39.9427
2.96615	39.9661
2.96446	40.0971
2.96276	40.1276
2.96107	40.1717
2.95938	40.0844
2.95769	40.0729
2.95601	40.2369
2.95432	40.338
2.95264	40.2936
2.95096	40.2542
2.94928	40.2965
2.9476	40.3675
2.94593	40.354
2.94425	40.3646
2.94258	40.3691
2.94092	40.2781
2.93925	40.243
2.93758	40.2164
2.93592	40.0818
2.93426	39.9466
2.9326	39.9714
2.93094	39.9948
2.92928	39.9316
2.92763	39.8835
2.92598	39.9041
2.92433	39.8164
2.92268	39.7146
2.92103	39.6077
2.91939	39.4551
2.91775	39.4218
2.9161	39.378
2.91447	39.2697
2.91283	39.1365
2.91119	38.9723
2.90956	39.0198
2.90793	38.9499
2.9063	38.7516
2.90467	38.8256
2.90304	38.9428
2.90142	38.7879
2.89979	38.5673
2.89817	38.6405
2.89656	38.7503
2.89494	38.7405
2.89332	38.7545
2.89171	38.85
2.8901	38.8982
2.88849	38.9308
2.88688	39.0277
2.88527	39.0416
2.88367	39.0973
2.88206	39.1446
2.88046	39.0932
2.87886	39.1653
2.87727	39.3072
2.87567	39.2729
2.87408	39.2271
2.87248	39.3678
2.87089	39.4471
2.8693	39.4555
2.86772	39.3165
2.86613	39.2416
2.86455	39.3866
2.86297	39.4566
2.86139	39.4298
2.85981	39.478
2.85823	39.5189
2.85666	39.3204
2.85508	39.188
2.85351	39.1233
2.85194	39.0137
2.85038	38.8865
2.84881	38.6623
2.84724	38.5018
2.84568	38.3817
2.84412	38.2517
2.84256	38.0842
2.841	37.8111
2.83945	37.8197
2.83789	37.871
2.83634	37.6457
2.83479	37.2509
2.83324	36.9062
2.83169	36.8229
2.83015	36.6189
2.82861	36.377
2.82706	36.1846
2.82552	36.0334
2.82398	35.8337
2.82245	35.5661
2.82091	35.21
2.81938	34.8746
2.81784	34.6049
2.81631	34.3113
2.81479	33.8563
2.81326	33.2065
2.81173	32.7066
2.81021	32.2915
2.80869	31.6867
2.80716	31.0473
2.80565	30.3237
2.80413	29.5274
2.80261	28.5514
2.8011	27.3464
2.79959	26.0223
2.79808	24.7275
2.79657	23.3718
2.79506	21.9141
2.79355	20.3671
2.79205	18.7766
2.79055	17.0646
2.78904	15.6669
2.78754	14.4292
2.78605	12.9569
2.78455	11.6558
2.78306	10.813
2.78156	9.83953
2.78007	8.50928
2.77858	7.6133
2.77709	6.96559
2.77561	6.59952
2.77412	6.33675
2.77264	5.81983
2.77116	5.35927
2.76968	5.05806
2.7682	4.64615
2.76672	4.32459
2.76524	4.01256
2.76377	3.77397
2.7623	3.50983
2.76083	3.20138
2.75936	3.09715
2.75789	3.23835
2.75642	3.17065
2.75496	2.99688
2.7535	2.99552
2.75203	3.06393
2.75057	3.12864
2.74912	3.18339
2.74766	3.12992
2.7462	3.25693
2.74475	3.34831
2.7433	3.32533
2.74185	3.35385
2.7404	3.42743
2.73895	3.49296
2.7375	3.64021
2.73606	3.71829
2.73462	3.78062
2.73318	3.90232
2.73174	4.07769
2.7303	4.28463
2.72886	4.48804
2.72742	4.82999
2.72599	5.59517
2.72456	6.43408
2.72313	7.36112
2.7217	8.72894
2.72027	10.5162
2.71884	12.4745
2.71742	14.8007
2.71599	17.4807
2.71457	20.6032
2.71315	23.9965
2.71173	27.5936
2.71032	30.9115
2.7089	33.6443
2.70748	35.8488
2.70607	37.8049
2.70466	39.4634
2.70325	40.8478
2.70184	42.2072
2.70043	43.3179
2.69903	44.1253
2.69762	45.016
2.69622	46.0538
2.69482	47.3098
2.69342	48.1469
2.69202	48.5104
2.69062	49.1215
2.68923	49.8802
2.68783	50.4681
2.68644	50.9736
2.68505	51.4302
2.68366	51.9676
2.68227	52.3239
2.68089	52.6197
2.6795	53.1356
2.67812	53.5647
2.67673	54.0171
2.67535	54.0783
2.67397	54.1488
2.6726	54.5662
2.67122	55.4872
2.66984	55.9515
2.66847	55.8165
2.6671	56.4249
2.66572	56.8854
2.66435	56.9242
2.66299	56.8086
2.66162	57.0859
2.66025	57.6124
2.65889	57.9519
2.65753	58.0037
2.65616	58.4498
2.65481	58.7243
2.65345	58.9387
2.65209	59.0862
2.65073	59.1782
2.64938	59.3339
2.64803	59.3656
2.64667	59.4517
2.64532	59.6935
2.64397	59.7013
2.64263	59.7712
2.64128	59.8134
2.63994	59.7695
2.63859	59.6659
2.63725	59.6601
2.63591	59.6846
2.63457	59.7444
2.63323	59.7641
2.6319	59.8692
2.63056	60.0604
2.62923	59.6446
2.62789	59.5291
2.62656	59.6934
2.62523	59.2691
2.6239	59.012
2.62258	59.0732
2.62125	59.433
2.61993	59.5737
2.6186	59.4945
2.61728	59.7353
2.61596	59.6754
2.61464	59.4221
2.61332	59.5241
2.61201	59.5829
2.61069	59.63
2.60938	59.7083
2.60807	59.8872
2.60675	60.1168
2.60544	60.4224
2.60414	60.5144
2.60283	60.4795
2.60152	60.6627
2.60022	60.8539
2.59891	61.0047
2.59761	61.4847
2.59631	62.2739
2.59501	63.142
2.59371	62.8825
2.59242	62.5241
2.59112	62.6505
2.58983	62.8336
2.58853	63.0524
2.58724	63.3082
2.58595	63.3388
2.58466	63.609
2.58338	63.7173
2.58209	63.4698
2.5808	63.5367
2.57952	63.5112
2.57824	63.5628
2.57695	63.6838
2.57567	63.6456
2.5744	63.8249
2.57312	64.0326
2.57184	63.8891
2.57057	64.0234
2.56929	64.163
2.56802	64.1247
2.56675	64.1255
2.56548	64.264
2.56421	64.574
2.56294	64.6667
2.56168	64.6554
2.56041	64.6686
2.55915	64.6705
2.55789	64.7156
2.55662	64.8549
2.55536	64.9707
2.5541	64.9811
2.55285	65.2124
2.55159	65.3396
2.55034	65.3331
2.54908	65.4978
2.54783	65.6502
2.54658	65.5488
2.54533	65.4746
2.54408	65.5081
2.54283	65.5688
2.54159	65.6259
2.54034	65.6655
2.5391	65.7763
2.53785	65.8518
2.53661	65.8253
2.53537	65.7325
2.53413	65.7559
2.53289	65.7396
2.53166	65.6377
2.53042	65.5344
2.52919	65.3912
2.52795	65.2618
2.52672	65.1431
2.52549	65.0125
2.52426	64.8626
2.52303	64.7546
2.52181	64.6735
2.52058	64.5433
2.51936	64.2385
2.51813	64.0079
2.51691	63.8452
2.51569	63.6099
2.51447	63.4538
2.51325	63.3188
2.51203	63.1631
2.51082	62.9535
2.5096	62.6414
2.50839	62.4232
2.50717	62.2988
2.50596	62.1778
2.50475	62.1084
2.50354	61.8733
2.50233	61.5687
2.50113	61.4816
2.49992	61.4013
2.49872	61.2401
2.49751	61.111
2.49631	60.8966
2.49511	60.8872
2.49391	60.89
2.49271	60.6585
2.49151	60.424
2.49031	60.3201
2.48912	60.2575
2.48792	60.1979
2.48673	60.1052
2.48554	60.0031
2.48435	60.0127
2.48316	59.9532
2.48197	59.8805
2.48078	59.8046
2.4796	59.6763
2.47841	59.6849
2.47723	59.6314
2.47604	59.5341
2.47486	59.3481
2.47368	59.1898
2.4725	59.0994
2.47132	58.9377
2.47014	58.8326
2.46897	58.7844
2.46779	58.7034
2.46662	58.4617
2.46545	58.2506
2.46427	58.2611
2.4631	58.1294
2.46193	57.9505
2.46077	57.9059
2.4596	57.8406
2.45843	57.6397
2.45727	57.3983
2.4561	57.1534
2.45494	57.0997
2.45378	57.0907
2.45262	57.0486
2.45146	56.8499
2.4503	56.6624
2.44914	56.6039
2.44799	56.4898
2.44683	56.2823
2.44568	56.2089
2.44452	56.0905
2.44337	56.0301
2.44222	56.0036
2.44107	55.9561
2.43992	56.0011
2.43877	56.1263
2.43763	56.2
2.43648	56.1637
2.43534	56.1348
2.43419	56.1845
2.43305	56.3769
2.43191	56.5252
2.43077	56.6123
2.42963	56.7595
2.42849	56.9873
2.42736	57.3156
2.42622	57.5091
2.42509	57.7532
2.42395	57.984
2.42282	58.0772
2.42169	58.3002
2.42056	58.6062
2.41943	58.885
2.4183	59.0833
2.41717	59.3287
2.41605	59.6727
2.41492	59.9514
2.4138	60.1281
2.41267	60.3445
2.41155	60.7075
2.41043	60.9993
2.40931	61.4332
2.40819	61.6578
2.40707	61.665
2.40595	61.9258
2.40484	62.2374
2.40372	62.4926
2.40261	62.6962
2.4015	62.8147
2.40039	62.9984
2.39928	63.1233
2.39817	63.1786
2.39706	63.2569
2.39595	63.3485
2.39484	63.3162
2.39374	63.3086
2.39263	63.4089
2.39153	63.4974
2.39043	63.4835
2.38932	63.4132
2.38822	63.357
2.38712	63.3037
2.38603	63.3644
2.38493	63.4202
2.38383	63.4273
2.38274	63.3824
2.38164	63.4944
2.38055	63.6162
2.37946	63.4716
2.37836	63.3892
2.37727	63.4324
2.37618	63.5262
2.3751	63.5571
2.37401	63.5198
2.37292	63.5489
2.37184	63.5663
2.37075	63.6182
2.36967	63.5759
2.36859	63.4542
2.3675	63.3517
2.36642	63.0697
2.36534	62.8914
2.36427	62.8683
2.36319	62.8326
2.36211	62.7738
2.36104	62.5098
2.35996	62.2162
2.35889	62.0636
2.35781	61.9734
2.35674	61.8024
2.35567	61.6189
2.3546	61.4499
2.35353	61.229
2.35247	61.0678
2.3514	61.0074
2.35033	60.8897
2.34927	60.751
2.3482	60.8268
2.34714	60.9109
2.34608	60.9362
2.34502	60.9892
2.34396	61.0118
2.3429	61.1453
2.34184	61.3548
2.34078	61.71
2.33973	61.9731
2.33867	62.1399
2.33762	62.3662
2.33656	62.6562
2.33551	62.9826
2.33446	63.3335
2.33341	63.6063
2.33236	63.9317
2.33131	64.2849
2.33026	64.7002
2.32922	65.0774
2.32817	65.4173
2.32712	65.8048
2.32608	66.183
2.32504	66.4457
2.324	66.7112
2.32295	66.9086
2.32191	67.4149
2.32087	67.8218
2.31984	68.1085
2.3188	68.376
2.31776	68.6245
2.31673	68.926
2.31569	69.3749
2.31466	69.8123
2.31362	70.0463
2.31259	70.2822
2.31156	70.6106
2.31053	70.7752
2.3095	71.0442
2.30847	71.3924
2.30745	71.5942
2.30642	71.7471
2.3054	71.9724
2.30437	72.2866
2.30335	72.6173
2.30232	72.9303
2.3013	73.2321
2.30028	73.4402
2.29926	73.5852
2.29824	73.8131
2.29722	74.0667
2.29621	74.3624
2.29519	74.5102
2.29417	74.5365
2.29316	74.6151
2.29215	74.8204
2.29113	75.0124
2.29012	75.1284
2.28911	75.2502
2.2881	75.3548
2.28709	75.4138
2.28608	75.5596
2.28507	75.7594
2.28407	75.8806
2.28306	75.8314
2.28206	75.7403
2.28105	75.7178
2.28005	75.8742
2.27905	76.0911
2.27805	76.1228
2.27705	76.0585
2.27605	76.0329
2.27505	76.07
2.27405	76.1461
2.27305	76.2073
2.27206	76.2685
2.27106	76.3354
2.27007	76.312
2.26907	76.2873
2.26808	76.2246
2.26709	76.115
2.2661	76.1707
2.26511	76.3152
2.26412	76.2321
2.26313	76.0945
2.26214	76.1093
2.26116	76.1922
2.26017	76.1359
2.25919	75.9338
2.2582	75.9085
2.25722	75.9673
2.25624	75.9843
2.25526	75.9256
2.25428	75.8509
2.2533	75.8993
2.25232	76.0089
2.25134	75.9439
2.25036	75.7681
2.24939	75.7287
2.24841	75.8817
2.24744	75.8385
2.24646	75.7083
2.24549	75.5937
2.24452	75.4365
2.24355	75.3111
2.24257	75.1804
2.24161	75.1664
2.24064	75.1831
2.23967	75.167
2.2387	75.0495
2.23774	74.9024
2.23677	74.8227
2.23581	74.7853
2.23484	74.6689
2.23388	74.3822
2.23292	74.1172
2.23196	73.8281
2.231	73.7032
2.23004	73.629
2.22908	73.4458
2.22812	73.0579
2.22716	72.6297
2.22621	72.2276
2.22525	71.7746
2.2243	71.4012
2.22334	71.1642
2.22239	70.7779
2.22144	70.2165
2.22049	69.5362
2.21953	68.8037
2.21859	68.1305
2.21764	67.4376
2.21669	66.7369
2.21574	65.9601
2.21479	65.0805
2.21385	64.2125
2.2129	63.3737
2.21196	62.5511
2.21102	61.6667
2.21007	60.7271
2.20913	60.0167
2.20819	59.2968
2.20725	58.4379
2.20631	57.6498
2.20537	57.0478
2.20444	56.1969
2.2035	55.5286
2.20256	55.0316
2.20163	54.4151
2.20069	53.8793
2.19976	53.5846
2.19883	53.4351
2.19789	53.0532
2.19696	52.7437
2.19603	52.7335
2.1951	53.0018
2.19417	53.2093
2.19325	53.351
2.19232	53.7395
2.19139	54.1879
2.19047	54.6971
2.18954	55.3286
2.18862	56.0803
2.18769	56.8639
2.18677	57.5673
2.18585	58.3306
2.18493	59.2598
2.18401	60.2297
2.18309	61.2231
2.18217	62.3189
2.18125	63.1042
2.18033	63.8554
2.17942	64.7068
2.1785	65.643
2.17759	66.5692
2.17667	67.3685
2.17576	68.0892
2.17485	68.7503
2.17393	69.5659
2.17302	70.3217
2.17211	70.8128
2.1712	71.4702
2.17029	72.1162
2.16939	72.5857
2.16848	73.0287
2.16757	73.5906
2.16667	73.9617
2.16576	74.1211
2.16486	74.461
2.16395	74.9814
2.16305	75.4497
2.16215	75.6528
2.16125	75.8693
2.16035	76.0621
2.15945	76.2888
2.15855	76.5305
2.15765	76.6689
2.15675	76.8948
2.15586	77.1901
2.15496	77.3044
2.15406	77.375
2.15317	77.5674
2.15228	77.6858
2.15138	77.8034
2.15049	78.0222
2.1496	78.0953
2.14871	78.1635
2.14782	78.2434
2.14693	78.4167
2.14604	78.7292
2.14515	78.8894
2.14427	78.901
2.14338	78.8249
2.14249	78.9146
2.14161	78.8767
2.14072	79.0009
2.13984	79.1338
2.13896	79.0726
2.13808	79.2024
2.13719	79.38
2.13631	79.3789
2.13543	79.3394
2.13455	79.3788
2.13368	79.4042
2.1328	79.2938
2.13192	79.2292
2.13105	79.2212
2.13017	79.3718
2.1293	79.3683
2.12842	79.3065
2.12755	79.2479
2.12668	79.2606
2.1258	79.2537
2.12493	79.1095
2.12406	79.0283
2.12319	79.0519
2.12232	79.0368
2.12145	79.0857
2.12059	79.0974
2.11972	79.0774
2.11885	79.0458
2.11799	79.0636
2.11712	79.2032
2.11626	79.1319
2.1154	79.0846
2.11453	79.4278
2.11367	79.6222
2.11281	79.623
2.11195	79.6801
2.11109	79.7726
2.11023	79.9562
2.10937	80.0853
2.10851	79.9364
2.10766	79.865
2.1068	79.9596
2.10594	79.9665
2.10509	80.1453
2.10423	80.4259
2.10338	80.5828
2.10253	80.6751
2.10168	80.6282
2.10082	80.6286
2.09997	80.695
2.09912	80.9173
2.09827	81.27
2.09742	81.3835
2.09658	81.2683
2.09573	81.3287
2.09488	81.607
2.09404	81.6137
2.09319	81.628
2.09235	81.6988
2.0915	81.5776
2.09066	81.8053
2.08982	82.0341
2.08897	81.9659
2.08813	81.9956
2.08729	82.1879
2.08645	82.2123
2.08561	82.2752
2.08477	82.3672
2.08394	82.4
2.0831	82.3255
2.08226	82.4096
2.08143	82.4315
2.08059	82.29
2.07976	82.6198
2.07892	82.6677
2.07809	82.367
2.07726	82.5622
2.07643	82.8398
2.07559	83.1441
2.07476	83.244
2.07393	83.479
2.0731	83.4751
2.07228	83.4229
2.07145	83.5901
2.07062	83.3829
2.06979	83.1503
2.06897	83.3955
2.06814	83.3445
2.06732	83.1014
2.06649	83.0203
2.06567	83.1984
2.06485	83.2215
2.06403	83.0182
2.0632	83.0019
2.06238	83.2006
2.06156	83.3438
2.06074	83.3882
2.05993	83.2859
2.05911	83.222
2.05829	83.3691
2.05747	83.4372
2.05666	83.5727
2.05584	83.441
2.05503	83.3937
2.05421	83.4203
2.0534	83.3841
2.05259	83.4308
2.05177	83.4065
2.05096	83.473
2.05015	83.4638
2.04934	83.3417
2.04853	83.3077
2.04772	83.4443
2.04691	83.4893
2.04611	83.4328
2.0453	83.4067
2.04449	83.5382
2.04369	83.5341
2.04288	83.5392
2.04208	83.5033
2.04127	83.5322
2.04047	83.5638
2.03967	83.4435
2.03886	83.5338
2.03806	83.5594
2.03726	83.4792
2.03646	83.6113
2.03566	83.6363
2.03486	83.4782
2.03407	83.5966
2.03327	83.7466
2.03247	83.5421
2.03167	83.4342
2.03088	83.5674
2.03008	83.7384
2.02929	83.8797
2.0285	83.8706
2.0277	83.8389
2.02691	83.6508
2.02612	83.521
2.02533	83.5366
2.02453	83.5773
2.02374	83.6114
2.02295	83.6301
2.02217	83.7762
2.02138	83.7416
2.02059	83.627
2.0198	83.6756
2.01902	83.852
2.01823	83.9272
2.01744	83.834
2.01666	83.849
2.01588	83.9145
2.01509	83.7698
2.01431	83.7425
2.01353	83.7757
2.01275	83.7803
2.01196	83.7609
2.01118	83.6998
2.0104	83.6029
2.00963	83.5568
2.00885	83.551
2.00807	83.5259
2.00729	83.7066
2.00651	83.9866
2.00574	83.9018
2.00496	83.8954
2.00419	83.8508
2.00341	83.6919
2.00264	83.8309
2.00187	84.0251
2.00109	83.9027
2.00032	83.8392
