Name: Scheelite CaWO_4
Type: Mineral
Class: Tungstates
Subclass: 
Particle Size: 45-125um
Sample No.: T-1A
Owner: JPL
Wavelength range: IR
Origin: USA, California, Kern County, Atolia
Collected by Burminco
Description: 





Measurement: Hemispherical reflectance
First Column: X
Second Column: Y
X Units:  Wavelength (micrometers)
Y Units:  Reflectance (percent)
First X Value: 15.3853
Last X Value: 2.00032
Number of X Values: 2256
Additional information: t01aa.txt
 
15.3853	7.01385
15.3397	7.08308
15.2945	7.35878
15.2495	7.23418
15.2048	7.18718
15.1603	7.3503
15.1161	7.34374
15.0722	7.30843
15.0285	7.35935
14.9851	7.35553
14.9419	7.40469
14.8989	7.43399
14.8563	7.28278
14.8138	7.11604
14.7716	7.09089
14.7296	7.13492
14.6879	7.31544
14.6464	7.33726
14.6052	7.46351
14.5641	7.48725
14.5233	7.38911
14.4828	7.57405
14.4424	7.72736
14.4023	7.63964
14.3624	7.50959
14.3227	7.60238
14.2833	7.62327
14.244	7.85457
14.205	7.89493
14.1662	7.65842
14.1276	7.78175
14.0892	8.02867
14.051	7.99231
14.0131	7.98841
13.9753	7.98148
13.9377	8.28764
13.9004	8.78305
13.8632	8.96241
13.8262	8.82929
13.7895	8.78225
13.7529	8.97932
13.7165	9.18517
13.6803	9.16463
13.6443	9.40216
13.6085	9.49312
13.5729	9.48153
13.5374	9.74934
13.5022	10.0392
13.4671	10.131
13.4322	10.2959
13.3975	10.5916
13.363	11.0576
13.3286	11.4259
13.2944	11.6078
13.2604	11.8006
13.2266	12.0902
13.193	12.4555
13.1595	12.754
13.1262	13.1187
13.093	13.4025
13.06	13.8271
13.0272	14.4743
12.9946	15.1556
12.9621	15.874
12.9298	16.7123
12.8976	17.6438
12.8656	18.8457
12.8337	20.2514
12.8021	21.6272
12.7705	23.3487
12.7391	25.5281
12.7079	27.8135
12.6769	29.9378
12.6459	32.2669
12.6152	34.4238
12.5845	35.8298
12.5541	36.7159
12.5238	37.2368
12.4936	37.4667
12.4635	37.4851
12.4337	37.2361
12.4039	36.8691
12.3743	36.529
12.3448	36.2755
12.3155	36.1755
12.2863	35.9841
12.2573	35.852
12.2284	35.6858
12.1996	35.4969
12.171	35.3161
12.1425	35.162
12.1141	35.0404
12.0859	34.8241
12.0578	34.6592
12.0298	34.5784
12.0019	34.4787
11.9742	34.3557
11.9466	34.2142
11.9192	34.1941
11.8918	34.0284
11.8646	33.8373
11.8375	33.7907
11.8106	33.7502
11.7837	33.7336
11.757	33.7949
11.7304	33.7638
11.7039	33.6735
11.6776	33.6437
11.6513	33.5932
11.6252	33.4771
11.5992	33.3889
11.5733	33.3339
11.5475	33.346
11.5219	33.5368
11.4963	33.8472
11.4709	34.101
11.4455	34.5434
11.4203	35.1172
11.3952	35.8216
11.3702	36.6595
11.3454	37.4575
11.3206	38.2889
11.2959	38.8742
11.2714	38.8988
11.2469	38.2437
11.2226	36.4763
11.1983	33.5093
11.1742	30.3771
11.1502	28.0271
11.1263	26.1358
11.1024	23.7711
11.0787	20.6438
11.0551	17.4757
11.0316	14.6443
11.0081	12.3155
10.9848	10.4854
10.9616	8.9958
10.9385	7.70818
10.9154	6.51065
10.8925	5.64146
10.8697	4.99323
10.8469	4.55699
10.8243	4.26921
10.8017	4.04221
10.7793	3.82867
10.7569	3.70785
10.7346	3.60481
10.7125	3.41486
10.6904	3.19368
10.6684	3.21642
10.6465	3.29695
10.6247	3.21005
10.6029	3.30268
10.5813	3.40086
10.5597	3.24467
10.5383	3.0484
10.5169	3.10079
10.4956	3.21077
10.4744	3.16654
10.4533	3.1333
10.4323	3.18036
10.4113	3.22403
10.3904	3.16944
10.3697	3.15627
10.349	3.20518
10.3284	3.14941
10.3078	3.21036
10.2874	3.43515
10.267	3.43906
10.2467	3.36975
10.2265	3.452
10.2064	3.63919
10.1863	3.75283
10.1663	3.76401
10.1464	3.92242
10.1266	4.11645
10.1069	4.15969
10.0872	4.25743
10.0676	4.28752
10.0481	4.42858
10.0287	4.57499
10.0093	4.68744
9.99005	4.85926
9.97084	4.90685
9.95169	5.06592
9.93263	5.25656
9.91364	5.38878
9.89472	5.54633
9.87587	5.70927
9.8571	5.97066
9.83839	6.10482
9.81976	6.13587
9.80119	6.23139
9.78271	6.3646
9.76428	6.47135
9.74592	6.73021
9.72764	7.04744
9.70943	7.28761
9.69128	7.57557
9.6732	7.796
9.65518	7.95795
9.63724	8.21138
9.61935	8.48636
9.60155	8.81852
9.5838	9.19486
9.56611	9.62336
9.5485	9.99013
9.53094	10.1931
9.51345	10.4543
9.49604	10.6844
9.47867	10.8895
9.46137	11.192
9.44414	11.4569
9.42697	11.7442
9.40986	12.1849
9.39281	12.6726
9.37583	13.1073
9.35891	13.5393
9.34204	14.0109
9.32524	14.5577
9.3085	14.9671
9.29182	15.2075
9.27519	15.3817
9.25863	15.5294
9.24213	15.6691
9.22568	15.9099
9.2093	16.1531
9.19297	16.1945
9.17669	16.1746
9.16048	16.0602
9.14433	15.9555
9.12823	15.9593
9.11218	15.8872
9.0962	15.775
9.08027	15.7552
9.06439	15.7795
9.04858	15.6816
9.03281	15.5568
9.0171	15.537
9.00145	15.53
8.98585	15.544
8.9703	15.681
8.9548	15.9133
8.93937	16.1478
8.92398	16.2761
8.90865	16.3007
8.89337	16.4642
8.87814	16.5344
8.86296	16.4934
8.84784	16.6244
8.83277	16.7009
8.81774	16.6748
8.80277	16.8033
8.78786	16.8951
8.77298	16.9537
8.75816	17.069
8.7434	17.3459
8.72868	17.5842
8.714	17.7178
8.69938	17.7356
8.68481	17.7506
8.67029	17.8348
8.65581	17.7574
8.64139	17.562
8.62701	17.6925
8.61268	18.1494
8.5984	18.7086
8.58416	19.3563
8.56997	20.0089
8.55583	20.4384
8.54174	20.7184
8.52769	20.9976
8.51368	21.1921
8.49973	21.4013
8.48582	21.6364
8.47195	21.8772
8.45813	21.9021
8.44436	21.8398
8.43062	21.746
8.41693	21.6827
8.4033	21.8556
8.3897	22.0803
8.37614	22.1831
8.36264	22.1602
8.34917	22.1299
8.33574	22.1658
8.32236	22.2287
8.30903	22.3656
8.29573	22.5872
8.28248	22.6657
8.26927	22.7659
8.2561	22.9214
8.24298	23.0869
8.2299	23.2895
8.21685	23.4369
8.20385	23.5358
8.19089	23.6778
8.17797	23.8352
8.16509	23.7737
8.15225	23.714
8.13946	23.7624
8.1267	23.7313
8.11398	23.6862
8.10131	23.6816
8.08867	23.6803
8.07606	23.7384
8.0635	23.8701
8.05099	24.0847
8.0385	24.3413
8.02606	24.4599
8.01366	24.6356
8.00129	24.8648
7.98896	24.9231
7.97667	24.9275
7.96442	25.0296
7.9522	25.0551
7.94002	24.942
7.92788	24.8588
7.91578	24.8536
7.90371	24.7799
7.89168	24.6717
7.87969	24.6287
7.86773	24.6287
7.85581	24.6877
7.84392	24.7965
7.83207	24.9865
7.82026	25.1765
7.80849	25.3986
7.79674	25.7026
7.78503	25.9268
7.77337	26.027
7.76173	26.0222
7.75012	26.0036
7.73856	25.9719
7.72703	26.0019
7.71553	26.1175
7.70406	26.3099
7.69263	26.5688
7.68123	26.888
7.66987	27.2578
7.65855	27.5404
7.64725	27.7989
7.63598	27.9881
7.62475	28.1597
7.61356	28.2448
7.60239	28.2516
7.59126	28.3626
7.58017	28.3783
7.5691	28.3824
7.55806	28.6456
7.54707	28.9509
7.5361	29.2258
7.52516	29.4791
7.51425	29.6551
7.50338	29.8912
7.49253	30.0494
7.48172	30.1787
7.47094	30.3996
7.46019	30.688
7.44947	30.8355
7.43879	30.9711
7.42813	31.1276
7.4175	31.3848
7.4069	31.6202
7.39634	31.8153
7.3858	31.9572
7.37529	32.0558
7.36482	32.1184
7.35437	32.2041
7.34396	32.4026
7.33357	32.4896
7.32321	32.3279
7.31288	32.2863
7.30258	32.2858
7.29231	32.3286
7.28207	32.5342
7.27185	32.6465
7.26167	32.6798
7.25152	32.8263
7.24139	32.903
7.23129	33.0323
7.22122	33.1373
7.21117	33.3022
7.20116	33.2463
7.19117	33.1067
7.18121	33.1732
7.17128	33.304
7.16137	33.2215
7.1515	33.1795
7.14164	33.0568
7.13182	32.9454
7.12203	33.1239
7.11225	33.2635
7.10251	33.1581
7.0928	33.0477
7.08311	32.9411
7.07344	32.8489
7.06381	32.7892
7.0542	32.9684
7.04461	33.1972
7.03506	32.9024
7.02552	32.6485
7.01601	32.5304
7.00653	32.5333
6.99708	32.6661
6.98765	32.6499
6.97824	32.5371
6.96886	32.7666
6.95951	33.1315
6.95018	32.8097
6.94087	32.6406
6.9316	32.6254
6.92234	32.6734
6.91311	32.7101
6.90391	32.7898
6.89473	32.6826
6.88557	32.644
6.87644	32.7375
6.86733	33.2614
6.85824	33.1073
6.84918	32.4458
6.84015	32.2293
6.83114	32.3877
6.82215	32.3229
6.81319	32.0346
6.80424	32.0463
6.79532	32.4468
6.78643	32.5209
6.77756	32.2043
6.76871	31.9322
6.75989	31.7315
6.75109	31.7536
6.74231	31.6738
6.73355	31.5621
6.72482	31.6133
6.71611	31.7034
6.70742	31.6226
6.69875	31.3308
6.69011	31.4185
6.68149	31.5958
6.67289	31.4157
6.66431	31.1466
6.65576	30.9491
6.64722	31.3324
6.63871	32.1412
6.63022	31.7988
6.62175	31.0433
6.61331	30.6538
6.60488	30.3367
6.59648	30.2501
6.5881	30.0372
6.57974	29.968
6.5714	30.0142
6.56308	29.3423
6.55478	28.9602
6.54651	28.6956
6.53825	28.5033
6.53001	28.4813
6.5218	28.659
6.51361	28.3403
6.50544	28.3405
6.49729	28.8998
6.48915	28.7344
6.48104	27.8819
6.47295	27.1198
6.46488	26.2763
6.45683	25.5817
6.4488	24.7475
6.44079	23.7328
6.4328	22.6546
6.42482	21.6911
6.41687	21.1165
6.40894	19.8811
6.40103	18.4218
6.39314	17.6255
6.38526	16.8184
6.37741	16.0646
6.36957	15.303
6.36176	14.276
6.35396	13.5254
6.34618	13.0575
6.33843	12.3722
6.33069	11.6906
6.32297	11.1211
6.31527	10.705
6.30758	10.4028
6.29992	10.1372
6.29227	9.94582
6.28465	9.87331
6.27704	9.81398
6.26945	9.78624
6.26188	9.66904
6.25432	9.54934
6.24679	9.4581
6.23927	9.45874
6.23177	9.50227
6.22429	9.46307
6.21683	9.43257
6.20938	9.55828
6.20195	9.72901
6.19454	9.83829
6.18715	9.91982
6.17978	9.84122
6.17242	9.72558
6.16508	9.93877
6.15776	10.1662
6.15045	10.2144
6.14317	10.3829
6.1359	10.6407
6.12864	10.9286
6.12141	11.3078
6.11419	11.7222
6.10699	11.7898
6.0998	11.7665
6.09263	11.9308
6.08549	12.0441
6.07835	12.2133
6.07123	12.2573
6.06413	11.976
6.05705	11.9375
6.04998	12.1385
6.04293	11.6237
6.0359	11.0676
6.02888	10.8455
6.02187	10.6898
6.01489	10.5689
6.00792	10.4173
6.00096	10.2323
5.99403	10.1527
5.98711	10.0167
5.9802	9.88565
5.97331	9.84194
5.96644	9.67658
5.95958	9.43092
5.95274	9.41877
5.94591	9.53712
5.9391	9.78964
5.9323	9.64429
5.92552	9.28523
5.91876	8.87345
5.91201	8.32501
5.90528	7.84328
5.89856	7.54897
5.89186	7.26924
5.88517	7.26468
5.8785	7.35154
5.87184	7.36369
5.8652	7.55919
5.85857	7.63554
5.85196	7.61507
5.84536	7.63904
5.83878	7.77135
5.83221	8.0301
5.82566	8.3719
5.81912	8.70342
5.81259	8.82075
5.80608	9.02933
5.79959	9.5218
5.79311	10.1152
5.78665	10.9083
5.78019	11.9307
5.77376	13.1996
5.76734	14.6556
5.76093	15.5685
5.75453	16.0404
5.74815	16.4463
5.74179	16.4322
5.73543	16.2594
5.7291	16.0784
5.72277	16.1142
5.71646	16.3893
5.71017	16.5912
5.70389	16.6091
5.69762	16.8911
5.69136	17.461
5.68513	17.9406
5.6789	18.4391
5.67268	18.9585
5.66648	19.3475
5.6603	19.7735
5.65413	20.2101
5.64797	20.6043
5.64182	20.8711
5.63569	20.6216
5.62957	20.3721
5.62347	20.1907
5.61737	19.8577
5.61129	19.2485
5.60522	18.4314
5.59917	17.3071
5.59313	16.14
5.5871	15.1537
5.58109	14.2728
5.57509	13.3914
5.5691	12.6288
5.56312	12.1841
5.55716	12.0403
5.55121	12.1417
5.54528	12.7759
5.53935	14.1631
5.53344	16.1463
5.52754	18.5667
5.52166	21.3997
5.51578	24.2466
5.50992	26.8229
5.50407	29.1388
5.49823	31.1002
5.49241	32.6677
5.4866	33.9517
5.4808	35.1511
5.47501	35.9311
5.46923	36.6615
5.46347	37.3068
5.45772	37.5894
5.45198	37.8693
5.44625	38.2281
5.44054	38.457
5.43484	38.6414
5.42914	38.8387
5.42347	39.1171
5.4178	38.8748
5.41214	38.4445
5.4065	38.1458
5.40087	37.8219
5.39525	37.5275
5.38964	37.1949
5.38404	36.8514
5.37846	36.6436
5.37288	36.4837
5.36732	36.3626
5.36177	36.3261
5.35623	36.4871
5.35071	36.7163
5.34519	36.6673
5.33968	36.5215
5.33419	36.5413
5.32871	36.7088
5.32324	36.8922
5.31778	36.9794
5.31233	37.1202
5.30689	37.317
5.30147	37.4308
5.29605	37.6509
5.29065	37.9269
5.28525	38.0766
5.27987	38.3259
5.2745	38.6065
5.26914	38.9456
5.26379	39.3237
5.25845	39.7282
5.25312	40.0925
5.24781	40.466
5.2425	40.9919
5.23721	41.5752
5.23192	42.0616
5.22665	42.5476
5.22138	43.0506
5.21613	43.5858
5.21089	43.8872
5.20566	44.0171
5.20044	44.1907
5.19522	44.282
5.19002	44.2878
5.18483	44.2689
5.17965	44.2832
5.17448	44.3412
5.16933	44.311
5.16418	44.2756
5.15904	44.2284
5.15391	44.1979
5.14879	44.2361
5.14368	44.2284
5.13859	44.1835
5.1335	44.1409
5.12842	44.1009
5.12335	44.1623
5.1183	44.1757
5.11325	44.2147
5.10821	44.12
5.10318	43.984
5.09817	43.8758
5.09316	43.8333
5.08816	43.7562
5.08317	43.6401
5.07819	43.4377
5.07322	43.2586
5.06826	43.1828
5.06331	43.1579
5.05837	43.1096
5.05344	43.1934
5.04852	43.2397
5.04361	43.2834
5.03871	43.3081
5.03382	43.2784
5.02894	43.2631
5.02406	43.3023
5.0192	43.3914
5.01435	43.4238
5.0095	43.4273
5.00467	43.4509
4.99984	43.4903
4.99502	43.6742
4.99021	43.9551
4.98542	44.1992
4.98063	44.4185
4.97585	44.7315
4.97108	45.1129
4.96632	45.544
4.96156	45.9553
4.95682	46.3415
4.95209	46.602
4.94736	46.8813
4.94264	47.11
4.93794	47.3105
4.93324	47.5311
4.92855	47.8082
4.92387	48.2052
4.9192	48.6896
4.91453	49.1763
4.90988	49.7413
4.90524	50.4488
4.9006	51.2292
4.89597	51.9788
4.89135	52.7165
4.88674	53.3105
4.88214	53.8714
4.87755	54.3908
4.87296	54.9238
4.86839	55.3873
4.86382	55.7395
4.85926	56.0717
4.85471	56.4383
4.85017	56.7667
4.84564	57.032
4.84111	57.2738
4.8366	57.4509
4.83209	57.6289
4.82759	57.8459
4.8231	58.0124
4.81862	58.1352
4.81415	58.2827
4.80968	58.4567
4.80522	58.6435
4.80077	58.7833
4.79633	58.9595
4.7919	59.1484
4.78747	59.2415
4.78306	59.336
4.77865	59.38
4.77425	59.5014
4.76986	59.6669
4.76547	59.7814
4.7611	59.8995
4.75673	60.0075
4.75237	60.0604
4.74802	60.1063
4.74367	60.1593
4.73934	60.2622
4.73501	60.2846
4.73069	60.3064
4.72638	60.3607
4.72207	60.4277
4.71777	60.4291
4.71348	60.4208
4.7092	60.2937
4.70493	60.1329
4.70066	60.0031
4.69641	59.899
4.69216	59.7594
4.68791	59.6134
4.68368	59.5668
4.67945	59.652
4.67523	59.7179
4.67102	59.8542
4.66682	60.1296
4.66262	60.3414
4.65843	60.5458
4.65425	60.8084
4.65007	61.0713
4.64591	61.3252
4.64175	61.5133
4.6376	61.7165
4.63345	61.9547
4.62932	62.1804
4.62519	62.3396
4.62106	62.4506
4.61695	62.5653
4.61284	62.759
4.60874	62.9318
4.60465	63.1169
4.60056	63.221
4.59648	63.2947
4.59241	63.3609
4.58835	63.426
4.58429	63.5435
4.58024	63.6587
4.5762	63.6949
4.57216	63.7165
4.56814	63.7636
4.56411	63.7881
4.5601	63.7879
4.55609	63.87
4.55209	63.8578
4.5481	63.7637
4.54411	63.6934
4.54013	63.695
4.53616	63.6606
4.5322	63.5585
4.52824	63.383
4.52429	63.2385
4.52034	63.0306
4.51641	62.8799
4.51247	62.7815
4.50855	62.6017
4.50463	62.3862
4.50072	62.2158
4.49682	62.0842
4.49292	62.0156
4.48903	61.94
4.48515	61.8945
4.48127	61.948
4.4774	61.9922
4.47354	61.9875
4.46968	61.9635
4.46584	61.9193
4.46199	61.9251
4.45815	62.0678
4.45432	62.3115
4.4505	62.4789
4.44668	62.6073
4.44287	62.7851
4.43907	62.917
4.43527	62.9936
4.43148	63.067
4.4277	63.1584
4.42392	63.293
4.42015	63.4561
4.41638	63.6712
4.41262	63.8304
4.40887	63.9403
4.40513	64.0061
4.40139	64.0786
4.39765	64.1803
4.39393	64.3004
4.39021	64.37
4.38649	64.5165
4.38278	64.7497
4.37908	64.9409
4.37539	65.1058
4.3717	65.2297
4.36801	65.2916
4.36434	65.4137
4.36067	65.5276
4.357	65.5682
4.35335	65.5599
4.34969	65.565
4.34605	65.6289
4.34241	65.6765
4.33877	65.5779
4.33514	65.4224
4.33152	65.3145
4.32791	65.2481
4.3243	65.0908
4.32069	64.8345
4.3171	64.5833
4.31351	64.3353
4.30992	63.9701
4.30634	63.575
4.30277	63.1949
4.2992	62.6628
4.29564	62.1142
4.29208	61.5803
4.28853	60.9172
4.28499	60.0436
4.28145	58.9403
4.27792	57.336
4.27439	55.1402
4.27087	52.9814
4.26735	52.0751
4.26384	53.119
4.26034	55.2053
4.25684	57.2805
4.25335	58.7998
4.24986	59.8258
4.24638	60.5246
4.24291	60.965
4.23944	61.2168
4.23598	61.5453
4.23252	61.8835
4.22906	62.1769
4.22562	62.4784
4.22218	62.7773
4.21874	63.1668
4.21531	63.5978
4.21189	63.8513
4.20847	64.0534
4.20506	64.308
4.20165	64.5357
4.19825	64.665
4.19485	64.8349
4.19146	64.9781
4.18807	65.0337
4.18469	65.116
4.18132	65.2611
4.17795	65.3818
4.17458	65.4532
4.17123	65.4704
4.16787	65.5196
4.16453	65.6277
4.16118	65.7281
4.15785	65.7737
4.15451	65.819
4.15119	65.8667
4.14787	65.9122
4.14455	65.9099
4.14124	65.9534
4.13794	65.9924
4.13464	66.0638
4.13134	66.0379
4.12805	66.0258
4.12477	66.0746
4.12149	66.0785
4.11822	66.016
4.11495	66.0001
4.11168	65.9654
4.10843	65.9299
4.10517	66.0044
4.10192	66.0189
4.09868	65.9031
4.09545	65.8605
4.09221	65.7873
4.08899	65.7108
4.08576	65.6256
4.08255	65.4992
4.07933	65.3532
4.07613	65.2433
4.07292	65.1426
4.06973	65.0512
4.06654	64.9045
4.06335	64.7229
4.06017	64.488
4.05699	64.3053
4.05382	64.1297
4.05065	63.919
4.04749	63.641
4.04433	63.3742
4.04118	63.0571
4.03803	62.6781
4.03489	62.363
4.03175	62.0958
4.02862	61.8136
4.02549	61.5886
4.02237	61.4253
4.01925	61.2777
4.01614	61.1804
4.01303	61.0432
4.00993	60.8116
4.00683	60.5751
4.00373	60.478
4.00064	60.4104
3.99756	60.2816
3.99448	60.1661
3.9914	60.1272
3.98833	60.1615
3.98527	60.2509
3.98221	60.3706
3.97915	60.4563
3.9761	60.4488
3.97305	60.5081
3.97001	60.6625
3.96697	60.8213
3.96394	61.0185
3.96091	61.2141
3.95789	61.4125
3.95487	61.6031
3.95186	61.8146
3.94885	62.0432
3.94584	62.2775
3.94284	62.5951
3.93984	62.8447
3.93685	63.0017
3.93386	63.2046
3.93088	63.3513
3.9279	63.4087
3.92493	63.4983
3.92196	63.6352
3.919	63.7137
3.91604	63.7983
3.91308	63.8374
3.91013	63.8745
3.90718	63.9192
3.90424	63.9758
3.9013	63.9925
3.89837	64.1239
3.89544	64.1958
3.89252	64.124
3.8896	64.1553
3.88668	64.1551
3.88377	64.0558
3.88086	64.044
3.87796	64.0748
3.87506	64.0921
3.87217	64.0694
3.86928	64.0219
3.86639	63.9952
3.86351	63.9968
3.86064	64.0375
3.85776	64.0301
3.8549	64.0002
3.85203	63.9697
3.84917	63.9532
3.84631	63.9064
3.84346	63.8338
3.84062	63.8098
3.83777	63.7929
3.83494	63.8568
3.8321	63.8667
3.82927	63.91
3.82644	64.0113
3.82362	64.1435
3.82081	64.2649
3.81799	64.3843
3.81518	64.613
3.81238	64.7834
3.80958	64.9406
3.80678	65.1891
3.80399	65.4426
3.8012	65.6757
3.79841	65.9317
3.79563	66.1249
3.79286	66.2618
3.79008	66.4225
3.78731	66.5477
3.78455	66.6636
3.78179	66.7739
3.77903	66.8233
3.77628	66.8446
3.77353	66.9222
3.77079	66.9448
3.76805	66.9368
3.76531	66.9126
3.76258	66.8813
3.75985	66.8612
3.75713	66.8206
3.7544	66.7857
3.75169	66.7674
3.74898	66.8068
3.74627	66.7553
3.74356	66.6367
3.74086	66.6249
3.73816	66.6094
3.73547	66.5766
3.73278	66.5781
3.7301	66.619
3.72741	66.5733
3.72474	66.4572
3.72206	66.4897
3.71939	66.4892
3.71673	66.4732
3.71406	66.4539
3.71141	66.3733
3.70875	66.3217
3.7061	66.306
3.70345	66.2812
3.70081	66.2448
3.69817	66.2197
3.69553	66.1581
3.6929	66.0923
3.69027	66.0291
3.68765	65.9765
3.68503	65.9053
3.68241	65.8174
3.6798	65.7431
3.67719	65.7328
3.67458	65.7198
3.67198	65.6411
3.66938	65.5689
3.66678	65.5244
3.66419	65.4482
3.66161	65.3809
3.65902	65.3033
3.65644	65.2306
3.65387	65.1692
3.65129	65.1422
3.64872	65.1072
3.64616	65.0239
3.64359	64.8781
3.64103	64.8384
3.63848	64.7671
3.63593	64.7049
3.63338	64.6222
3.63084	64.5459
3.6283	64.5088
3.62576	64.3982
3.62322	64.1826
3.62069	64.1302
3.61817	64.1261
3.61564	64.0474
3.61312	63.8871
3.61061	63.7732
3.6081	63.6889
3.60559	63.5932
3.60308	63.4741
3.60058	63.3889
3.59808	63.3692
3.59558	63.2661
3.59309	63.0496
3.59061	62.9282
3.58812	62.8497
3.58564	62.6329
3.58316	62.4225
3.58069	62.346
3.57822	62.2874
3.57575	62.1048
3.57328	61.9352
3.57082	61.8046
3.56836	61.6624
3.56591	61.535
3.56346	61.4004
3.56101	61.2704
3.55857	61.1448
3.55613	61.0565
3.55369	60.9027
3.55126	60.7132
3.54883	60.5798
3.5464	60.4079
3.54397	60.2422
3.54155	60.1334
3.53914	59.9274
3.53672	59.7425
3.53431	59.5079
3.5319	59.206
3.5295	58.9176
3.5271	58.596
3.5247	58.2908
3.52231	57.9686
3.51991	57.5449
3.51753	57.1865
3.51514	56.8777
3.51276	56.4752
3.51038	56.0821
3.50801	55.7581
3.50563	55.4825
3.50327	55.1684
3.5009	54.974
3.49854	54.971
3.49618	54.9572
3.49382	54.9428
3.49147	54.9386
3.48912	54.8988
3.48677	54.8274
3.48443	54.7371
3.48209	54.6365
3.47975	54.5378
3.47742	54.3892
3.47509	54.3334
3.47276	54.4102
3.47044	54.5244
3.46812	54.6523
3.4658	54.686
3.46348	54.7111
3.46117	54.6312
3.45886	54.4944
3.45656	54.4094
3.45425	54.3377
3.45195	54.1895
3.44966	54.0488
3.44736	53.9446
3.44507	53.6975
3.44279	53.4917
3.4405	53.3592
3.43822	53.1347
3.43594	52.9321
3.43367	52.7723
3.43139	52.5212
3.42912	52.252
3.42686	51.9671
3.42459	51.6963
3.42233	51.4351
3.42007	51.2078
3.41782	51.0558
3.41557	50.9367
3.41332	50.7916
3.41108	50.7513
3.40883	50.8235
3.40659	50.8417
3.40435	50.9398
3.40212	51.0223
3.39989	51.0795
3.39766	51.107
3.39544	51.1111
3.39322	51.0629
3.391	51.0309
3.38878	50.915
3.38657	50.8057
3.38436	50.6509
3.38215	50.3845
3.37994	50.2718
3.37774	50.228
3.37554	50.1898
3.37335	50.2668
3.37115	50.2487
3.36896	50.1208
3.36678	50.1092
3.36459	50.201
3.36241	50.1961
3.36023	50.1735
3.35805	50.1942
3.35588	50.1254
3.35371	50.0069
3.35154	49.9292
3.34938	49.8751
3.34721	49.7942
3.34505	49.7886
3.3429	49.8468
3.34074	49.8604
3.33859	49.8132
3.33644	49.8307
3.3343	49.8973
3.33215	49.8742
3.33001	49.7909
3.32788	49.7727
3.32574	49.768
3.32361	49.6862
3.32148	49.5269
3.31936	49.4238
3.31723	49.3095
3.31511	49.169
3.31299	49.0728
3.31088	49.0147
3.30876	48.8323
3.30665	48.6472
3.30455	48.4901
3.30244	48.4038
3.30034	48.3144
3.29824	48.2643
3.29614	48.0913
3.29405	47.884
3.29196	47.7594
3.28987	47.658
3.28778	47.4432
3.2857	47.2817
3.28362	47.1117
3.28154	46.9673
3.27946	46.8051
3.27739	46.627
3.27532	46.4987
3.27325	46.4668
3.27119	46.306
3.26913	46.1579
3.26707	45.9598
3.26501	45.7313
3.26295	45.6911
3.2609	45.5482
3.25885	45.3018
3.2568	45.126
3.25476	44.9884
3.25272	44.879
3.25068	44.7555
3.24864	44.5278
3.24661	44.3662
3.24458	44.3107
3.24255	44.1285
3.24052	43.9608
3.2385	43.8766
3.23648	43.7542
3.23446	43.5797
3.23244	43.4176
3.23043	43.1451
3.22841	42.8905
3.2264	42.8413
3.2244	42.8044
3.22239	42.5916
3.22039	42.3708
3.21839	42.2141
3.2164	42.041
3.2144	41.9023
3.21241	41.7284
3.21042	41.4688
3.20844	41.4028
3.20645	41.3012
3.20447	41.0592
3.20249	40.8407
3.20051	40.6803
3.19854	40.5718
3.19657	40.4118
3.1946	40.285
3.19263	40.2013
3.19067	40.0063
3.1887	39.8414
3.18674	39.6457
3.18479	39.4674
3.18283	39.4243
3.18088	39.2849
3.17893	39.0287
3.17698	38.8724
3.17504	38.8161
3.17309	38.6709
3.17115	38.4745
3.16921	38.3528
3.16728	38.1559
3.16534	37.9343
3.16341	37.8115
3.16148	37.6611
3.15956	37.5797
3.15763	37.5215
3.15571	37.3195
3.15379	37.1903
3.15187	37.1098
3.14996	36.9719
3.14805	36.8236
3.14614	36.7543
3.14423	36.686
3.14232	36.4569
3.14042	36.2541
3.13852	36.1665
3.13662	36.0789
3.13472	35.9608
3.13283	35.8313
3.13094	35.6611
3.12905	35.5133
3.12716	35.5539
3.12528	35.5272
3.12339	35.3146
3.12151	35.1743
3.11964	35.0664
3.11776	34.9177
3.11589	34.7965
3.11401	34.6599
3.11214	34.55
3.11028	34.4881
3.10841	34.5081
3.10655	34.4265
3.10469	34.3798
3.10283	34.3415
3.10098	34.1707
3.09912	34.0044
3.09727	33.9894
3.09542	33.9445
3.09358	33.8005
3.09173	33.6833
3.08989	33.6029
3.08805	33.6305
3.08621	33.6189
3.08437	33.5199
3.08254	33.4094
3.08071	33.3558
3.07888	33.2955
3.07705	33.2401
3.07523	33.2246
3.0734	33.1595
3.07158	33.1327
3.06977	33.0534
3.06795	32.894
3.06613	32.8991
3.06432	32.9606
3.06251	32.9354
3.0607	32.8278
3.0589	32.685
3.0571	32.7241
3.05529	32.7139
3.05349	32.5962
3.0517	32.6365
3.0499	32.6284
3.04811	32.4722
3.04632	32.4423
3.04453	32.4763
3.04274	32.3831
3.04096	32.2693
3.03918	32.2366
3.0374	32.2166
3.03562	32.146
3.03384	32.046
3.03207	32.0192
3.03029	32.0105
3.02852	32.055
3.02676	32.024
3.02499	31.9359
3.02323	31.8429
3.02146	31.8236
3.0197	31.8011
3.01795	31.8025
3.01619	31.747
3.01444	31.7356
3.01269	31.6519
3.01094	31.6782
3.00919	31.6748
3.00744	31.5864
3.0057	31.5476
3.00396	31.4707
3.00222	31.3591
3.00048	31.2854
2.99875	31.4302
2.99701	31.5632
2.99528	31.4753
2.99355	31.4179
2.99183	31.2678
2.9901	31.0578
2.98838	31.0145
2.98666	31.0123
2.98494	31.1318
2.98322	31.1086
2.9815	30.9949
2.97979	31.0208
2.97808	30.8784
2.97637	30.8414
2.97466	30.844
2.97295	30.758
2.97125	30.8901
2.96955	30.8448
2.96785	30.823
2.96615	30.7567
2.96446	30.591
2.96276	30.5893
2.96107	30.6744
2.95938	30.6821
2.95769	30.4696
2.95601	30.2985
2.95432	30.4209
2.95264	30.5749
2.95096	30.6347
2.94928	30.773
2.9476	30.8766
2.94593	30.7891
2.94425	30.7626
2.94258	30.7632
2.94092	30.732
2.93925	30.7119
2.93758	30.8947
2.93592	30.9783
2.93426	30.9897
2.9326	30.9328
2.93094	31.0003
2.92928	31.0255
2.92763	30.9805
2.92598	31.0346
2.92433	31.1256
2.92268	31.1789
2.92103	31.2148
2.91939	31.176
2.91775	31.256
2.9161	31.2926
2.91447	31.3639
2.91283	31.4596
2.91119	31.4458
2.90956	31.6095
2.90793	31.7627
2.9063	31.7342
2.90467	31.7422
2.90304	31.7432
2.90142	31.7277
2.89979	31.793
2.89817	31.9689
2.89656	32.0911
2.89494	32.193
2.89332	32.3575
2.89171	32.312
2.8901	32.3206
2.88849	32.3741
2.88688	32.3999
2.88527	32.4688
2.88367	32.4123
2.88206	32.4375
2.88046	32.6336
2.87886	32.7627
2.87727	32.7958
2.87567	32.7524
2.87408	32.8485
2.87248	33.0578
2.87089	33.1953
2.8693	33.2333
2.86772	33.2883
2.86613	33.3827
2.86455	33.5268
2.86297	33.6586
2.86139	33.9043
2.85981	34.1
2.85823	34.1433
2.85666	34.2666
2.85508	34.4947
2.85351	34.576
2.85194	34.5536
2.85038	34.635
2.84881	34.7529
2.84724	34.8121
2.84568	34.9362
2.84412	35.0472
2.84256	35.1628
2.841	35.2816
2.83945	35.3935
2.83789	35.5393
2.83634	35.7151
2.83479	35.8367
2.83324	35.901
2.83169	35.974
2.83015	36.163
2.82861	36.2183
2.82706	36.1799
2.82552	36.3382
2.82398	36.574
2.82245	36.748
2.82091	36.9612
2.81938	37.1107
2.81784	37.1635
2.81631	37.3035
2.81479	37.3963
2.81326	37.4115
2.81173	37.4991
2.81021	37.674
2.80869	37.8275
2.80716	37.9969
2.80565	38.1788
2.80413	38.4795
2.80261	38.5549
2.8011	38.4276
2.79959	38.4939
2.79808	38.6192
2.79657	38.6959
2.79506	38.7385
2.79355	38.6996
2.79205	38.7069
2.79055	38.8664
2.78904	39.2428
2.78754	39.5617
2.78605	39.5341
2.78455	39.5398
2.78306	39.7195
2.78156	39.7981
2.78007	39.7756
2.77858	39.7507
2.77709	39.9342
2.77561	40.082
2.77412	40.1841
2.77264	40.4286
2.77116	40.7643
2.76968	40.8092
2.7682	40.832
2.76672	40.92
2.76524	40.94
2.76377	41.2514
2.7623	41.419
2.76083	41.302
2.75936	41.4035
2.75789	41.8218
2.75642	42.585
2.75496	42.9572
2.7535	42.5748
2.75203	42.6296
2.75057	42.9135
2.74912	43.2288
2.74766	43.5715
2.7462	43.7917
2.74475	44.0592
2.7433	44.6444
2.74185	45.6039
2.7404	46.3498
2.73895	46.4028
2.7375	46.1808
2.73606	46.628
2.73462	47.2446
2.73318	47.4372
2.73174	47.7603
2.7303	48.2718
2.72886	48.8749
2.72742	49.5416
2.72599	50.5464
2.72456	51.5871
2.72313	51.7858
2.7217	52.5917
2.72027	53.7719
2.71884	53.8444
2.71742	54.2692
2.71599	54.9358
2.71457	55.7378
2.71315	56.5765
2.71173	57.9784
2.71032	58.9322
2.7089	59.1106
2.70748	59.2453
2.70607	59.739
2.70466	60.3569
2.70325	61.0009
2.70184	61.8044
2.70043	62.531
2.69903	63.0925
2.69762	63.8042
2.69622	64.8503
2.69482	66.1235
2.69342	66.9078
2.69202	67.0689
2.69062	67.5075
2.68923	68.1848
2.68783	68.9014
2.68644	69.6272
2.68505	70.1706
2.68366	70.6983
2.68227	70.8573
2.68089	71.2745
2.6795	72.189
2.67812	72.6636
2.67673	73.0902
2.67535	72.8516
2.67397	72.578
2.6726	73.0336
2.67122	74.5305
2.66984	74.8378
2.66847	74.1989
2.6671	75.0308
2.66572	75.4203
2.66435	74.9334
2.66299	74.2084
2.66162	74.3906
2.66025	74.6494
2.65889	74.5939
2.65753	74.4574
2.65616	74.7954
2.65481	74.9022
2.65345	75.1235
2.65209	75.253
2.65073	75.1068
2.64938	75.075
2.64803	75.1458
2.64667	75.4307
2.64532	75.6015
2.64397	75.4386
2.64263	75.5111
2.64128	75.5096
2.63994	75.5422
2.63859	75.487
2.63725	75.596
2.63591	75.7172
2.63457	76.0212
2.63323	76.1668
2.6319	76.5577
2.63056	77.1535
2.62923	76.6798
2.62789	76.5741
2.62656	76.9234
2.62523	76.3723
2.6239	76.1857
2.62258	76.3241
2.62125	77.054
2.61993	77.3154
2.6186	76.9447
2.61728	77.3795
2.61596	77.004
2.61464	76.4197
2.61332	76.6463
2.61201	76.6115
2.61069	76.679
2.60938	76.9092
2.60807	77.0979
2.60675	77.5412
2.60544	77.9808
2.60414	77.4968
2.60283	77.1123
2.60152	76.9432
2.60022	76.6944
2.59891	76.6696
2.59761	77.0641
2.59631	78.057
2.59501	79.2963
2.59371	78.4802
2.59242	77.2953
2.59112	77.0492
2.58983	77.2765
2.58853	77.442
2.58724	77.4449
2.58595	77.3076
2.58466	77.8732
2.58338	77.9797
2.58209	77.442
2.5808	77.3282
2.57952	76.9963
2.57824	77.1746
2.57695	77.4851
2.57567	77.2485
2.5744	77.5103
2.57312	77.7746
2.57184	77.2904
2.57057	77.4534
2.56929	77.493
2.56802	77.1216
2.56675	77.056
2.56548	77.3862
2.56421	77.7759
2.56294	77.8222
2.56168	77.8726
2.56041	77.6185
2.55915	77.1404
2.55789	76.9674
2.55662	76.9265
2.55536	76.9243
2.5541	77.1822
2.55285	77.365
2.55159	77.1571
2.55034	77.0012
2.54908	76.948
2.54783	76.9384
2.54658	76.8696
2.54533	76.8785
2.54408	76.9656
2.54283	76.9773
2.54159	76.7634
2.54034	76.6309
2.5391	76.6286
2.53785	76.6494
2.53661	76.776
2.53537	76.7559
2.53413	76.685
2.53289	76.6691
2.53166	76.7752
2.53042	76.7799
2.52919	76.6233
2.52795	76.6437
2.52672	76.7836
2.52549	76.83
2.52426	76.8328
2.52303	76.8407
2.52181	76.8206
2.52058	76.8675
2.51936	76.8649
2.51813	76.9016
2.51691	76.9893
2.51569	76.9692
2.51447	76.9072
2.51325	76.8383
2.51203	76.8463
2.51082	76.8236
2.5096	76.8215
2.50839	76.8488
2.50717	76.9391
2.50596	76.9661
2.50475	76.9477
2.50354	76.9094
2.50233	76.8758
2.50113	76.9813
2.49992	77.0256
2.49872	76.9032
2.49751	76.8463
2.49631	76.9058
2.49511	76.911
2.49391	76.8434
2.49271	76.8781
2.49151	76.9172
2.49031	76.9761
2.48912	76.9827
2.48792	77.0068
2.48673	77.0108
2.48554	77.0151
2.48435	77.0774
2.48316	77.087
2.48197	77.1482
2.48078	77.2236
2.4796	77.2165
2.47841	77.1522
2.47723	77.2046
2.47604	77.2563
2.47486	77.2473
2.47368	77.216
2.4725	77.2034
2.47132	77.3126
2.47014	77.4182
2.46897	77.4509
2.46779	77.3893
2.46662	77.3893
2.46545	77.4129
2.46427	77.5089
2.4631	77.6221
2.46193	77.5937
2.46077	77.5668
2.4596	77.6168
2.45843	77.6113
2.45727	77.6028
2.4561	77.6602
2.45494	77.6713
2.45378	77.6237
2.45262	77.6087
2.45146	77.5351
2.4503	77.5788
2.44914	77.7423
2.44799	77.8004
2.44683	77.7743
2.44568	77.7825
2.44452	77.8409
2.44337	77.8518
2.44222	77.8124
2.44107	77.7568
2.43992	77.7667
2.43877	77.7795
2.43763	77.7788
2.43648	77.8766
2.43534	77.927
2.43419	78.0208
2.43305	78.0577
2.43191	78.0767
2.43077	78.1503
2.42963	78.2431
2.42849	78.1136
2.42736	78.0193
2.42622	78.2601
2.42509	78.3642
2.42395	78.318
2.42282	78.305
2.42169	78.2684
2.42056	78.4321
2.41943	78.5628
2.4183	78.5765
2.41717	78.5914
2.41605	78.5686
2.41492	78.5318
2.4138	78.6627
2.41267	78.7401
2.41155	78.7202
2.41043	78.6151
2.40931	78.6018
2.40819	78.6503
2.40707	78.7374
2.40595	78.856
2.40484	78.8763
2.40372	78.9322
2.40261	78.9042
2.4015	78.8214
2.40039	78.8288
2.39928	78.8718
2.39817	79.0134
2.39706	78.9872
2.39595	78.9269
2.39484	78.9629
2.39374	79.0468
2.39263	79.0447
2.39153	78.9739
2.39043	79.0666
2.38932	79.1885
2.38822	79.1485
2.38712	79.1692
2.38603	79.1026
2.38493	79.142
2.38383	79.1849
2.38274	79.2396
2.38164	79.2721
2.38055	79.2392
2.37946	79.1284
2.37836	79.1243
2.37727	79.3292
2.37618	79.3974
2.3751	79.2607
2.37401	79.1018
2.37292	79.168
2.37184	79.3325
2.37075	79.3609
2.36967	79.3155
2.36859	79.219
2.3675	79.1497
2.36642	79.2401
2.36534	79.3804
2.36427	79.3584
2.36319	79.3664
2.36211	79.3244
2.36104	79.2647
2.35996	79.3438
2.35889	79.4622
2.35781	79.3015
2.35674	79.2118
2.35567	79.174
2.3546	79.1977
2.35353	79.2088
2.35247	79.2889
2.3514	79.2538
2.35033	79.2378
2.34927	79.1747
2.3482	79.0672
2.34714	79.0475
2.34608	79.153
2.34502	79.1802
2.34396	79.2098
2.3429	79.1728
2.34184	79.1416
2.34078	79.1356
2.33973	79.1628
2.33867	79.2635
2.33762	79.3147
2.33656	79.3568
2.33551	79.3972
2.33446	79.489
2.33341	79.5766
2.33236	79.6644
2.33131	79.6255
2.33026	79.5126
2.32922	79.573
2.32817	79.5932
2.32712	79.6813
2.32608	79.6794
2.32504	79.6858
2.324	79.7577
2.32295	79.8614
2.32191	79.9822
2.32087	79.9354
2.31984	79.8542
2.3188	79.8238
2.31776	79.9067
2.31673	80.0078
2.31569	80.0056
2.31466	79.995
2.31362	80.0807
2.31259	80.1494
2.31156	79.9993
2.31053	79.9693
2.3095	80.0081
2.30847	80.0175
2.30745	80.0261
2.30642	80.0904
2.3054	80.0176
2.30437	80.0177
2.30335	80.0991
2.30232	80.2514
2.3013	80.3257
2.30028	80.2147
2.29926	80.2205
2.29824	80.2689
2.29722	80.2329
2.29621	80.1682
2.29519	80.2522
2.29417	80.3256
2.29316	80.2999
2.29215	80.3866
2.29113	80.4405
2.29012	80.3984
2.28911	80.4538
2.2881	80.5844
2.28709	80.5355
2.28608	80.4537
2.28507	80.4141
2.28407	80.4839
2.28306	80.5997
2.28206	80.6389
2.28105	80.6359
2.28005	80.7463
2.27905	80.727
2.27805	80.7061
2.27705	80.7724
2.27605	80.794
2.27505	80.6649
2.27405	80.5812
2.27305	80.6205
2.27206	80.7181
2.27106	80.7601
2.27007	80.8516
2.26907	80.9806
2.26808	80.9313
2.26709	80.8459
2.2661	80.7788
2.26511	80.723
2.26412	80.7628
2.26313	80.7636
2.26214	80.7873
2.26116	80.8026
2.26017	80.7686
2.25919	80.8253
2.2582	80.8171
2.25722	80.7716
2.25624	80.7798
2.25526	80.7828
2.25428	80.8684
2.2533	80.8641
2.25232	80.8741
2.25134	80.8526
2.25036	80.8005
2.24939	80.8267
2.24841	80.9813
2.24744	81.0561
2.24646	80.9821
2.24549	80.8939
2.24452	80.7906
2.24355	80.8295
2.24257	80.8522
2.24161	80.8362
2.24064	80.9354
2.23967	81.0325
2.2387	80.9413
2.23774	80.7652
2.23677	80.7197
2.23581	80.8369
2.23484	80.8401
2.23388	80.8721
2.23292	80.8732
2.23196	80.825
2.231	80.8712
2.23004	80.8978
2.22908	80.7598
2.22812	80.665
2.22716	80.6662
2.22621	80.6835
2.22525	80.6825
2.2243	80.6814
2.22334	80.6523
2.22239	80.628
2.22144	80.6058
2.22049	80.5005
2.21953	80.4945
2.21859	80.4685
2.21764	80.3109
2.21669	80.19
2.21574	80.2379
2.21479	80.2874
2.21385	80.2677
2.2129	80.1905
2.21196	80.0466
2.21102	80.0232
2.21007	80.1321
2.20913	80.1565
2.20819	80.0699
2.20725	79.877
2.20631	79.8245
2.20537	79.88
2.20444	79.8682
2.2035	79.9348
2.20256	79.9658
2.20163	79.9773
2.20069	79.9119
2.19976	79.9264
2.19883	80.0439
2.19789	79.9335
2.19696	80.0399
2.19603	80.2105
2.1951	80.1717
2.19417	80.174
2.19325	80.1218
2.19232	80.0878
2.19139	80.1981
2.19047	80.2999
2.18954	80.3687
2.18862	80.4448
2.18769	80.6167
2.18677	80.7167
2.18585	80.6294
2.18493	80.4962
2.18401	80.5151
2.18309	80.6141
2.18217	80.7661
2.18125	80.8222
2.18033	80.7933
2.17942	80.8294
2.1785	81.0073
2.17759	81.1078
2.17667	81.0366
2.17576	81.0775
2.17485	81.1022
2.17393	81.1452
2.17302	81.1846
2.17211	81.2687
2.1712	81.3063
2.17029	81.2633
2.16939	81.2577
2.16848	81.2683
2.16757	81.41
2.16667	81.4308
2.16576	81.368
2.16486	81.2293
2.16395	81.3625
2.16305	81.6895
2.16215	81.6822
2.16125	81.5212
2.16035	81.573
2.15945	81.5834
2.15855	81.7106
2.15765	81.7757
2.15675	81.5871
2.15586	81.4534
2.15496	81.5852
2.15406	81.616
2.15317	81.4912
2.15228	81.515
2.15138	81.6211
2.15049	81.7356
2.1496	81.7589
2.14871	81.738
2.14782	81.8151
2.14693	81.7748
2.14604	81.532
2.14515	81.3304
2.14427	81.4313
2.14338	81.7995
2.14249	81.8612
2.14161	81.6494
2.14072	81.6959
2.13984	81.8185
2.13896	81.737
2.13808	81.6212
2.13719	81.663
2.13631	81.577
2.13543	81.5149
2.13455	81.7205
2.13368	81.8551
2.1328	81.657
2.13192	81.4793
2.13105	81.5681
2.13017	81.6177
2.1293	81.596
2.12842	81.6523
2.12755	81.5835
2.12668	81.5515
2.1258	81.5739
2.12493	81.6488
2.12406	81.7267
2.12319	81.5446
2.12232	81.4751
2.12145	81.6055
2.12059	81.6297
2.11972	81.5838
2.11885	81.6738
2.11799	81.697
2.11712	81.5845
2.11626	81.6404
2.1154	81.6647
2.11453	81.4215
2.11367	81.4014
2.11281	81.762
2.11195	81.8306
2.11109	81.6722
2.11023	81.6241
2.10937	81.5641
2.10851	81.5405
2.10766	81.45
2.1068	81.4042
2.10594	81.2969
2.10509	81.4213
2.10423	81.6746
2.10338	81.8038
2.10253	81.6131
2.10168	81.5459
2.10082	81.5045
2.09997	81.5397
2.09912	81.8712
2.09827	81.7671
2.09742	81.4503
2.09658	81.3459
2.09573	81.3171
2.09488	81.2441
2.09404	81.278
2.09319	81.3984
2.09235	81.5672
2.0915	81.8093
2.09066	81.6704
2.08982	81.6215
2.08897	81.6345
2.08813	81.5781
2.08729	81.6577
2.08645	81.6614
2.08561	81.6364
2.08477	81.5544
2.08394	81.6029
2.0831	81.7049
2.08226	81.7362
2.08143	81.6527
2.08059	81.5631
2.07976	81.6499
2.07892	81.7141
2.07809	81.561
2.07726	81.4917
2.07643	81.6619
2.07559	81.695
2.07476	81.8688
2.07393	81.9096
2.0731	81.5168
2.07228	81.4363
2.07145	81.5249
2.07062	81.7975
2.06979	81.9482
2.06897	81.6298
2.06814	81.7897
2.06732	82.0327
2.06649	82.0376
2.06567	81.8785
2.06485	81.7753
2.06403	81.7196
2.0632	81.6556
2.06238	81.5352
2.06156	81.4268
2.06074	81.3851
2.05993	81.3925
2.05911	81.4182
2.05829	81.428
2.05747	81.393
2.05666	81.404
2.05584	81.4733
2.05503	81.5309
2.05421	81.5763
2.0534	81.5426
2.05259	81.5774
2.05177	81.6232
2.05096	81.5181
2.05015	81.4317
2.04934	81.5153
2.04853	81.6515
2.04772	81.4969
2.04691	81.3749
2.04611	81.6062
2.0453	81.5854
2.04449	81.455
2.04369	81.4251
2.04288	81.4689
2.04208	81.5232
2.04127	81.5635
2.04047	81.4484
2.03967	81.2978
2.03886	81.2627
2.03806	81.14
2.03726	81.1844
2.03646	81.2955
2.03566	81.2669
2.03486	81.4195
2.03407	81.5557
2.03327	81.4163
2.03247	81.1582
2.03167	81.2167
2.03088	81.1731
2.03008	81.0374
2.02929	81.0851
2.0285	81.1682
2.0277	81.1197
2.02691	81.0386
2.02612	81.1626
2.02533	81.2165
2.02453	81.1435
2.02374	81.3124
2.02295	81.2461
2.02217	81.0829
2.02138	81.0304
2.02059	80.9847
2.0198	81.0584
2.01902	81.0993
2.01823	81.1032
2.01744	81.1705
2.01666	81.0445
2.01588	80.9532
2.01509	80.9504
2.01431	80.8283
2.01353	80.8516
2.01275	80.9295
2.01196	80.9502
2.01118	80.838
2.0104	80.8342
2.00963	80.788
2.00885	80.6437
2.00807	80.6921
2.00729	80.9101
2.00651	81.0013
2.00574	80.7346
2.00496	80.6912
2.00419	80.6446
2.00341	80.6814
2.00264	80.7883
2.00187	80.6344
2.00109	80.6433
2.00032	80.6522
