Name: Brass plate
Type: Manmade materials
Class: Reflectance target
Subclass: 
Particle Size: Solid
Sample No.: SN: ILF-17464-2-2
Owner: JPL
Wavelength range: IR
Origin: Labsphere, P.O. Box 70, Shaker Street, North Sutton, NH 03260
(603) 927-4266
Description: Measurement made at top right. Field Brass 1.
Measured Oct. 29 1997.




Measurement: Hemispherical Reflectance
First Column: X
Second Column: Y
X Units: Wavelength (micrometers)
Y Units: Reflectence (percent)
First X Value: 15.3853
Last X Value: 2.00032
Number of X Values: 2256
Additional information: None.
 
15.3853	86.2272
15.3397	86.3788
15.2945	86.5668
15.2495	86.5794
15.2048	86.5491
15.1603	86.4768
15.1161	86.4166
15.0722	86.3733
15.0285	86.2503
14.9851	86.2054
14.9419	86.4633
14.8989	86.5158
14.8563	86.542
14.8138	86.5954
14.7716	86.5224
14.7296	86.5042
14.6879	86.483
14.6464	86.3321
14.6052	86.249
14.5641	86.4862
14.5233	86.5304
14.4828	86.3076
14.4424	86.1873
14.4023	86.3924
14.3624	86.4947
14.3227	86.3863
14.2833	86.4027
14.244	86.4525
14.205	86.3981
14.1662	86.3975
14.1276	86.2752
14.0892	86.0862
14.051	85.9591
14.0131	86.0575
13.9753	86.2018
13.9377	86.2818
13.9004	86.3339
13.8632	86.4933
13.8262	86.4697
13.7895	86.3112
13.7529	86.2616
13.7165	86.3609
13.6803	86.4624
13.6443	86.4204
13.6085	86.3278
13.5729	86.3289
13.5374	86.3256
13.5022	86.3682
13.4671	86.4967
13.4322	86.424
13.3975	86.3476
13.363	86.4909
13.3286	86.4944
13.2944	86.4715
13.2604	86.3905
13.2266	86.3339
13.193	86.3761
13.1595	86.3732
13.1262	86.3236
13.093	86.3222
13.06	86.3742
13.0272	86.3533
12.9946	86.2208
12.9621	86.1056
12.9298	86.044
12.8976	86.0572
12.8656	86.0572
12.8337	86.0116
12.8021	85.9809
12.7705	85.9907
12.7391	86.1019
12.7079	85.9952
12.6769	85.95
12.6459	85.9917
12.6152	85.9211
12.5845	85.8849
12.5541	85.9811
12.5238	85.9348
12.4936	85.9042
12.4635	85.9639
12.4337	86.1015
12.4039	86.1965
12.3743	86.2789
12.3448	86.2639
12.3155	86.168
12.2863	86.1734
12.2573	86.3363
12.2284	86.35
12.1996	86.3337
12.171	86.3383
12.1425	86.2872
12.1141	86.305
12.0859	86.3469
12.0578	86.3768
12.0298	86.4294
12.0019	86.5086
11.9742	86.5145
11.9466	86.42
11.9192	86.3424
11.8918	86.3118
11.8646	86.3467
11.8375	86.3319
11.8106	86.2755
11.7837	86.3309
11.757	86.4519
11.7304	86.3962
11.7039	86.3748
11.6776	86.3532
11.6513	86.3223
11.6252	86.2856
11.5992	86.245
11.5733	86.0895
11.5475	85.9996
11.5219	85.8886
11.4963	85.5908
11.4709	85.4036
11.4455	85.3584
11.4203	85.3783
11.3952	85.4641
11.3702	85.5631
11.3454	85.774
11.3206	85.9089
11.2959	85.9166
11.2714	86.0006
11.2469	86.0862
11.2226	86.1135
11.1983	86.0481
11.1742	85.8851
11.1502	85.8517
11.1263	85.8001
11.1024	85.6645
11.0787	85.6719
11.0551	85.7261
11.0316	85.6155
11.0081	85.5484
10.9848	85.5147
10.9616	85.4191
10.9385	85.4324
10.9154	85.4728
10.8925	85.3995
10.8697	85.415
10.8469	85.4186
10.8243	85.433
10.8017	85.418
10.7793	85.3307
10.7569	85.3059
10.7346	85.3152
10.7125	85.2964
10.6904	85.3225
10.6684	85.29
10.6465	85.2405
10.6247	85.2261
10.6029	85.1713
10.5813	85.1106
10.5597	85.0538
10.5383	84.9856
10.5169	84.9583
10.4956	85.013
10.4744	84.8965
10.4533	84.7981
10.4323	84.8019
10.4113	84.7053
10.3904	84.6283
10.3697	84.6584
10.349	84.638
10.3284	84.5228
10.3078	84.4992
10.2874	84.4793
10.267	84.4591
10.2467	84.4235
10.2265	84.3343
10.2064	84.2926
10.1863	84.2439
10.1663	84.1782
10.1464	84.1385
10.1266	84.0819
10.1069	84.0207
10.0872	83.9246
10.0676	83.8846
10.0481	83.9723
10.0287	83.9915
10.0093	83.8521
9.99005	83.831
9.97084	83.8006
9.95169	83.7312
9.93263	83.7663
9.91364	83.8005
9.89472	83.786
9.87587	83.7874
9.8571	83.7854
9.83839	83.674
9.81976	83.6182
9.80119	83.6644
9.78271	83.6552
9.76428	83.6741
9.74592	83.7528
9.72764	83.6943
9.70943	83.6977
9.69128	83.6459
9.6732	83.5971
9.65518	83.6021
9.63724	83.6251
9.61935	83.5982
9.60155	83.6548
9.5838	83.7527
9.56611	83.7507
9.5485	83.7303
9.53094	83.8108
9.51345	83.9475
9.49604	83.9207
9.47867	83.89
9.46137	83.9236
9.44414	83.9401
9.42697	83.9866
9.40986	84.1199
9.39281	84.1845
9.37583	84.0559
9.35891	84.0367
9.34204	84.0788
9.32524	84.2635
9.3085	84.3913
9.29182	84.3984
9.27519	84.3769
9.25863	84.3684
9.24213	84.3468
9.22568	84.3358
9.2093	84.3506
9.19297	84.4242
9.17669	84.563
9.16048	84.5977
9.14433	84.601
9.12823	84.5706
9.11218	84.5399
9.0962	84.6123
9.08027	84.6369
9.06439	84.7002
9.04858	84.7766
9.03281	84.7525
9.0171	84.7813
9.00145	84.8716
8.98585	84.8868
8.9703	84.9145
8.9548	84.8919
8.93937	84.8798
8.92398	84.9373
8.90865	84.9847
8.89337	84.9884
8.87814	84.9508
8.86296	84.9482
8.84784	84.993
8.83277	84.9455
8.81774	84.8308
8.80277	84.8241
8.78786	84.9712
8.77298	85.0563
8.75816	85.1542
8.7434	85.0909
8.72868	84.9648
8.714	84.9648
8.69938	84.9702
8.68481	85.0198
8.67029	85.0536
8.65581	85.1343
8.64139	85.0996
8.62701	85.1567
8.61268	85.2204
8.5984	85.2168
8.58416	85.2615
8.56997	85.2971
8.55583	85.44
8.54174	85.5321
8.52769	85.4595
8.51368	85.4334
8.49973	85.4553
8.48582	85.5703
8.47195	85.5901
8.45813	85.5364
8.44436	85.6248
8.43062	85.7418
8.41693	85.8218
8.4033	85.8091
8.3897	85.8356
8.37614	85.9338
8.36264	85.9094
8.34917	85.8788
8.33574	85.8962
8.32236	85.9747
8.30903	86.0675
8.29573	86.1159
8.28248	86.1085
8.26927	86.1238
8.2561	86.142
8.24298	86.163
8.2299	86.2203
8.21685	86.2618
8.20385	86.3402
8.19089	86.3709
8.17797	86.3966
8.16509	86.3675
8.15225	86.4196
8.13946	86.499
8.1267	86.5579
8.11398	86.5694
8.10131	86.5634
8.08867	86.6129
8.07606	86.6967
8.0635	86.6883
8.05099	86.5717
8.0385	86.5079
8.02606	86.6133
8.01366	86.7476
8.00129	86.713
7.98896	86.6944
7.97667	86.7945
7.96442	86.9522
7.9522	87.0454
7.94002	87.0297
7.92788	86.9488
7.91578	87.015
7.90371	87.1315
7.89168	87.1786
7.87969	87.2835
7.86773	87.3474
7.85581	87.3484
7.84392	87.371
7.83207	87.3905
7.82026	87.4436
7.80849	87.4737
7.79674	87.5252
7.78503	87.5622
7.77337	87.5781
7.76173	87.61
7.75012	87.6505
7.73856	87.6607
7.72703	87.6364
7.71553	87.6298
7.70406	87.6626
7.69263	87.7193
7.68123	87.7374
7.66987	87.7135
7.65855	87.7116
7.64725	87.6794
7.63598	87.7001
7.62475	87.7197
7.61356	87.712
7.60239	87.7303
7.59126	87.8497
7.58017	87.8284
7.5691	87.7345
7.55806	87.6779
7.54707	87.6962
7.5361	87.7525
7.52516	87.7205
7.51425	87.7093
7.50338	87.7328
7.49253	87.7003
7.48172	87.7099
7.47094	87.7409
7.46019	87.7393
7.44947	87.6564
7.43879	87.5833
7.42813	87.5618
7.4175	87.5571
7.4069	87.5298
7.39634	87.4652
7.3858	87.4292
7.37529	87.4245
7.36482	87.3892
7.35437	87.3176
7.34396	87.3216
7.33357	87.3033
7.32321	87.204
7.31288	87.1492
7.30258	87.0238
7.29231	86.957
7.28207	87.0205
7.27185	86.9831
7.26167	86.9083
7.25152	86.8605
7.24139	86.7735
7.23129	86.7437
7.22122	86.7645
7.21117	86.8447
7.20116	86.8352
7.19117	86.8301
7.18121	86.9001
7.17128	86.9169
7.16137	86.8085
7.1515	86.8402
7.14164	86.8898
7.13182	86.7761
7.12203	86.7701
7.11225	86.8195
7.10251	86.7008
7.0928	86.6486
7.08311	86.7006
7.07344	86.7947
7.06381	86.8207
7.0542	86.931
7.04461	87.0393
7.03506	86.8626
7.02552	86.8379
7.01601	86.8704
7.00653	86.8218
6.99708	86.8162
6.98765	86.8128
6.97824	86.8016
6.96886	86.9066
6.95951	86.9954
6.95018	86.842
6.94087	86.8405
6.9316	86.8839
6.92234	86.9204
6.91311	86.8945
6.90391	86.9023
6.89473	86.846
6.88557	86.7956
6.87644	86.9005
6.86733	87.2285
6.85824	87.2565
6.84918	86.9067
6.84015	86.7509
6.83114	86.8807
6.82215	86.9415
6.81319	86.8539
6.80424	86.9128
6.79532	87.1091
6.78643	87.194
6.77756	87.068
6.76871	86.998
6.75989	86.9414
6.75109	86.9307
6.74231	86.9646
6.73355	86.9863
6.72482	87.1088
6.71611	87.2093
6.70742	87.1897
6.69875	87.0881
6.69011	87.2535
6.68149	87.4367
6.67289	87.3491
6.66431	87.2062
6.65576	87.1933
6.64722	87.52
6.63871	87.9313
6.63022	87.7752
6.62175	87.526
6.61331	87.5359
6.60488	87.5297
6.59648	87.6791
6.5881	87.8272
6.57974	87.9531
6.5714	88.0483
6.56308	87.9
6.55478	87.9222
6.54651	87.8582
6.53825	87.7307
6.53001	87.7531
6.5218	87.9779
6.51361	87.9401
6.50544	87.9858
6.49729	88.3849
6.48915	88.4295
6.48104	88.1993
6.47295	88.1269
6.46488	88.0143
6.45683	87.9505
6.4488	88.0283
6.44079	88.1257
6.4328	88.1916
6.42482	88.3027
6.41687	88.6872
6.40894	88.5702
6.40103	88.1201
6.39314	87.9549
6.38526	87.9119
6.37741	87.981
6.36957	88.081
6.36176	88.0334
6.35396	88.093
6.34618	88.3181
6.33843	88.1086
6.33069	87.8336
6.32297	87.8199
6.31527	87.8368
6.30758	87.8051
6.29992	87.7741
6.29227	87.7498
6.28465	87.6859
6.27704	87.6365
6.26945	87.6544
6.26188	87.7204
6.25432	87.743
6.24679	87.7003
6.23927	87.6431
6.23177	87.6519
6.22429	87.7346
6.21683	87.7759
6.20938	87.698
6.20195	87.6506
6.19454	87.7814
6.18715	88.0216
6.17978	87.8548
6.17242	87.5934
6.16508	87.6276
6.15776	87.6221
6.15045	87.5229
6.14317	87.582
6.1359	87.5938
6.12864	87.6934
6.12141	87.9771
6.11419	88.246
6.10699	88.1006
6.0998	87.8805
6.09263	87.8326
6.08549	87.8656
6.07835	88.0731
6.07123	88.2319
6.06413	88.0836
6.05705	88.2647
6.04998	88.7773
6.04293	88.5083
6.0359	88.118
6.02888	88.0151
6.02187	88.0587
6.01489	88.2209
6.00792	88.2107
6.00096	88.1691
5.99403	88.3761
5.98711	88.4293
5.9802	88.3026
5.97331	88.363
5.96644	88.2801
5.95958	88.0896
5.95274	88.1438
5.94591	88.2863
5.9391	88.612
5.9323	88.5326
5.92552	88.2234
5.91876	88.1938
5.91201	88.2127
5.90528	88.3016
5.89856	88.6439
5.89186	88.6301
5.88517	88.6825
5.8785	88.701
5.87184	88.4091
5.8652	88.4123
5.85857	88.3443
5.85196	88.2625
5.84536	88.2729
5.83878	88.3177
5.83221	88.4283
5.82566	88.5524
5.81912	88.4949
5.81259	88.3559
5.80608	88.3722
5.79959	88.415
5.79311	88.3762
5.78665	88.3712
5.78019	88.4106
5.77376	88.5352
5.76734	88.7971
5.76093	88.686
5.75453	88.495
5.74815	88.5366
5.74179	88.5305
5.73543	88.516
5.7291	88.4745
5.72277	88.4939
5.71646	88.6031
5.71017	88.6603
5.70389	88.5132
5.69762	88.4605
5.69136	88.5433
5.68513	88.5156
5.6789	88.5156
5.67268	88.5036
5.66648	88.4932
5.6603	88.6094
5.65413	88.624
5.64797	88.6075
5.64182	88.6869
5.63569	88.5927
5.62957	88.4882
5.62347	88.4609
5.61737	88.498
5.61129	88.4482
5.60522	88.4115
5.59917	88.3504
5.59313	88.2755
5.5871	88.2798
5.58109	88.3282
5.57509	88.236
5.5691	88.0937
5.56312	88.0952
5.55716	88.1705
5.55121	88.2118
5.54528	88.2046
5.53935	88.2787
5.53344	88.3908
5.52754	88.4456
5.52166	88.4384
5.51578	88.4153
5.50992	88.3774
5.50407	88.3893
5.49823	88.4233
5.49241	88.4907
5.4866	88.519
5.4808	88.5263
5.47501	88.4983
5.46923	88.5135
5.46347	88.5925
5.45772	88.5923
5.45198	88.5802
5.44625	88.5359
5.44054	88.5481
5.43484	88.5467
5.42914	88.5585
5.42347	88.6894
5.4178	88.6608
5.41214	88.5244
5.4065	88.4501
5.40087	88.4041
5.39525	88.4241
5.38964	88.4816
5.38404	88.5149
5.37846	88.5603
5.37288	88.5941
5.36732	88.5614
5.36177	88.5306
5.35623	88.5401
5.35071	88.5505
5.34519	88.526
5.33968	88.4918
5.33419	88.4723
5.32871	88.4466
5.32324	88.4726
5.31778	88.5353
5.31233	88.5455
5.30689	88.5443
5.30147	88.5285
5.29605	88.5099
5.29065	88.5158
5.28525	88.4828
5.27987	88.5349
5.2745	88.5637
5.26914	88.5164
5.26379	88.5627
5.25845	88.6112
5.25312	88.6012
5.24781	88.5892
5.2425	88.5651
5.23721	88.5675
5.23192	88.5792
5.22665	88.6093
5.22138	88.6261
5.21613	88.6295
5.21089	88.6616
5.20566	88.6998
5.20044	88.6996
5.19522	88.6319
5.19002	88.5589
5.18483	88.5719
5.17965	88.5768
5.17448	88.5848
5.16933	88.6131
5.16418	88.6469
5.15904	88.6311
5.15391	88.6155
5.14879	88.606
5.14368	88.5968
5.13859	88.5991
5.1335	88.6019
5.12842	88.6513
5.12335	88.7021
5.1183	88.6948
5.11325	88.6591
5.10821	88.6467
5.10318	88.6447
5.09817	88.6054
5.09316	88.6229
5.08816	88.6535
5.08317	88.6404
5.07819	88.6191
5.07322	88.6273
5.06826	88.6241
5.06331	88.6278
5.05837	88.6267
5.05344	88.6589
5.04852	88.6418
5.04361	88.5774
5.03871	88.6007
5.03382	88.6436
5.02894	88.6382
5.02406	88.6002
5.0192	88.6245
5.01435	88.6505
5.0095	88.6768
5.00467	88.6872
4.99984	88.6952
4.99502	88.6773
4.99021	88.6069
4.98542	88.6077
4.98063	88.6819
4.97585	88.6802
4.97108	88.6572
4.96632	88.6151
4.96156	88.6308
4.95682	88.6748
4.95209	88.72
4.94736	88.7179
4.94264	88.7045
4.93794	88.6856
4.93324	88.7002
4.92855	88.7266
4.92387	88.6716
4.9192	88.6383
4.91453	88.6405
4.90988	88.6522
4.90524	88.6472
4.9006	88.6772
4.89597	88.7144
4.89135	88.7211
4.88674	88.6917
4.88214	88.713
4.87755	88.7793
4.87296	88.8011
4.86839	88.743
4.86382	88.7236
4.85926	88.73
4.85471	88.6755
4.85017	88.6666
4.84564	88.7132
4.84111	88.7313
4.8366	88.7666
4.83209	88.7676
4.82759	88.773
4.8231	88.7414
4.81862	88.7634
4.81415	88.8223
4.80968	88.8221
4.80522	88.7503
4.80077	88.7177
4.79633	88.7448
4.7919	88.7672
4.78747	88.7599
4.78306	88.7604
4.77865	88.7379
4.77425	88.686
4.76986	88.7165
4.76547	88.7183
4.7611	88.6831
4.75673	88.6619
4.75237	88.6973
4.74802	88.7705
4.74367	88.7692
4.73934	88.7255
4.73501	88.6834
4.73069	88.7034
4.72638	88.6838
4.72207	88.6221
4.71777	88.6646
4.71348	88.7178
4.7092	88.7102
4.70493	88.7325
4.70066	88.7321
4.69641	88.7143
4.69216	88.6866
4.68791	88.682
4.68368	88.6831
4.67945	88.7239
4.67523	88.7298
4.67102	88.7396
4.66682	88.7451
4.66262	88.7207
4.65843	88.6475
4.65425	88.6219
4.65007	88.6656
4.64591	88.7327
4.64175	88.7797
4.6376	88.746
4.63345	88.6762
4.62932	88.6578
4.62519	88.6662
4.62106	88.715
4.61695	88.6861
4.61284	88.723
4.60874	88.7443
4.60465	88.6771
4.60056	88.6579
4.59648	88.6878
4.59241	88.6896
4.58835	88.6657
4.58429	88.6733
4.58024	88.71
4.5762	88.7291
4.57216	88.7769
4.56814	88.7088
4.56411	88.6428
4.5601	88.6762
4.55609	88.7213
4.55209	88.7305
4.5481	88.759
4.54411	88.7903
4.54013	88.837
4.53616	88.8237
4.5322	88.7471
4.52824	88.6957
4.52429	88.7132
4.52034	88.7203
4.51641	88.6967
4.51247	88.7208
4.50855	88.7549
4.50463	88.7219
4.50072	88.6908
4.49682	88.7001
4.49292	88.7006
4.48903	88.7178
4.48515	88.7522
4.48127	88.7865
4.4774	88.78
4.47354	88.715
4.46968	88.661
4.46584	88.6812
4.46199	88.7078
4.45815	88.7116
4.45432	88.6834
4.4505	88.7149
4.44668	88.7431
4.44287	88.7795
4.43907	88.7863
4.43527	88.7743
4.43148	88.7441
4.4277	88.6676
4.42392	88.6766
4.42015	88.7333
4.41638	88.7461
4.41262	88.7662
4.40887	88.7584
4.40513	88.6953
4.40139	88.6802
4.39765	88.7088
4.39393	88.7252
4.39021	88.7367
4.38649	88.7679
4.38278	88.7431
4.37908	88.6779
4.37539	88.6869
4.3717	88.6968
4.36801	88.703
4.36434	88.7597
4.36067	88.7448
4.357	88.6726
4.35335	88.6254
4.34969	88.6174
4.34605	88.6107
4.34241	88.6632
4.33877	88.6694
4.33514	88.6181
4.33152	88.5814
4.32791	88.5758
4.3243	88.5677
4.32069	88.6044
4.3171	88.5731
4.31351	88.4675
4.30992	88.3665
4.30634	88.3002
4.30277	88.2365
4.2992	88.2143
4.29564	88.2036
4.29208	88.1609
4.28853	88.1243
4.28499	88.1248
4.28145	88.0632
4.27792	88.0077
4.27439	88.0075
4.27087	88.0634
4.26735	88.1414
4.26384	88.2684
4.26034	88.4424
4.25684	88.5545
4.25335	88.4228
4.24986	88.2283
4.24638	88.0757
4.24291	87.9608
4.23944	87.8908
4.23598	87.802
4.23252	87.7893
4.22906	87.7835
4.22562	87.8741
4.22218	88.0417
4.21874	88.112
4.21531	88.1862
4.21189	88.3806
4.20847	88.5114
4.20506	88.5965
4.20165	88.6247
4.19825	88.5954
4.19485	88.6289
4.19146	88.6772
4.18807	88.7057
4.18469	88.7142
4.18132	88.6444
4.17795	88.5854
4.17458	88.6037
4.17123	88.6062
4.16787	88.689
4.16453	88.724
4.16118	88.6953
4.15785	88.638
4.15451	88.6233
4.15119	88.6
4.14787	88.5783
4.14455	88.6122
4.14124	88.5763
4.13794	88.5666
4.13464	88.6249
4.13134	88.6391
4.12805	88.6373
4.12477	88.6683
4.12149	88.6861
4.11822	88.6762
4.11495	88.6656
4.11168	88.6528
4.10843	88.6803
4.10517	88.6334
4.10192	88.6187
4.09868	88.6384
4.09545	88.5459
4.09221	88.4911
4.08899	88.5263
4.08576	88.5713
4.08255	88.6229
4.07933	88.6251
4.07613	88.6289
4.07292	88.6089
4.06973	88.5998
4.06654	88.6374
4.06335	88.6359
4.06017	88.5966
4.05699	88.5511
4.05382	88.5244
4.05065	88.5321
4.04749	88.5413
4.04433	88.5436
4.04118	88.5845
4.03803	88.6575
4.03489	88.6064
4.03175	88.4921
4.02862	88.4744
4.02549	88.4979
4.02237	88.5397
4.01925	88.5379
4.01614	88.4738
4.01303	88.3804
4.00993	88.3805
4.00683	88.3776
4.00373	88.366
4.00064	88.3497
3.99756	88.2945
3.99448	88.2812
3.9914	88.2654
3.98833	88.2478
3.98527	88.2038
3.98221	88.2006
3.97915	88.2476
3.9761	88.2507
3.97305	88.1694
3.97001	88.1028
3.96697	88.1506
3.96394	88.182
3.96091	88.1968
3.95789	88.2073
3.95487	88.2351
3.95186	88.221
3.94885	88.1775
3.94584	88.1948
3.94284	88.3
3.93984	88.3939
3.93685	88.4204
3.93386	88.3542
3.93088	88.2683
3.9279	88.2555
3.92493	88.3301
3.92196	88.364
3.919	88.352
3.91604	88.3926
3.91308	88.4553
3.91013	88.408
3.90718	88.3517
3.90424	88.3998
3.9013	88.4326
3.89837	88.4631
3.89544	88.4351
3.89252	88.4197
3.8896	88.4521
3.88668	88.4079
3.88377	88.3377
3.88086	88.3242
3.87796	88.394
3.87506	88.435
3.87217	88.4665
3.86928	88.3545
3.86639	88.2889
3.86351	88.3238
3.86064	88.337
3.85776	88.312
3.8549	88.297
3.85203	88.3363
3.84917	88.3821
3.84631	88.4204
3.84346	88.4877
3.84062	88.4816
3.83777	88.4214
3.83494	88.4143
3.8321	88.4303
3.82927	88.4507
3.82644	88.4416
3.82362	88.4061
3.82081	88.3919
3.81799	88.4655
3.81518	88.4539
3.81238	88.4301
3.80958	88.4531
3.80678	88.455
3.80399	88.4448
3.8012	88.4562
3.79841	88.4702
3.79563	88.4165
3.79286	88.4009
3.79008	88.4677
3.78731	88.422
3.78455	88.4458
3.78179	88.5068
3.77903	88.5115
3.77628	88.4596
3.77353	88.4331
3.77079	88.4812
3.76805	88.5256
3.76531	88.4874
3.76258	88.4838
3.75985	88.5043
3.75713	88.4747
3.7544	88.4361
3.75169	88.4589
3.74898	88.4937
3.74627	88.4407
3.74356	88.3978
3.74086	88.4369
3.73816	88.4939
3.73547	88.5284
3.73278	88.5098
3.7301	88.4566
3.72741	88.4619
3.72474	88.5151
3.72206	88.5063
3.71939	88.5074
3.71673	88.4449
3.71406	88.3713
3.71141	88.4253
3.70875	88.4786
3.7061	88.5049
3.70345	88.4932
3.70081	88.4711
3.69817	88.5049
3.69553	88.5444
3.6929	88.5057
3.69027	88.4609
3.68765	88.4575
3.68503	88.4989
3.68241	88.4895
3.6798	88.4722
3.67719	88.4671
3.67458	88.466
3.67198	88.4172
3.66938	88.3875
3.66678	88.3782
3.66419	88.3446
3.66161	88.3842
3.65902	88.4218
3.65644	88.409
3.65387	88.4387
3.65129	88.4244
3.64872	88.4037
3.64616	88.4115
3.64359	88.508
3.64103	88.4452
3.63848	88.4046
3.63593	88.416
3.63338	88.3746
3.63084	88.3709
3.6283	88.4921
3.62576	88.5029
3.62322	88.3988
3.62069	88.3657
3.61817	88.3523
3.61564	88.2929
3.61312	88.3266
3.61061	88.3516
3.6081	88.33
3.60559	88.3377
3.60308	88.3447
3.60058	88.3755
3.59808	88.3623
3.59558	88.3633
3.59309	88.3944
3.59061	88.3626
3.58812	88.318
3.58564	88.3333
3.58316	88.3486
3.58069	88.2721
3.57822	88.2589
3.57575	88.2648
3.57328	88.2375
3.57082	88.3123
3.56836	88.3449
3.56591	88.3117
3.56346	88.2945
3.56101	88.3283
3.55857	88.3169
3.55613	88.2592
3.55369	88.3546
3.55126	88.3776
3.54883	88.3298
3.5464	88.3565
3.54397	88.3705
3.54155	88.2803
3.53914	88.2044
3.53672	88.1852
3.53431	88.1854
3.5319	88.2246
3.5295	88.2545
3.5271	88.2552
3.5247	88.2342
3.52231	88.2196
3.51991	88.19
3.51753	88.1539
3.51514	88.1498
3.51276	88.0729
3.51038	87.9712
3.50801	87.995
3.50563	87.9938
3.50327	87.9207
3.5009	87.9009
3.49854	87.9372
3.49618	88.0027
3.49382	87.9434
3.49147	87.864
3.48912	87.8642
3.48677	87.8439
3.48443	87.8741
3.48209	87.9752
3.47975	87.969
3.47742	87.9933
3.47509	88.0066
3.47276	87.9596
3.47044	87.9034
3.46812	87.8499
3.4658	87.8579
3.46348	87.8804
3.46117	87.877
3.45886	87.8791
3.45656	87.8978
3.45425	87.9074
3.45195	87.8943
3.44966	87.9256
3.44736	87.9434
3.44507	87.8413
3.44279	87.8426
3.4405	87.9319
3.43822	87.9069
3.43594	87.8504
3.43367	87.8212
3.43139	87.813
3.42912	87.7815
3.42686	87.7922
3.42459	87.8233
3.42233	87.8829
3.42007	87.8369
3.41782	87.7644
3.41557	87.785
3.41332	87.7743
3.41108	87.6814
3.40883	87.5959
3.40659	87.6647
3.40435	87.7732
3.40212	87.7924
3.39989	87.8081
3.39766	87.8537
3.39544	87.8469
3.39322	87.8327
3.391	87.8664
3.38878	87.9081
3.38657	87.8874
3.38436	87.8599
3.38215	87.7592
3.37994	87.748
3.37774	87.8259
3.37554	87.858
3.37335	87.8724
3.37115	87.8645
3.36896	87.8742
3.36678	87.8913
3.36459	87.8874
3.36241	87.8864
3.36023	87.9506
3.35805	87.9445
3.35588	87.8802
3.35371	87.8813
3.35154	87.9647
3.34938	87.9225
3.34721	87.8274
3.34505	87.9402
3.3429	88.0458
3.34074	87.9994
3.33859	87.9585
3.33644	87.98
3.3343	88.0817
3.33215	88.051
3.33001	88.0271
3.32788	88.0828
3.32574	88.1143
3.32361	88.0621
3.32148	88.1164
3.31936	88.0923
3.31723	88.0673
3.31511	88.0509
3.31299	88.0427
3.31088	88.0539
3.30876	87.9999
3.30665	88.0582
3.30455	88.0942
3.30244	88.0793
3.30034	88.1035
3.29824	88.1108
3.29614	88.0894
3.29405	88.0965
3.29196	88.1085
3.28987	88.1366
3.28778	88.1214
3.2857	88.0466
3.28362	87.9994
3.28154	88.0232
3.27946	87.9458
3.27739	87.9266
3.27532	87.9745
3.27325	88.0013
3.27119	88.0355
3.26913	88.0627
3.26707	88.0569
3.26501	88.0594
3.26295	87.8999
3.2609	87.8512
3.25885	87.983
3.2568	87.9801
3.25476	88.0308
3.25272	88.0876
3.25068	88.0874
3.24864	88.0426
3.24661	87.886
3.24458	87.9535
3.24255	88.0454
3.24052	88.0495
3.2385	87.932
3.23648	87.7965
3.23446	87.807
3.23244	87.9628
3.23043	88.1372
3.22841	88.116
3.2264	87.9802
3.2244	87.9107
3.22239	87.9156
3.22039	87.9333
3.21839	87.8701
3.2164	87.7952
3.2144	87.788
3.21241	87.8691
3.21042	87.9648
3.20844	87.872
3.20645	87.9069
3.20447	88.0239
3.20249	87.9961
3.20051	87.8878
3.19854	87.8341
3.19657	87.7738
3.1946	87.8419
3.19263	87.869
3.19067	87.8766
3.1887	87.8565
3.18674	87.9164
3.18479	87.9161
3.18283	87.8915
3.18088	87.8794
3.17893	87.7699
3.17698	87.7666
3.17504	87.9125
3.17309	87.8751
3.17115	87.7371
3.16921	87.7983
3.16728	87.9257
3.16534	87.9053
3.16341	87.8312
3.16148	87.8679
3.15956	87.8602
3.15763	87.8236
3.15571	87.811
3.15379	87.7803
3.15187	87.7474
3.14996	87.7927
3.14805	87.8033
3.14614	87.7884
3.14423	87.8012
3.14232	87.7929
3.14042	87.8008
3.13852	87.7767
3.13662	87.7009
3.13472	87.7095
3.13283	87.7194
3.13094	87.6807
3.12905	87.7406
3.12716	87.7086
3.12528	87.7097
3.12339	87.7347
3.12151	87.7743
3.11964	87.8592
3.11776	87.8159
3.11589	87.7458
3.11401	87.7449
3.11214	87.7441
3.11028	87.5957
3.10841	87.5385
3.10655	87.5581
3.10469	87.6413
3.10283	87.7113
3.10098	87.7644
3.09912	87.7874
3.09727	87.694
3.09542	87.6465
3.09358	87.6325
3.09173	87.6932
3.08989	87.7216
3.08805	87.7368
3.08621	87.7467
3.08437	87.6879
3.08254	87.6497
3.08071	87.631
3.07888	87.6691
3.07705	87.6899
3.07523	87.5955
3.0734	87.4741
3.07158	87.5413
3.06977	87.599
3.06795	87.5518
3.06613	87.5206
3.06432	87.557
3.06251	87.4865
3.0607	87.4501
3.0589	87.5098
3.0571	87.6513
3.05529	87.7516
3.05349	87.6978
3.0517	87.6089
3.0499	87.5667
3.04811	87.5367
3.04632	87.5499
3.04453	87.5893
3.04274	87.548
3.04096	87.5284
3.03918	87.5828
3.0374	87.5552
3.03562	87.4966
3.03384	87.4577
3.03207	87.4937
3.03029	87.5934
3.02852	87.6685
3.02676	87.6186
3.02499	87.5021
3.02323	87.4481
3.02146	87.4378
3.0197	87.4675
3.01795	87.5536
3.01619	87.6124
3.01444	87.5654
3.01269	87.4992
3.01094	87.5119
3.00919	87.5968
3.00744	87.6295
3.0057	87.551
3.00396	87.4854
3.00222	87.5015
3.00048	87.5494
2.99875	87.5735
2.99701	87.6455
2.99528	87.6318
2.99355	87.4858
2.99183	87.4284
2.9901	87.5168
2.98838	87.5552
2.98666	87.5106
2.98494	87.4608
2.98322	87.5282
2.9815	87.6073
2.97979	87.5999
2.97808	87.5061
2.97637	87.3959
2.97466	87.3905
2.97295	87.4226
2.97125	87.4391
2.96955	87.5035
2.96785	87.5095
2.96615	87.4585
2.96446	87.3788
2.96276	87.313
2.96107	87.3648
2.95938	87.5337
2.95769	87.5577
2.95601	87.5273
2.95432	87.4463
2.95264	87.3927
2.95096	87.4519
2.94928	87.4873
2.9476	87.3694
2.94593	87.3535
2.94425	87.3955
2.94258	87.3833
2.94092	87.4072
2.93925	87.4365
2.93758	87.4259
2.93592	87.4292
2.93426	87.3814
2.9326	87.3686
2.93094	87.4547
2.92928	87.507
2.92763	87.4884
2.92598	87.4394
2.92433	87.4909
2.92268	87.4473
2.92103	87.397
2.91939	87.4941
2.91775	87.4594
2.9161	87.4396
2.91447	87.4844
2.91283	87.4405
2.91119	87.4026
2.90956	87.5211
2.90793	87.5846
2.9063	87.473
2.90467	87.3692
2.90304	87.3344
2.90142	87.4598
2.89979	87.5359
2.89817	87.3764
2.89656	87.3106
2.89494	87.4105
2.89332	87.4644
2.89171	87.5023
2.8901	87.5614
2.88849	87.559
2.88688	87.4722
2.88527	87.3263
2.88367	87.3491
2.88206	87.4386
2.88046	87.4661
2.87886	87.4587
2.87727	87.4679
2.87567	87.3539
2.87408	87.3688
2.87248	87.5708
2.87089	87.6894
2.8693	87.6899
2.86772	87.5605
2.86613	87.4713
2.86455	87.4673
2.86297	87.5516
2.86139	87.6369
2.85981	87.6162
2.85823	87.6267
2.85666	87.5773
2.85508	87.4748
2.85351	87.3108
2.85194	87.2461
2.85038	87.3811
2.84881	87.451
2.84724	87.5082
2.84568	87.5602
2.84412	87.6034
2.84256	87.5888
2.841	87.5145
2.83945	87.5284
2.83789	87.5309
2.83634	87.4413
2.83479	87.367
2.83324	87.3564
2.83169	87.4308
2.83015	87.4542
2.82861	87.4823
2.82706	87.6428
2.82552	87.4724
2.82398	87.3108
2.82245	87.3816
2.82091	87.4557
2.81938	87.4817
2.81784	87.4965
2.81631	87.4705
2.81479	87.4602
2.81326	87.4679
2.81173	87.3501
2.81021	87.2893
2.80869	87.3501
2.80716	87.3803
2.80565	87.3534
2.80413	87.3331
2.80261	87.3468
2.8011	87.3923
2.79959	87.5121
2.79808	87.5676
2.79657	87.5596
2.79506	87.5502
2.79355	87.2496
2.79205	87.3364
2.79055	87.7825
2.78904	87.8031
2.78754	87.8106
2.78605	87.4771
2.78455	87.2753
2.78306	87.2858
2.78156	87.3114
2.78007	87.4795
2.77858	87.6798
2.77709	87.5603
2.77561	87.0307
2.77412	87.0495
2.77264	87.2062
2.77116	87.1774
2.76968	87.3599
2.7682	87.5308
2.76672	87.4904
2.76524	87.3425
2.76377	87.2641
2.7623	87.1826
2.76083	87.272
2.75936	87.4234
2.75789	87.4319
2.75642	87.5783
2.75496	87.6906
2.7535	87.6234
2.75203	87.4781
2.75057	87.3881
2.74912	87.4078
2.74766	87.434
2.7462	87.3408
2.74475	87.4226
2.7433	87.5663
2.74185	87.7199
2.7404	87.8186
2.73895	87.7954
2.7375	87.6024
2.73606	87.5852
2.73462	87.6301
2.73318	87.7085
2.73174	87.7584
2.7303	87.8035
2.72886	87.698
2.72742	87.6787
2.72599	87.8981
2.72456	88.1094
2.72313	87.9514
2.7217	87.8989
2.72027	88.1375
2.71884	88.0617
2.71742	87.8879
2.71599	87.7967
2.71457	87.8587
2.71315	87.9782
2.71173	88.12
2.71032	88.0796
2.7089	87.9875
2.70748	87.8723
2.70607	87.819
2.70466	87.8967
2.70325	88.0374
2.70184	88.1457
2.70043	88.1072
2.69903	88.0127
2.69762	88.1159
2.69622	88.3213
2.69482	88.4942
2.69342	88.462
2.69202	88.2448
2.69062	88.1927
2.68923	88.1302
2.68783	88.1607
2.68644	88.2288
2.68505	88.2127
2.68366	88.248
2.68227	88.3183
2.68089	88.2714
2.6795	88.4389
2.67812	88.5717
2.67673	88.6671
2.67535	88.575
2.67397	88.3659
2.6726	88.3664
2.67122	88.6867
2.66984	88.7703
2.66847	88.5474
2.6671	88.6038
2.66572	88.6894
2.66435	88.4847
2.66299	88.2736
2.66162	88.3169
2.66025	88.32
2.65889	88.2711
2.65753	88.2528
2.65616	88.3404
2.65481	88.3056
2.65345	88.3184
2.65209	88.3691
2.65073	88.2089
2.64938	88.1293
2.64803	88.1658
2.64667	88.2376
2.64532	88.246
2.64397	88.1778
2.64263	88.2718
2.64128	88.2215
2.63994	88.2079
2.63859	88.3033
2.63725	88.3962
2.63591	88.334
2.63457	88.2188
2.63323	88.1568
2.6319	88.2493
2.63056	88.3528
2.62923	88.246
2.62789	88.2136
2.62656	88.3359
2.62523	88.2171
2.6239	88.0503
2.62258	88.1098
2.62125	88.3771
2.61993	88.4664
2.6186	88.3859
2.61728	88.4804
2.61596	88.3586
2.61464	88.2114
2.61332	88.262
2.61201	88.3125
2.61069	88.3244
2.60938	88.2067
2.60807	88.0963
2.60675	88.2834
2.60544	88.4441
2.60414	88.3782
2.60283	88.4429
2.60152	88.4268
2.60022	88.3893
2.59891	88.3032
2.59761	88.2009
2.59631	88.5089
2.59501	88.9025
2.59371	88.6589
2.59242	88.3101
2.59112	88.2076
2.58983	88.1919
2.58853	88.2317
2.58724	88.3581
2.58595	88.3773
2.58466	88.3587
2.58338	88.3146
2.58209	88.3046
2.5808	88.3583
2.57952	88.3122
2.57824	88.3574
2.57695	88.4406
2.57567	88.3847
2.5744	88.3365
2.57312	88.3276
2.57184	88.2056
2.57057	88.3013
2.56929	88.2625
2.56802	88.0626
2.56675	88.1022
2.56548	88.2224
2.56421	88.305
2.56294	88.3872
2.56168	88.383
2.56041	88.3287
2.55915	88.2602
2.55789	88.2364
2.55662	88.2922
2.55536	88.2184
2.5541	88.1922
2.55285	88.2294
2.55159	88.2101
2.55034	88.1568
2.54908	88.2333
2.54783	88.3159
2.54658	88.267
2.54533	88.2837
2.54408	88.2859
2.54283	88.2123
2.54159	88.1616
2.54034	88.1225
2.5391	88.0303
2.53785	88.1418
2.53661	88.1281
2.53537	88.0032
2.53413	88.1374
2.53289	88.2546
2.53166	88.1818
2.53042	88.1338
2.52919	88.1965
2.52795	88.1737
2.52672	88.1805
2.52549	88.2564
2.52426	88.1191
2.52303	88.0538
2.52181	88.0814
2.52058	88.0639
2.51936	88.1476
2.51813	88.1882
2.51691	88.2314
2.51569	88.255
2.51447	88.1622
2.51325	88.11
2.51203	88.0872
2.51082	88.0594
2.5096	88.0486
2.50839	88.0863
2.50717	88.1611
2.50596	88.1367
2.50475	88.0333
2.50354	88.1194
2.50233	88.1588
2.50113	88.0495
2.49992	88.0917
2.49872	88.1534
2.49751	88.1617
2.49631	88.2203
2.49511	88.242
2.49391	88.1316
2.49271	88.0715
2.49151	87.9985
2.49031	88.0273
2.48912	87.9719
2.48792	87.9417
2.48673	87.9897
2.48554	88.0884
2.48435	88.078
2.48316	87.963
2.48197	88.0026
2.48078	88.0838
2.4796	88.0989
2.47841	88.1284
2.47723	88.1871
2.47604	88.255
2.47486	88.2273
2.47368	88.0296
2.4725	87.9767
2.47132	87.9929
2.47014	88.0869
2.46897	88.1613
2.46779	88.1703
2.46662	88.1224
2.46545	88.0786
2.46427	88.0747
2.4631	88.0984
2.46193	88.033
2.46077	87.9691
2.4596	87.9746
2.45843	87.9376
2.45727	87.9638
2.4561	88.1297
2.45494	88.0743
2.45378	87.8557
2.45262	87.8332
2.45146	87.9604
2.4503	87.9912
2.44914	88.082
2.44799	88.2292
2.44683	88.1425
2.44568	88.1536
2.44452	88.1797
2.44337	87.9819
2.44222	87.9334
2.44107	87.9967
2.43992	88.0793
2.43877	88.145
2.43763	88.1377
2.43648	88.0449
2.43534	88.2126
2.43419	88.2871
2.43305	88.1981
2.43191	87.975
2.43077	87.9792
2.42963	88.0619
2.42849	87.9875
2.42736	87.9238
2.42622	88.0706
2.42509	88.1274
2.42395	87.9873
2.42282	87.864
2.42169	88.0488
2.42056	88.2073
2.41943	88.1688
2.4183	87.9263
2.41717	87.9526
2.41605	88.1423
2.41492	88.1499
2.4138	88.0277
2.41267	87.9612
2.41155	88.0015
2.41043	87.9372
2.40931	87.9194
2.40819	87.9751
2.40707	88.0776
2.40595	88.1419
2.40484	88.2087
2.40372	88.1588
2.40261	88.0468
2.4015	88.0034
2.40039	87.9978
2.39928	87.9756
2.39817	87.9901
2.39706	88.1686
2.39595	88.1664
2.39484	88.0757
2.39374	87.9138
2.39263	87.8252
2.39153	87.8641
2.39043	88.0103
2.38932	88.1429
2.38822	88.1906
2.38712	88.2259
2.38603	88.1224
2.38493	88.0175
2.38383	88.1245
2.38274	88.1229
2.38164	87.9562
2.38055	87.8965
2.37946	88.0794
2.37836	88.146
2.37727	88.0727
2.37618	88.0222
2.3751	87.8855
2.37401	87.917
2.37292	88.1004
2.37184	88.0726
2.37075	88.067
2.36967	88.1008
2.36859	88.0383
2.3675	88.0137
2.36642	88.024
2.36534	88.0702
2.36427	88.15
2.36319	88.145
2.36211	88.0593
2.36104	88.0592
2.35996	88.0346
2.35889	87.9729
2.35781	88.0226
2.35674	87.9969
2.35567	87.9799
2.3546	87.9915
2.35353	88.0016
2.35247	87.9652
2.3514	87.9571
2.35033	87.9212
2.34927	87.9627
2.3482	88.0065
2.34714	88.0255
2.34608	87.9272
2.34502	87.9868
2.34396	88.0404
2.3429	87.9893
2.34184	87.9967
2.34078	87.9882
2.33973	88.1023
2.33867	88.0384
2.33762	87.7674
2.33656	87.7099
2.33551	87.9038
2.33446	87.9959
2.33341	87.901
2.33236	87.9077
2.33131	87.9387
2.33026	87.8904
2.32922	87.867
2.32817	87.8903
2.32712	87.9722
2.32608	88.0942
2.32504	88.0437
2.324	87.9304
2.32295	87.9797
2.32191	88.0856
2.32087	88.0879
2.31984	88.0285
2.3188	87.9683
2.31776	87.8293
2.31673	87.8459
2.31569	87.8877
2.31466	87.8982
2.31362	87.933
2.31259	87.8385
2.31156	87.9772
2.31053	88.0626
2.3095	87.8747
2.30847	87.8211
2.30745	87.9282
2.30642	87.9462
2.3054	87.9569
2.30437	87.9134
2.30335	87.9476
2.30232	87.987
2.3013	88.0102
2.30028	87.9137
2.29926	87.8511
2.29824	87.9237
2.29722	87.9758
2.29621	87.9589
2.29519	88.0459
2.29417	88.1306
2.29316	88.0252
2.29215	87.8875
2.29113	88.0035
2.29012	88.0566
2.28911	87.9987
2.2881	87.9162
2.28709	87.9197
2.28608	87.9461
2.28507	87.8634
2.28407	87.875
2.28306	87.9117
2.28206	87.9681
2.28105	87.8829
2.28005	87.5865
2.27905	87.6253
2.27805	87.8224
2.27705	87.977
2.27605	88.0377
2.27505	87.945
2.27405	87.8395
2.27305	87.8387
2.27206	88.0504
2.27106	88.0218
2.27007	87.9622
2.26907	88.0003
2.26808	87.9069
2.26709	87.7262
2.2661	87.7267
2.26511	87.8526
2.26412	87.8638
2.26313	87.9795
2.26214	88.0563
2.26116	87.8868
2.26017	87.8904
2.25919	87.9515
2.2582	87.8467
2.25722	87.9207
2.25624	88.0737
2.25526	88.0388
2.25428	87.9947
2.2533	87.9844
2.25232	87.9469
2.25134	87.8377
2.25036	87.8692
2.24939	87.8398
2.24841	87.7721
2.24744	87.9183
2.24646	87.86
2.24549	87.7492
2.24452	87.7606
2.24355	87.9525
2.24257	88.0118
2.24161	87.921
2.24064	87.9265
2.23967	87.9078
2.2387	87.8653
2.23774	87.952
2.23677	87.9083
2.23581	87.9022
2.23484	87.9743
2.23388	87.9992
2.23292	87.8352
2.23196	87.672
2.231	87.7925
2.23004	87.9249
2.22908	87.9253
2.22812	87.9243
2.22716	87.9024
2.22621	87.9442
2.22525	87.9693
2.2243	87.8523
2.22334	87.6997
2.22239	87.7083
2.22144	87.8406
2.22049	87.957
2.21953	87.9139
2.21859	87.8535
2.21764	87.8606
2.21669	87.8175
2.21574	87.7445
2.21479	87.8392
2.21385	88.0193
2.2129	88.0248
2.21196	87.8068
2.21102	87.7361
2.21007	87.9004
2.20913	87.8983
2.20819	87.8639
2.20725	87.8026
2.20631	87.6961
2.20537	87.7055
2.20444	87.8099
2.2035	87.7854
2.20256	87.8291
2.20163	87.8559
2.20069	87.8145
2.19976	87.7992
2.19883	87.5851
2.19789	87.6012
2.19696	87.7026
2.19603	87.6814
2.1951	87.7173
2.19417	87.8703
2.19325	87.7801
2.19232	87.7553
2.19139	87.9175
2.19047	87.8824
2.18954	87.8524
2.18862	87.8168
2.18769	87.7116
2.18677	87.6603
2.18585	87.7502
2.18493	87.8328
2.18401	87.848
2.18309	87.8935
2.18217	87.8413
2.18125	87.6952
2.18033	87.6662
2.17942	87.7999
2.1785	87.9403
2.17759	87.8767
2.17667	87.8066
2.17576	87.8896
2.17485	87.8091
2.17393	87.622
2.17302	87.7664
2.17211	87.8251
2.1712	87.6408
2.17029	87.5801
2.16939	87.7028
2.16848	87.6659
2.16757	87.607
2.16667	87.5408
2.16576	87.6434
2.16486	87.6613
2.16395	87.7145
2.16305	87.8215
2.16215	87.9144
2.16125	87.8176
2.16035	87.67
2.15945	87.7269
2.15855	87.8551
2.15765	87.903
2.15675	87.9574
2.15586	87.9448
2.15496	87.9042
2.15406	87.8457
2.15317	87.8077
2.15228	87.9238
2.15138	87.7525
2.15049	87.5689
2.1496	87.5765
2.14871	87.6985
2.14782	87.7219
2.14693	87.6769
2.14604	87.5983
2.14515	87.6267
2.14427	87.7793
2.14338	88.0508
2.14249	88.1183
2.14161	87.8948
2.14072	87.9134
2.13984	87.8366
2.13896	87.569
2.13808	87.5735
2.13719	87.7145
2.13631	87.893
2.13543	87.8067
2.13455	87.5718
2.13368	87.5934
2.1328	87.8172
2.13192	87.6889
2.13105	87.5271
2.13017	87.798
2.1293	88.0882
2.12842	87.7781
2.12755	87.4892
2.12668	87.5956
2.1258	87.8168
2.12493	87.7558
2.12406	87.6509
2.12319	87.8411
2.12232	87.9961
2.12145	87.9522
2.12059	87.8476
2.11972	87.6427
2.11885	87.6753
2.11799	87.6381
2.11712	87.6137
2.11626	87.6454
2.1154	87.6738
2.11453	87.7781
2.11367	87.5905
2.11281	87.5253
2.11195	87.7104
2.11109	87.8135
2.11023	87.7903
2.10937	87.6244
2.10851	87.734
2.10766	87.6546
2.1068	87.5191
2.10594	87.5786
2.10509	87.7158
2.10423	87.852
2.10338	87.6775
2.10253	87.6498
2.10168	87.7422
2.10082	87.8182
2.09997	87.7805
2.09912	87.6626
2.09827	87.844
2.09742	87.8603
2.09658	87.5485
2.09573	87.4315
2.09488	87.6972
2.09404	87.8341
2.09319	87.8839
2.09235	87.7686
2.0915	87.581
2.09066	87.7622
2.08982	87.8096
2.08897	87.6581
2.08813	87.6981
2.08729	87.6294
2.08645	87.697
2.08561	87.7661
2.08477	87.7097
2.08394	87.5973
2.0831	87.6273
2.08226	87.8571
2.08143	87.764
2.08059	87.7368
2.07976	87.6707
2.07892	87.5403
2.07809	87.6683
2.07726	87.7219
2.07643	87.7321
2.07559	87.6105
2.07476	87.7395
2.07393	87.9125
2.0731	87.9397
2.07228	87.9757
2.07145	87.8355
2.07062	87.5586
2.06979	87.493
2.06897	87.7521
2.06814	87.8804
2.06732	87.8466
2.06649	87.8879
2.06567	87.7974
2.06485	87.5587
2.06403	87.3343
2.0632	87.2197
2.06238	87.5169
2.06156	88.1644
2.06074	88.0881
2.05993	87.6704
2.05911	87.4406
2.05829	87.3969
2.05747	87.6319
2.05666	87.7629
2.05584	87.6875
2.05503	87.5758
2.05421	87.5567
2.0534	87.7196
2.05259	87.73
2.05177	87.3671
2.05096	87.369
2.05015	87.6971
2.04934	87.8376
2.04853	87.7217
2.04772	87.5837
2.04691	87.5209
2.04611	87.6361
2.0453	87.9187
2.04449	87.8136
2.04369	87.3952
2.04288	87.3808
2.04208	87.6564
2.04127	87.7233
2.04047	87.5485
2.03967	87.5548
2.03886	87.747
2.03806	87.6548
2.03726	87.4828
2.03646	87.6919
2.03566	87.9465
2.03486	87.6571
2.03407	87.4573
2.03327	87.4602
2.03247	87.7112
2.03167	87.9323
2.03088	87.6202
2.03008	87.3694
2.02929	87.6247
2.0285	87.8261
2.0277	87.687
2.02691	87.6035
2.02612	87.6006
2.02533	87.5679
2.02453	87.394
2.02374	87.4252
2.02295	87.6539
2.02217	87.8086
2.02138	87.7611
2.02059	87.7127
2.0198	87.912
2.01902	87.7672
2.01823	87.6615
2.01744	87.8234
2.01666	87.7174
2.01588	87.4869
2.01509	87.3202
2.01431	87.3922
2.01353	87.5058
2.01275	87.4789
2.01196	87.3607
2.01118	87.5688
2.0104	87.8583
2.00963	87.9776
2.00885	87.7288
2.00807	87.582
2.00729	87.5248
2.00651	87.3335
2.00574	87.4244
2.00496	87.5464
2.00419	87.517
2.00341	87.5511
2.00264	87.6316
2.00187	87.7059
2.00109	87.5892
2.00032	87.2017
