Name: Calcite CaCO_3
Type: Mineral
Class: Carbonates
Subclass: 
Particle Size: 0-45um
Sample No.: C-3E
Owner: JPL
Wavelength range: IR
Origin: 
Collected by JPL
Description: 





Measurement: Hemispherical reflectance
First Column: X
Second Column: Y
X Units:  Wavelength (micrometers)
Y Units:  Reflectance (percent)
First X Value: 15.3853
Last X Value: 2.00032
Number of X Values: 2256
Additional information: c03ea.txt
 
15.3853	35.8077
15.3397	36.1117
15.2945	36.7246
15.2495	37.2242
15.2048	37.8384
15.1603	38.6921
15.1161	39.2412
15.0722	39.8309
15.0285	40.3163
14.9851	40.5145
14.9419	40.8797
14.8989	41.5448
14.8563	42.1612
14.8138	42.521
14.7716	42.6864
14.7296	42.8192
14.6879	42.717
14.6464	42.5851
14.6052	42.4398
14.5641	41.885
14.5233	40.9674
14.4828	39.6015
14.4424	37.574
14.4023	35.752
14.3624	34.3871
14.3227	31.9015
14.2833	28.8877
14.244	25.4482
14.205	20.6929
14.1662	15.763
14.1276	10.7736
14.0892	6.29148
14.051	3.49725
14.0131	2.0442
13.9753	1.75933
13.9377	4.28091
13.9004	9.58986
13.8632	16.0473
13.8262	22.1793
13.7895	27.2347
13.7529	31.5673
13.7165	35.324
13.6803	38.4003
13.6443	40.6512
13.6085	42.592
13.5729	44.56
13.5374	46.1593
13.5022	47.3569
13.4671	48.152
13.4322	48.6696
13.3975	49.0337
13.363	49.4009
13.3286	49.493
13.2944	49.2755
13.2604	48.9426
13.2266	48.3599
13.193	47.4535
13.1595	46.5824
13.1262	45.8781
13.093	44.87
13.06	43.7718
13.0272	42.6657
12.9946	41.6751
12.9621	40.9453
12.9298	40.4408
12.8976	40.2528
12.8656	40.2535
12.8337	40.1637
12.8021	40.1723
12.7705	40.2597
12.7391	40.4824
12.7079	40.9187
12.6769	41.5107
12.6459	42.1811
12.6152	42.7625
12.5845	43.1781
12.5541	43.43
12.5238	43.5665
12.4936	43.9078
12.4635	44.5148
12.4337	45.1011
12.4039	45.5193
12.3743	45.6671
12.3448	45.687
12.3155	45.7218
12.2863	45.7442
12.2573	46.0752
12.2284	46.6945
12.1996	47.2728
12.171	47.6935
12.1425	47.9934
12.1141	48.0513
12.0859	47.9057
12.0578	47.7214
12.0298	47.4194
12.0019	46.9824
11.9742	46.3383
11.9466	45.436
11.9192	44.1763
11.8918	42.3185
11.8646	39.1056
11.8375	32.7099
11.8106	22.0271
11.7837	17.5444
11.757	25.3721
11.7304	31.4142
11.7039	31.7923
11.6776	29.9535
11.6513	27.4458
11.6252	24.5554
11.5992	21.3988
11.5733	17.9951
11.5475	14.4545
11.5219	10.9824
11.4963	7.97437
11.4709	6.27047
11.4455	5.95814
11.4203	6.12684
11.3952	6.89751
11.3702	7.67346
11.3454	8.01119
11.3206	8.58658
11.2959	11.1773
11.2714	17.2325
11.2469	23.963
11.2226	28.006
11.1983	30.8102
11.1742	33.3083
11.1502	35.5915
11.1263	37.4858
11.1024	38.9383
11.0787	40.0338
11.0551	41.032
11.0316	41.9716
11.0081	42.8839
10.9848	43.6567
10.9616	44.2132
10.9385	44.5639
10.9154	44.6385
10.8925	44.5695
10.8697	44.3704
10.8469	43.9128
10.8243	43.1193
10.8017	42.1706
10.7793	41.308
10.7569	40.4561
10.7346	39.585
10.7125	38.8334
10.6904	38.4466
10.6684	38.3863
10.6465	38.4534
10.6247	38.5657
10.6029	38.6016
10.5813	38.5006
10.5597	38.3643
10.5383	38.4758
10.5169	38.9306
10.4956	39.5294
10.4744	40.2396
10.4533	40.9362
10.4323	41.666
10.4113	42.2124
10.3904	42.4473
10.3697	42.6465
10.349	42.7468
10.3284	42.6886
10.3078	42.6143
10.2874	42.3588
10.267	41.7072
10.2467	40.6786
10.2265	39.7312
10.2064	39.3777
10.1863	39.7509
10.1663	40.1345
10.1464	40.0728
10.1266	39.7891
10.1069	39.1661
10.0872	38.4359
10.0676	37.8189
10.0481	37.4227
10.0287	37.2447
10.0093	36.8885
9.99005	36.5699
9.97084	36.3539
9.95169	36.0754
9.93263	35.6667
9.91364	35.2352
9.89472	34.883
9.87587	34.6097
9.8571	34.5033
9.83839	34.6901
9.81976	35.074
9.80119	35.4778
9.78271	35.7759
9.76428	35.9848
9.74592	36.2207
9.72764	36.7766
9.70943	37.6683
9.69128	38.7617
9.6732	39.8401
9.65518	40.6941
9.63724	41.273
9.61935	41.489
9.60155	41.5935
9.5838	41.8599
9.56611	42.0773
9.5485	42.5068
9.53094	43.0189
9.51345	43.2375
9.49604	43.3272
9.47867	43.3662
9.46137	43.3658
9.44414	43.1672
9.42697	42.9095
9.40986	42.5727
9.39281	41.7871
9.37583	40.8347
9.35891	40.5803
9.34204	40.6845
9.32524	40.8672
9.3085	41.187
9.29182	41.613
9.27519	41.4946
9.25863	40.302
9.24213	38.1866
9.22568	37.3498
9.2093	38.0604
9.19297	39.1417
9.17669	40.6417
9.16048	41.7878
9.14433	42.4933
9.12823	42.902
9.11218	43.1872
9.0962	43.2296
9.08027	43.1936
9.06439	43.1332
9.04858	43.0911
9.03281	43.0586
9.0171	43.07
9.00145	42.9327
8.98585	42.797
8.9703	42.6895
8.9548	42.3521
8.93937	41.9113
8.92398	41.5747
8.90865	41.3137
8.89337	41.0733
8.87814	40.7529
8.86296	40.4052
8.84784	40.1447
8.83277	39.7414
8.81774	39.0255
8.80277	38.2968
8.78786	37.5607
8.77298	36.7521
8.75816	35.8291
8.7434	34.9309
8.72868	33.8882
8.714	32.7242
8.69938	31.7369
8.68481	30.864
8.67029	29.7882
8.65581	28.5782
8.64139	27.2369
8.62701	25.7117
8.61268	24.4861
8.5984	23.747
8.58416	23.2307
8.56997	23.1554
8.55583	23.4958
8.54174	23.7841
8.52769	23.7341
8.51368	23.4435
8.49973	23.0123
8.48582	22.6696
8.47195	22.6257
8.45813	22.8435
8.44436	23.2017
8.43062	23.6334
8.41693	23.986
8.4033	24.448
8.3897	25.08
8.37614	25.7328
8.36264	26.2552
8.34917	26.803
8.33574	27.3852
8.32236	27.6761
8.30903	27.8059
8.29573	28.1609
8.28248	28.4265
8.26927	28.5891
8.2561	28.7343
8.24298	28.8304
8.2299	28.9546
8.21685	29.0909
8.20385	29.0997
8.19089	28.9238
8.17797	28.6862
8.16509	28.5084
8.15225	28.2629
8.13946	28.0274
8.1267	27.8432
8.11398	27.5497
8.10131	27.1384
8.08867	26.7308
8.07606	26.3381
8.0635	26.1136
8.05099	26.1753
8.0385	26.4807
8.02606	26.7335
8.01366	26.898
8.00129	26.9901
7.98896	27.1028
7.97667	27.0381
7.96442	26.7682
7.9522	26.3644
7.94002	25.7868
7.92788	25.17
7.91578	24.74
7.90371	24.4318
7.89168	24.2932
7.87969	24.4043
7.86773	24.626
7.85581	24.6534
7.84392	24.5091
7.83207	24.1274
7.82026	23.5786
7.80849	23.1507
7.79674	22.9622
7.78503	22.955
7.77337	22.8495
7.76173	22.6295
7.75012	22.4517
7.73856	22.3325
7.72703	21.9637
7.71553	21.4354
7.70406	20.9804
7.69263	20.4896
7.68123	19.8719
7.66987	19.2229
7.65855	18.5761
7.64725	17.9313
7.63598	17.3938
7.62475	16.9149
7.61356	16.4691
7.60239	16.1385
7.59126	15.8888
7.58017	15.6341
7.5691	15.3963
7.55806	15.1971
7.54707	15.1024
7.5361	14.992
7.52516	14.8508
7.51425	14.6976
7.50338	14.5627
7.49253	14.4854
7.48172	14.2792
7.47094	13.9257
7.46019	13.6359
7.44947	13.3341
7.43879	13.0835
7.42813	12.7878
7.4175	12.5106
7.4069	12.321
7.39634	12.0675
7.3858	11.6949
7.37529	11.4207
7.36482	11.0852
7.35437	10.6436
7.34396	10.2252
7.33357	9.88945
7.32321	9.47482
7.31288	9.06425
7.30258	8.71391
7.29231	8.31018
7.28207	8.06582
7.27185	7.89191
7.26167	7.67534
7.25152	7.50695
7.24139	7.35552
7.23129	7.25267
7.22122	7.171
7.21117	7.09841
7.20116	7.05391
7.19117	7.03811
7.18121	7.10923
7.17128	7.23816
7.16137	7.29571
7.1515	7.31861
7.14164	7.45011
7.13182	7.71647
7.12203	7.99721
7.11225	8.2742
7.10251	8.72759
7.0928	9.11136
7.08311	9.17847
7.07344	9.18298
7.06381	9.2329
7.0542	9.24909
7.04461	9.25522
7.03506	9.2126
7.02552	9.18688
7.01601	9.18651
7.00653	9.16912
6.99708	9.02817
6.98765	8.93651
6.97824	8.95969
6.96886	9.0366
6.95951	9.0846
6.95018	8.96267
6.94087	8.89448
6.9316	8.90073
6.92234	8.93979
6.91311	9.10046
6.90391	9.25436
6.89473	9.32125
6.88557	9.39869
6.87644	9.59802
6.86733	9.86619
6.85824	9.94835
6.84918	9.92877
6.84015	9.98904
6.83114	10.1124
6.82215	10.2971
6.81319	10.3921
6.80424	10.3743
6.79532	10.4966
6.78643	10.6981
6.77756	10.7878
6.76871	10.8909
6.75989	11.0053
6.75109	11.1792
6.74231	11.3855
6.73355	11.6062
6.72482	11.9523
6.71611	12.2891
6.70742	12.4638
6.69875	12.5992
6.69011	12.8585
6.68149	13.1591
6.67289	13.2821
6.66431	13.4498
6.65576	13.6885
6.64722	14.0985
6.63871	14.6357
6.63022	14.7803
6.62175	14.8031
6.61331	15.0294
6.60488	15.3396
6.59648	15.733
6.5881	16.0838
6.57974	16.5473
6.5714	17.0863
6.56308	17.226
6.55478	17.4765
6.54651	17.7419
6.53825	17.9908
6.53001	18.356
6.5218	18.7131
6.51361	18.871
6.50544	19.286
6.49729	20.0752
6.48915	20.426
6.48104	20.3879
6.47295	20.4745
6.46488	20.4486
6.45683	20.367
6.4488	20.1
6.44079	19.5252
6.4328	18.6329
6.42482	17.5987
6.41687	16.7674
6.40894	15.4428
6.40103	13.9764
6.39314	13.0204
6.38526	12.1643
6.37741	11.3659
6.36957	10.6577
6.36176	9.81216
6.35396	9.03794
6.34618	8.27593
6.33843	7.29381
6.33069	6.34083
6.32297	5.8503
6.31527	5.34941
6.30758	4.82593
6.29992	4.57661
6.29227	4.36015
6.28465	4.25542
6.27704	4.28478
6.26945	4.34233
6.26188	4.30068
6.25432	4.19904
6.24679	4.00571
6.23927	3.82025
6.23177	3.75481
6.22429	3.68415
6.21683	3.51563
6.20938	3.4657
6.20195	3.42026
6.19454	3.32548
6.18715	3.26855
6.17978	3.22393
6.17242	3.22011
6.16508	3.24495
6.15776	3.361
6.15045	3.47486
6.14317	3.51074
6.1359	3.54026
6.12864	3.53636
6.12141	3.70427
6.11419	4.01589
6.10699	4.08082
6.0998	4.0804
6.09263	4.19018
6.08549	4.28399
6.07835	4.4161
6.07123	4.65137
6.06413	4.81691
6.05705	5.05716
6.04998	5.42962
6.04293	5.6197
6.0359	5.6984
6.02888	5.96974
6.02187	6.36418
6.01489	6.69862
6.00792	6.93
6.00096	7.16268
5.99403	7.48111
5.98711	7.80032
5.9802	8.00573
5.97331	8.23809
5.96644	8.44407
5.95958	8.57668
5.95274	8.87933
5.94591	9.29287
5.9391	9.76943
5.9323	10.0183
5.92552	10.2064
5.91876	10.4903
5.91201	10.7325
5.90528	11.0329
5.89856	11.4472
5.89186	11.6817
5.88517	11.9889
5.8785	12.1872
5.87184	12.0997
5.8652	12.1927
5.85857	12.2126
5.85196	12.1909
5.84536	12.1465
5.83878	12.1317
5.83221	12.2091
5.82566	12.3899
5.81912	12.4081
5.81259	12.2285
5.80608	12.1554
5.79959	12.0833
5.79311	12.0497
5.78665	11.9795
5.78019	11.9038
5.77376	11.9925
5.76734	12.2414
5.76093	12.1227
5.75453	11.9568
5.74815	12.1998
5.74179	12.4689
5.73543	12.7389
5.7291	13.1388
5.72277	13.5761
5.71646	14.0066
5.71017	14.4136
5.70389	14.6233
5.69762	14.9887
5.69136	15.4567
5.68513	15.8678
5.6789	16.5047
5.67268	17.2228
5.66648	17.7852
5.6603	18.5315
5.65413	19.3484
5.64797	20.0083
5.64182	20.3261
5.63569	19.9719
5.62957	19.3297
5.62347	18.4347
5.61737	17.156
5.61129	15.2317
5.60522	12.8251
5.59917	10.1798
5.59313	7.4164
5.5871	4.78955
5.58109	3.08258
5.57509	2.35482
5.5691	2.10876
5.56312	1.95456
5.55716	2.05566
5.55121	3.02822
5.54528	5.37536
5.53935	8.83175
5.53344	12.7303
5.52754	16.4531
5.52166	19.7589
5.51578	22.4362
5.50992	24.749
5.50407	26.8645
5.49823	28.7075
5.49241	30.3753
5.4866	31.9636
5.4808	33.6347
5.47501	35.0844
5.46923	36.4261
5.46347	37.6931
5.45772	38.7464
5.45198	39.9582
5.44625	41.2311
5.44054	42.3741
5.43484	43.5593
5.42914	44.938
5.42347	46.464
5.4178	47.4223
5.41214	48.1622
5.4065	49.1188
5.40087	50.108
5.39525	51.0157
5.38964	51.9212
5.38404	52.7901
5.37846	53.6272
5.37288	54.4564
5.36732	55.2305
5.36177	55.9683
5.35623	56.7841
5.35071	57.6093
5.34519	58.2156
5.33968	58.7422
5.33419	59.435
5.32871	60.1666
5.32324	60.8771
5.31778	61.5166
5.31233	62.1764
5.30689	62.7777
5.30147	63.3375
5.29605	63.9559
5.29065	64.5359
5.28525	64.8578
5.27987	65.2491
5.2745	65.5995
5.26914	65.9499
5.26379	66.3103
5.25845	66.766
5.25312	67.1807
5.24781	67.5967
5.2425	67.999
5.23721	68.3142
5.23192	68.5798
5.22665	68.8713
5.22138	69.1272
5.21613	69.5345
5.21089	69.8946
5.20566	70.1724
5.20044	70.4696
5.19522	70.6798
5.19002	70.8965
5.18483	71.1506
5.17965	71.3389
5.17448	71.5276
5.16933	71.681
5.16418	71.9209
5.15904	72.187
5.15391	72.4151
5.14879	72.6188
5.14368	72.7433
5.13859	72.7907
5.1335	72.848
5.12842	72.7979
5.12335	72.5353
5.1183	71.7908
5.11325	69.989
5.10821	66.8343
5.10318	63.3256
5.09817	62.2759
5.09316	65.4846
5.08816	69.654
5.08317	72.3631
5.07819	73.7925
5.07322	74.5221
5.06826	74.936
5.06331	75.2546
5.05837	75.4633
5.05344	75.5547
5.04852	75.5651
5.04361	75.6159
5.03871	75.6049
5.03382	75.5985
5.02894	75.5845
5.02406	75.6188
5.0192	75.6324
5.01435	75.5764
5.0095	75.5061
5.00467	75.4951
4.99984	75.5161
4.99502	75.5009
4.99021	75.431
4.98542	75.3471
4.98063	75.2949
4.97585	75.1496
4.97108	75.0206
4.96632	75.0366
4.96156	75.0324
4.95682	74.9785
4.95209	74.8802
4.94736	74.8294
4.94264	74.8122
4.93794	74.8102
4.93324	74.7912
4.92855	74.7648
4.92387	74.759
4.9192	74.8703
4.91453	74.976
4.90988	75.0326
4.90524	75.0498
4.9006	75.1349
4.89597	75.2389
4.89135	75.2838
4.88674	75.2519
4.88214	75.2805
4.87755	75.362
4.87296	75.4254
4.86839	75.4037
4.86382	75.4554
4.85926	75.583
4.85471	75.6699
4.85017	75.6643
4.84564	75.6917
4.84111	75.7733
4.8366	75.8486
4.83209	75.9015
4.82759	75.923
4.8231	75.9019
4.81862	75.9337
4.81415	75.972
4.80968	75.9447
4.80522	75.9012
4.80077	75.8985
4.79633	75.8497
4.7919	75.7987
4.78747	75.7041
4.78306	75.5839
4.77865	75.4506
4.77425	75.2325
4.76986	74.8843
4.76547	74.4286
4.7611	73.9268
4.75673	73.4605
4.75237	73.009
4.74802	72.415
4.74367	71.5896
4.73934	70.8074
4.73501	69.9627
4.73069	68.8971
4.72638	67.5467
4.72207	65.8479
4.71777	63.744
4.71348	61.4513
4.7092	59.1874
4.70493	57.0988
4.70066	55.0919
4.69641	53.3793
4.69216	52.0571
4.68791	51.0154
4.68368	50.1893
4.67945	49.6731
4.67523	49.4547
4.67102	49.4264
4.66682	49.5488
4.66262	49.8292
4.65843	50.4288
4.65425	51.4732
4.65007	52.8295
4.64591	54.4081
4.64175	56.1268
4.6376	57.9387
4.63345	59.6322
4.62932	60.9898
4.62519	62.0769
4.62106	63.0988
4.61695	64.1517
4.61284	64.9761
4.60874	65.4369
4.60465	65.7077
4.60056	65.9033
4.59648	66.2655
4.59241	66.567
4.58835	66.7294
4.58429	66.8703
4.58024	67.0051
4.5762	67.116
4.57216	67.1268
4.56814	67.1899
4.56411	67.2679
4.5601	67.2538
4.55609	67.3644
4.55209	67.4831
4.5481	67.5222
4.54411	67.5357
4.54013	67.5834
4.53616	67.551
4.5322	67.5056
4.52824	67.536
4.52429	67.637
4.52034	67.7569
4.51641	67.8429
4.51247	67.8943
4.50855	67.9869
4.50463	68.1042
4.50072	68.3471
4.49682	68.6222
4.49292	68.925
4.48903	69.3586
4.48515	69.8029
4.48127	70.2639
4.4774	70.8636
4.47354	71.4757
4.46968	71.9665
4.46584	72.2976
4.46199	72.6631
4.45815	73.0304
4.45432	73.3127
4.4505	73.6148
4.44668	74.0233
4.44287	74.4412
4.43907	74.8822
4.43527	75.3252
4.43148	75.6672
4.4277	75.8799
4.42392	76.1116
4.42015	76.3375
4.41638	76.5356
4.41262	76.7749
4.40887	76.9924
4.40513	77.0775
4.40139	77.2087
4.39765	77.3102
4.39393	77.372
4.39021	77.5387
4.38649	77.6774
4.38278	77.7335
4.37908	77.7889
4.37539	77.7168
4.3717	77.5266
4.36801	77.2674
4.36434	77.0267
4.36067	76.6768
4.357	76.2265
4.35335	75.7393
4.34969	75.4549
4.34605	75.273
4.34241	75.2179
4.33877	75.1461
4.33514	75.0189
4.33152	74.9431
4.32791	74.9398
4.3243	74.9532
4.32069	74.8976
4.3171	74.8302
4.31351	74.8253
4.30992	74.8839
4.30634	75.028
4.30277	75.2086
4.2992	75.3826
4.29564	75.4872
4.29208	75.543
4.28853	75.5252
4.28499	75.5313
4.28145	75.5809
4.27792	75.6209
4.27439	75.5502
4.27087	75.4468
4.26735	75.3169
4.26384	75.2
4.26034	75.0984
4.25684	75.0193
4.25335	74.9169
4.24986	74.789
4.24638	74.5765
4.24291	74.3067
4.23944	74.0748
4.23598	73.9241
4.23252	73.7187
4.22906	73.6362
4.22562	73.6328
4.22218	73.5333
4.21874	73.4913
4.21531	73.4371
4.21189	73.3385
4.20847	73.3148
4.20506	73.1934
4.20165	73.0193
4.19825	72.8189
4.19485	72.5435
4.19146	72.272
4.18807	72.0577
4.18469	71.8285
4.18132	71.6367
4.17795	71.3567
4.17458	71.0661
4.17123	70.7834
4.16787	70.467
4.16453	70.1919
4.16118	69.906
4.15785	69.6153
4.15451	69.2518
4.15119	68.8124
4.14787	68.3296
4.14455	67.8509
4.14124	67.3656
4.13794	66.8217
4.13464	66.2744
4.13134	65.7628
4.12805	65.1938
4.12477	64.5163
4.12149	63.893
4.11822	63.2564
4.11495	62.6944
4.11168	62.0347
4.10843	61.4281
4.10517	60.8376
4.10192	60.196
4.09868	59.5776
4.09545	58.8991
4.09221	58.208
4.08899	57.4835
4.08576	56.692
4.08255	55.879
4.07933	54.967
4.07613	54.0245
4.07292	53.063
4.06973	51.9899
4.06654	50.826
4.06335	49.7678
4.06017	48.7694
4.05699	47.5043
4.05382	45.92
4.05065	44.1434
4.04749	42.0034
4.04433	39.5076
4.04118	36.9109
4.03803	34.3139
4.03489	31.9291
4.03175	29.9315
4.02862	28.0835
4.02549	26.2335
4.02237	24.4838
4.01925	22.8232
4.01614	21.1567
4.01303	19.299
4.00993	17.2038
4.00683	15.072
4.00373	13.0493
4.00064	11.3962
3.99756	10.1323
3.99448	8.98312
3.9914	8.1113
3.98833	7.48846
3.98527	6.96788
3.98221	6.73621
3.97915	6.72652
3.9761	6.74594
3.97305	6.79114
3.97001	6.93585
3.96697	7.1969
3.96394	7.50308
3.96091	8.0724
3.95789	8.88331
3.95487	9.73191
3.95186	10.7596
3.94885	11.9993
3.94584	13.494
3.94284	15.19
3.93984	16.9232
3.93685	18.249
3.93386	18.8476
3.93088	18.9716
3.9279	19.2501
3.92493	19.7856
3.92196	20.2629
3.919	20.5427
3.91604	20.8625
3.91308	21.1393
3.91013	21.4565
3.90718	21.7407
3.90424	21.9197
3.9013	22.0331
3.89837	22.1727
3.89544	22.302
3.89252	22.3542
3.8896	22.4791
3.88668	22.6777
3.88377	22.8314
3.88086	23.0148
3.87796	23.1934
3.87506	23.2296
3.87217	23.2732
3.86928	23.4076
3.86639	23.4955
3.86351	23.5661
3.86064	23.8119
3.85776	24.0235
3.8549	24.2086
3.85203	24.4478
3.84917	24.7297
3.84631	25.0238
3.84346	25.3848
3.84062	25.922
3.83777	26.6886
3.83494	27.7508
3.8321	29.082
3.82927	30.5995
3.82644	32.1379
3.82362	33.5661
3.82081	35.0331
3.81799	36.627
3.81518	38.284
3.81238	40.0609
3.80958	41.9131
3.80678	43.927
3.80399	46.1256
3.8012	48.5982
3.79841	51.3058
3.79563	54.1321
3.79286	56.8606
3.79008	59.2261
3.78731	61.2077
3.78455	62.8233
3.78179	64.0206
3.77903	64.995
3.77628	65.8614
3.77353	66.5926
3.77079	67.2776
3.76805	67.871
3.76531	68.415
3.76258	68.9239
3.75985	69.2707
3.75713	69.4852
3.7544	69.7212
3.75169	70.0182
3.74898	70.3145
3.74627	70.5661
3.74356	70.8627
3.74086	71.2668
3.73816	71.6641
3.73547	71.9861
3.73278	72.3498
3.7301	72.6429
3.72741	72.8623
3.72474	73.0777
3.72206	73.2311
3.71939	73.421
3.71673	73.602
3.71406	73.7273
3.71141	73.8218
3.70875	73.8729
3.7061	73.9776
3.70345	74.1296
3.70081	74.1932
3.69817	74.2189
3.69553	74.3213
3.6929	74.3945
3.69027	74.3988
3.68765	74.3367
3.68503	74.3271
3.68241	74.3948
3.6798	74.3959
3.67719	74.2917
3.67458	74.222
3.67198	74.2298
3.66938	74.1773
3.66678	74.163
3.66419	74.1104
3.66161	73.9814
3.65902	73.8324
3.65644	73.6478
3.65387	73.536
3.65129	73.4679
3.64872	73.3211
3.64616	73.2211
3.64359	73.1875
3.64103	73.0418
3.63848	72.8437
3.63593	72.6527
3.63338	72.4288
3.63084	72.2859
3.6283	72.1451
3.62576	71.929
3.62322	71.73
3.62069	71.4313
3.61817	71.1758
3.61564	70.9944
3.61312	70.7345
3.61061	70.4205
3.6081	70.1084
3.60559	69.7335
3.60308	69.3051
3.60058	68.8119
3.59808	68.3192
3.59558	67.7965
3.59309	67.1008
3.59061	66.3256
3.58812	65.4677
3.58564	64.4494
3.58316	63.2718
3.58069	62.0067
3.57822	60.7639
3.57575	59.6386
3.57328	58.8498
3.57082	58.5196
3.56836	58.5365
3.56591	58.7313
3.56346	58.8119
3.56101	58.6576
3.55857	58.3386
3.55613	57.832
3.55369	57.145
3.55126	56.3109
3.54883	55.4019
3.5464	54.3723
3.54397	53.1218
3.54155	51.7425
3.53914	50.2039
3.53672	48.4104
3.53431	46.3125
3.5319	43.9885
3.5295	41.499
3.5271	38.7383
3.5247	35.7506
3.52231	32.8437
3.51991	30.3052
3.51753	28.1269
3.51514	26.3764
3.51276	25.0336
3.51038	23.9902
3.50801	23.0987
3.50563	22.3542
3.50327	21.6998
3.5009	20.9256
3.49854	20.1741
3.49618	19.4313
3.49382	18.6903
3.49147	17.9455
3.48912	17.2153
3.48677	16.5958
3.48443	16.0454
3.48209	15.6215
3.47975	15.3771
3.47742	15.3115
3.47509	15.6378
3.47276	16.531
3.47044	17.9788
3.46812	19.9292
3.4658	22.0409
3.46348	23.8059
3.46117	25.0302
3.45886	25.9257
3.45656	26.6408
3.45425	27.1848
3.45195	27.5597
3.44966	27.7155
3.44736	27.8051
3.44507	27.9629
3.44279	28.1695
3.4405	28.2269
3.43822	28.2989
3.43594	28.3503
3.43367	28.4058
3.43139	28.4545
3.42912	28.5021
3.42686	28.5194
3.42459	28.5582
3.42233	28.5675
3.42007	28.4975
3.41782	28.3677
3.41557	28.2486
3.41332	28.2106
3.41108	28.1251
3.40883	27.9919
3.40659	27.8712
3.40435	27.8316
3.40212	27.7531
3.39989	27.5386
3.39766	27.363
3.39544	27.2672
3.39322	27.093
3.391	26.951
3.38878	26.8045
3.38657	26.6154
3.38436	26.4537
3.38215	26.1188
3.37994	25.8579
3.37774	25.8168
3.37554	25.8316
3.37335	25.7462
3.37115	25.5496
3.36896	25.4582
3.36678	25.2207
3.36459	24.6793
3.36241	24.0916
3.36023	23.3984
3.35805	22.5625
3.35588	21.7474
3.35371	21.2365
3.35154	21.1362
3.34938	21.3886
3.34721	22.3213
3.34505	24.5124
3.3429	28.0205
3.34074	32.3836
3.33859	36.8544
3.33644	40.7888
3.3343	44.0452
3.33215	46.6802
3.33001	48.8733
3.32788	50.6992
3.32574	52.284
3.32361	53.6519
3.32148	54.7761
3.31936	55.7729
3.31723	56.6807
3.31511	57.4602
3.31299	58.1543
3.31088	58.8905
3.30876	59.483
3.30665	60.064
3.30455	60.6003
3.30244	61.0262
3.30034	61.5897
3.29824	62.1719
3.29614	62.5748
3.29405	62.9196
3.29196	63.2799
3.28987	63.5879
3.28778	63.929
3.2857	64.2791
3.28362	64.6276
3.28154	64.9887
3.27946	65.314
3.27739	65.6806
3.27532	65.9962
3.27325	66.3346
3.27119	66.6353
3.26913	66.8125
3.26707	66.9929
3.26501	67.2292
3.26295	67.4565
3.2609	67.6591
3.25885	67.7341
3.2568	67.9058
3.25476	68.1222
3.25272	68.265
3.25068	68.3611
3.24864	68.4524
3.24661	68.6624
3.24458	68.8827
3.24255	69.0226
3.24052	69.1208
3.2385	69.2513
3.23648	69.51
3.23446	69.6191
3.23244	69.6169
3.23043	69.7285
3.22841	69.8807
3.2264	70.0353
3.2244	70.1958
3.22239	70.3458
3.22039	70.3448
3.21839	70.3513
3.2164	70.4542
3.2144	70.5898
3.21241	70.7005
3.21042	70.8257
3.20844	70.8789
3.20645	70.9916
3.20447	71.0999
3.20249	71.1489
3.20051	71.17
3.19854	71.3093
3.19657	71.3631
3.1946	71.2551
3.19263	71.2457
3.19067	71.2617
3.1887	71.3017
3.18674	71.3606
3.18479	71.3011
3.18283	71.1684
3.18088	71.0959
3.17893	71.075
3.17698	70.9637
3.17504	70.81
3.17309	70.7361
3.17115	70.6339
3.16921	70.423
3.16728	70.1102
3.16534	69.7068
3.16341	69.3017
3.16148	68.9021
3.15956	68.5189
3.15763	68.1166
3.15571	67.7982
3.15379	67.6373
3.15187	67.6348
3.14996	67.7469
3.14805	67.7267
3.14614	67.8636
3.14423	68.0698
3.14232	68.1731
3.14042	68.3054
3.13852	68.4695
3.13662	68.5805
3.13472	68.7293
3.13283	68.8694
3.13094	69.0052
3.12905	69.1187
3.12716	69.146
3.12528	69.0418
3.12339	68.8288
3.12151	68.6449
3.11964	68.279
3.11776	67.889
3.11589	67.6209
3.11401	67.333
3.11214	67.0668
3.11028	66.944
3.10841	66.9182
3.10655	66.9663
3.10469	67.2394
3.10283	67.4716
3.10098	67.7479
3.09912	68.0979
3.09727	68.3919
3.09542	68.6272
3.09358	68.9128
3.09173	69.2794
3.08989	69.595
3.08805	69.836
3.08621	70.0224
3.08437	70.2326
3.08254	70.548
3.08071	70.8373
3.07888	70.9997
3.07705	71.179
3.07523	71.2724
3.0734	71.3435
3.07158	71.4647
3.06977	71.5404
3.06795	71.6342
3.06613	71.7303
3.06432	71.7453
3.06251	71.7998
3.0607	71.9186
3.0589	72.1213
3.0571	72.2723
3.05529	72.3158
3.05349	72.3949
3.0517	72.5335
3.0499	72.6513
3.04811	72.7296
3.04632	72.786
3.04453	72.8706
3.04274	72.9396
3.04096	72.9678
3.03918	72.9989
3.0374	73.0622
3.03562	73.103
3.03384	73.2055
3.03207	73.3548
3.03029	73.3525
3.02852	73.348
3.02676	73.4342
3.02499	73.5023
3.02323	73.6222
3.02146	73.7015
3.0197	73.7717
3.01795	73.7871
3.01619	73.7698
3.01444	73.8323
3.01269	73.9874
3.01094	74.0925
3.00919	74.1131
3.00744	74.1103
3.0057	74.1011
3.00396	74.0319
3.00222	74.0248
3.00048	74.0843
2.99875	74.1507
2.99701	74.2423
2.99528	74.2483
2.99355	74.1405
2.99183	74.1062
2.9901	74.0773
2.98838	74.0866
2.98666	74.1572
2.98494	74.106
2.98322	74.0592
2.9815	74.1242
2.97979	74.1949
2.97808	74.1867
2.97637	74.0948
2.97466	74.0721
2.97295	74.142
2.97125	74.1052
2.96955	73.9737
2.96785	73.9495
2.96615	74.01
2.96446	74.0389
2.96276	74.0516
2.96107	74.1061
2.95938	74.2019
2.95769	74.2764
2.95601	74.35
2.95432	74.4563
2.95264	74.3822
2.95096	74.296
2.94928	74.365
2.9476	74.4671
2.94593	74.5054
2.94425	74.4714
2.94258	74.5158
2.94092	74.6646
2.93925	74.7687
2.93758	74.7892
2.93592	74.8266
2.93426	74.9284
2.9326	75.0219
2.93094	75.1297
2.92928	75.0865
2.92763	75.0654
2.92598	75.2396
2.92433	75.3208
2.92268	75.2518
2.92103	75.2462
2.91939	75.3225
2.91775	75.3857
2.9161	75.4298
2.91447	75.5356
2.91283	75.6258
2.91119	75.7309
2.90956	75.7168
2.90793	75.6952
2.9063	75.716
2.90467	75.7556
2.90304	75.737
2.90142	75.7493
2.89979	75.7969
2.89817	75.9203
2.89656	76.0125
2.89494	76.0237
2.89332	76.049
2.89171	76.1227
2.8901	76.15
2.88849	76.2042
2.88688	76.2167
2.88527	76.1868
2.88367	76.1604
2.88206	76.2706
2.88046	76.4511
2.87886	76.4026
2.87727	76.4286
2.87567	76.5679
2.87408	76.5873
2.87248	76.6978
2.87089	76.761
2.8693	76.7965
2.86772	76.8336
2.86613	76.8155
2.86455	76.8616
2.86297	76.9055
2.86139	76.9702
2.85981	77.0904
2.85823	77.1369
2.85666	77.0909
2.85508	77.0972
2.85351	77.1524
2.85194	77.2339
2.85038	77.3654
2.84881	77.3935
2.84724	77.2652
2.84568	77.1789
2.84412	77.2552
2.84256	77.2875
2.841	77.2968
2.83945	77.3623
2.83789	77.3866
2.83634	77.3264
2.83479	77.3126
2.83324	77.3083
2.83169	77.1871
2.83015	77.0122
2.82861	76.9398
2.82706	76.9002
2.82552	76.8659
2.82398	76.7308
2.82245	76.7157
2.82091	76.6277
2.81938	76.4639
2.81784	76.3551
2.81631	76.1698
2.81479	75.9238
2.81326	75.7595
2.81173	75.5102
2.81021	75.321
2.80869	75.2207
2.80716	74.9036
2.80565	74.756
2.80413	74.8258
2.80261	74.5679
2.8011	73.9079
2.79959	73.3551
2.79808	72.9023
2.79657	72.2478
2.79506	71.5684
2.79355	70.8462
2.79205	70.1788
2.79055	69.7892
2.78904	69.7258
2.78754	69.9949
2.78605	70.1959
2.78455	70.4074
2.78306	70.9832
2.78156	71.6235
2.78007	72.2614
2.77858	72.9023
2.77709	73.5652
2.77561	74.0494
2.77412	74.7463
2.77264	75.5258
2.77116	76.391
2.76968	76.9545
2.7682	77.5336
2.76672	78.1654
2.76524	78.5339
2.76377	79.1055
2.7623	79.4198
2.76083	79.3914
2.75936	79.5643
2.75789	80.1274
2.75642	81.2419
2.75496	81.6839
2.7535	81.0616
2.75203	80.8748
2.75057	80.9915
2.74912	81.1008
2.74766	81.2873
2.7462	81.6875
2.74475	81.9778
2.7433	82.2909
2.74185	82.9645
2.7404	83.4978
2.73895	83.342
2.7375	83.0182
2.73606	83.2504
2.73462	83.5082
2.73318	83.3865
2.73174	83.4145
2.7303	83.5925
2.72886	83.8383
2.72742	84.1724
2.72599	84.8394
2.72456	85.4563
2.72313	85.2403
2.7217	85.5929
2.72027	86.2419
2.71884	85.7893
2.71742	85.6634
2.71599	85.71
2.71457	85.9214
2.71315	86.28
2.71173	87.1699
2.71032	87.4712
2.7089	87.0588
2.70748	86.7997
2.70607	86.7519
2.70466	86.9852
2.70325	87.3535
2.70184	87.7742
2.70043	88.0369
2.69903	88.2949
2.69762	88.7505
2.69622	89.4656
2.69482	90.2265
2.69342	90.5476
2.69202	90.3308
2.69062	90.4889
2.68923	90.861
2.68783	91.1455
2.68644	91.4242
2.68505	91.5682
2.68366	91.7889
2.68227	91.752
2.68089	91.8747
2.6795	92.5202
2.67812	92.7323
2.67673	93.0279
2.67535	92.7806
2.67397	92.4726
2.6726	92.718
2.67122	93.7923
2.66984	93.9483
2.66847	93.4178
2.6671	94.0055
2.66572	94.1447
2.66435	93.6592
2.66299	92.9685
2.66162	93.0536
2.66025	93.1981
2.65889	93.1325
2.65753	92.9258
2.65616	93.1223
2.65481	93.1545
2.65345	93.2781
2.65209	93.429
2.65073	93.2082
2.64938	93.047
2.64803	93.164
2.64667	93.4069
2.64532	93.3878
2.64397	93.204
2.64263	93.245
2.64128	93.0706
2.63994	92.9045
2.63859	92.9944
2.63725	93.0972
2.63591	93.1303
2.63457	93.3107
2.63323	93.2361
2.6319	93.6132
2.63056	94.2003
2.62923	93.6792
2.62789	93.5333
2.62656	93.8589
2.62523	93.3441
2.6239	92.9627
2.62258	93.0485
2.62125	93.772
2.61993	93.8799
2.6186	93.3955
2.61728	93.7653
2.61596	93.6127
2.61464	93.0814
2.61332	93.0881
2.61201	92.9715
2.61069	93.0621
2.60938	93.1103
2.60807	93.078
2.60675	93.4742
2.60544	93.8172
2.60414	93.2767
2.60283	92.7857
2.60152	92.4862
2.60022	92.0778
2.59891	91.8426
2.59761	92.114
2.59631	92.9738
2.59501	94.0295
2.59371	93.1617
2.59242	91.8829
2.59112	91.442
2.58983	91.3755
2.58853	91.3995
2.58724	91.3276
2.58595	90.9023
2.58466	91.0988
2.58338	91.0486
2.58209	90.5071
2.5808	90.3355
2.57952	89.9658
2.57824	90.0183
2.57695	90.2005
2.57567	89.8965
2.5744	89.8646
2.57312	89.8646
2.57184	89.2843
2.57057	89.1561
2.56929	89.0241
2.56802	88.3648
2.56675	87.8587
2.56548	87.776
2.56421	87.6433
2.56294	87.2625
2.56168	86.7933
2.56041	85.9291
2.55915	84.85
2.55789	83.9947
2.55662	83.3611
2.55536	82.6512
2.5541	81.915
2.55285	81.1935
2.55159	80.3243
2.55034	79.3053
2.54908	78.401
2.54783	77.6339
2.54658	76.8119
2.54533	76.0918
2.54408	75.4775
2.54283	74.9771
2.54159	74.4485
2.54034	73.8907
2.5391	73.5536
2.53785	73.3888
2.53661	73.348
2.53537	73.38
2.53413	73.4444
2.53289	73.6629
2.53166	74.0185
2.53042	74.4217
2.52919	74.7865
2.52795	75.1515
2.52672	75.6701
2.52549	76.2545
2.52426	76.7228
2.52303	77.0751
2.52181	77.4119
2.52058	77.8844
2.51936	78.1579
2.51813	78.3318
2.51691	78.6065
2.51569	78.9377
2.51447	79.1953
2.51325	79.4016
2.51203	79.6047
2.51082	79.5384
2.5096	79.5841
2.50839	79.8896
2.50717	80.0045
2.50596	80.0085
2.50475	80.0413
2.50354	80.1587
2.50233	80.21
2.50113	80.2725
2.49992	80.3594
2.49872	80.4646
2.49751	80.4529
2.49631	80.517
2.49511	80.652
2.49391	80.7771
2.49271	80.8657
2.49151	81.0326
2.49031	81.0838
2.48912	81.0441
2.48792	81.1924
2.48673	81.3876
2.48554	81.5812
2.48435	81.695
2.48316	81.9241
2.48197	82.2941
2.48078	82.59
2.4796	82.7858
2.47841	82.9985
2.47723	83.2634
2.47604	83.5338
2.47486	83.8482
2.47368	84.0167
2.4725	84.306
2.47132	84.7441
2.47014	85.1806
2.46897	85.4485
2.46779	85.5963
2.46662	85.7975
2.46545	86.1278
2.46427	86.5544
2.4631	86.8823
2.46193	87.1701
2.46077	87.4032
2.4596	87.5833
2.45843	87.75
2.45727	87.8973
2.4561	88.1297
2.45494	88.4123
2.45378	88.6241
2.45262	88.7489
2.45146	88.9381
2.4503	89.2748
2.44914	89.4258
2.44799	89.4365
2.44683	89.4881
2.44568	89.7
2.44452	89.8432
2.44337	90.0362
2.44222	90.2392
2.44107	90.3441
2.43992	90.4387
2.43877	90.6023
2.43763	90.6282
2.43648	90.6995
2.43534	91.0169
2.43419	91.1617
2.43305	91.1649
2.43191	91.2414
2.43077	91.3861
2.42963	91.5127
2.42849	91.5379
2.42736	91.6717
2.42622	91.9274
2.42509	92.0629
2.42395	92.129
2.42282	92.1011
2.42169	92.08
2.42056	92.14
2.41943	92.2985
2.4183	92.4661
2.41717	92.5688
2.41605	92.6193
2.41492	92.6416
2.4138	92.6822
2.41267	92.8009
2.41155	92.7765
2.41043	92.7547
2.40931	92.8539
2.40819	92.787
2.40707	92.71
2.40595	92.673
2.40484	92.6468
2.40372	92.713
2.40261	92.713
2.4015	92.7222
2.40039	92.7988
2.39928	92.7818
2.39817	92.7312
2.39706	92.7458
2.39595	92.8815
2.39484	93.019
2.39374	93.0283
2.39263	92.8483
2.39153	92.7647
2.39043	92.808
2.38932	93.0097
2.38822	93.0161
2.38712	92.8478
2.38603	92.722
2.38493	92.7262
2.38383	92.7363
2.38274	92.7558
2.38164	92.6901
2.38055	92.4708
2.37946	92.3545
2.37836	92.2497
2.37727	92.1177
2.37618	92.0796
2.3751	91.9146
2.37401	91.7424
2.37292	91.6519
2.37184	91.5058
2.37075	91.3465
2.36967	91.1814
2.36859	91.0116
2.3675	90.8321
2.36642	90.4984
2.36534	89.9968
2.36427	89.5748
2.36319	89.0717
2.36211	88.6902
2.36104	88.4533
2.35996	88.0522
2.35889	87.4698
2.35781	86.9805
2.35674	86.5556
2.35567	85.9838
2.3546	85.4857
2.35353	85.0388
2.35247	84.5937
2.3514	84.3279
2.35033	84.006
2.34927	83.6735
2.3482	83.3588
2.34714	83.1274
2.34608	82.8269
2.34502	82.4958
2.34396	82.3864
2.3429	82.319
2.34184	82.2705
2.34078	82.152
2.33973	82.0344
2.33867	82.0687
2.33762	82.1672
2.33656	82.2037
2.33551	82.3539
2.33446	82.5746
2.33341	82.8103
2.33236	82.9388
2.33131	83.0789
2.33026	83.3954
2.32922	83.6142
2.32817	83.7554
2.32712	83.9933
2.32608	84.3313
2.32504	84.6348
2.324	84.7158
2.32295	84.913
2.32191	85.1806
2.32087	85.4654
2.31984	85.5877
2.3188	85.6124
2.31776	85.767
2.31673	85.8587
2.31569	85.8354
2.31466	85.9683
2.31362	86.1777
2.31259	86.2151
2.31156	86.2085
2.31053	86.317
2.3095	86.4595
2.30847	86.5782
2.30745	86.5274
2.30642	86.3989
2.3054	86.552
2.30437	86.7284
2.30335	86.8432
2.30232	87.0205
2.3013	87.1539
2.30028	87.0805
2.29926	87.0835
2.29824	87.1466
2.29722	87.1842
2.29621	87.2654
2.29519	87.4311
2.29417	87.5549
2.29316	87.603
2.29215	87.6557
2.29113	87.7167
2.29012	87.8303
2.28911	87.9729
2.2881	88.1495
2.28709	88.302
2.28608	88.4925
2.28507	88.7438
2.28407	88.7494
2.28306	88.8344
2.28206	88.9371
2.28105	89.0529
2.28005	89.289
2.27905	89.5431
2.27805	89.7572
2.27705	89.7633
2.27605	89.9184
2.27505	90.2418
2.27405	90.423
2.27305	90.4943
2.27206	90.6033
2.27106	90.7925
2.27007	90.9604
2.26907	91.096
2.26808	91.1589
2.26709	91.1423
2.2661	91.2688
2.26511	91.4006
2.26412	91.5184
2.26313	91.6813
2.26214	91.8081
2.26116	91.9196
2.26017	91.9642
2.25919	92.0862
2.2582	92.2282
2.25722	92.2808
2.25624	92.326
2.25526	92.4204
2.25428	92.4718
2.2533	92.5356
2.25232	92.59
2.25134	92.6235
2.25036	92.869
2.24939	92.8763
2.24841	92.777
2.24744	92.8476
2.24646	92.9576
2.24549	93.0592
2.24452	93.1845
2.24355	93.29
2.24257	93.3989
2.24161	93.4089
2.24064	93.4655
2.23967	93.5864
2.2387	93.6483
2.23774	93.6475
2.23677	93.6412
2.23581	93.639
2.23484	93.7138
2.23388	93.7923
2.23292	93.8095
2.23196	93.8741
2.231	93.9754
2.23004	93.9337
2.22908	93.9569
2.22812	94.1395
2.22716	94.1787
2.22621	94.1083
2.22525	94.1294
2.2243	94.3254
2.22334	94.4534
2.22239	94.4988
2.22144	94.4798
2.22049	94.382
2.21953	94.2957
2.21859	94.2931
2.21764	94.3534
2.21669	94.5386
2.21574	94.6378
2.21479	94.5196
2.21385	94.4248
2.2129	94.4884
2.21196	94.6006
2.21102	94.6259
2.21007	94.5978
2.20913	94.593
2.20819	94.6247
2.20725	94.6492
2.20631	94.6531
2.20537	94.656
2.20444	94.7732
2.2035	94.8901
2.20256	94.9013
2.20163	94.8768
2.20069	94.9028
2.19976	94.8433
2.19883	94.8169
2.19789	94.8747
2.19696	94.9051
2.19603	94.9008
2.1951	94.8598
2.19417	94.9141
2.19325	95.037
2.19232	94.9575
2.19139	94.8642
2.19047	94.8803
2.18954	94.9192
2.18862	94.9414
2.18769	94.9959
2.18677	95.0717
2.18585	94.9818
2.18493	94.8069
2.18401	94.8692
2.18309	94.954
2.18217	94.8481
2.18125	94.8084
2.18033	94.8307
2.17942	94.759
2.1785	94.7421
2.17759	94.8268
2.17667	94.9153
2.17576	94.8652
2.17485	94.7265
2.17393	94.6672
2.17302	94.7341
2.17211	94.6712
2.1712	94.5797
2.17029	94.6906
2.16939	94.758
2.16848	94.6438
2.16757	94.4798
2.16667	94.4512
2.16576	94.5546
2.16486	94.4601
2.16395	94.4145
2.16305	94.3358
2.16215	94.3089
2.16125	94.3442
2.16035	94.4127
2.15945	94.399
2.15855	94.3931
2.15765	94.4534
2.15675	94.4125
2.15586	94.2673
2.15496	94.2331
2.15406	94.3431
2.15317	94.5505
2.15228	94.7221
2.15138	94.68
2.15049	94.52
2.1496	94.4115
2.14871	94.3391
2.14782	94.3156
2.14693	94.3604
2.14604	94.5108
2.14515	94.8108
2.14427	94.948
2.14338	94.8614
2.14249	94.7685
2.14161	94.7337
2.14072	94.9032
2.13984	95.1046
2.13896	95.0858
2.13808	95.0133
2.13719	94.9651
2.13631	95.0652
2.13543	95.2642
2.13455	95.3238
2.13368	95.2623
2.1328	95.1452
2.13192	95.1676
2.13105	95.1353
2.13017	95.1522
2.1293	95.2194
2.12842	95.2995
2.12755	95.208
2.12668	95.2539
2.1258	95.2974
2.12493	95.2647
2.12406	95.3862
2.12319	95.4411
2.12232	95.4595
2.12145	95.3663
2.12059	95.1682
2.11972	95.1685
2.11885	95.2525
2.11799	95.2391
2.11712	95.4112
2.11626	95.4878
2.1154	95.3775
2.11453	95.347
2.11367	95.47
2.11281	95.5965
2.11195	95.4628
2.11109	95.3684
2.11023	95.3026
2.10937	95.1803
2.10851	95.2742
2.10766	95.5465
2.1068	95.4743
2.10594	95.4165
2.10509	95.5519
2.10423	95.538
2.10338	95.5137
2.10253	95.6268
2.10168	95.825
2.10082	95.7831
2.09997	95.5943
2.09912	95.4872
2.09827	95.6942
2.09742	95.8177
2.09658	95.6976
2.09573	95.6524
2.09488	95.6218
2.09404	95.5986
2.09319	95.6421
2.09235	95.8036
2.0915	95.9416
2.09066	95.9196
2.08982	95.7529
2.08897	95.5282
2.08813	95.3688
2.08729	95.4073
2.08645	95.471
2.08561	95.5435
2.08477	95.4706
2.08394	95.6366
2.0831	95.8182
2.08226	95.7988
2.08143	95.9121
2.08059	96.0948
2.07976	96.0026
2.07892	95.9371
2.07809	95.769
2.07726	95.5304
2.07643	95.571
2.07559	95.5632
2.07476	95.5858
2.07393	95.5573
2.0731	95.4863
2.07228	95.4548
2.07145	95.4483
2.07062	95.5097
2.06979	95.6478
2.06897	95.4941
2.06814	95.4582
2.06732	95.7259
2.06649	95.8049
2.06567	95.8636
2.06485	95.8633
2.06403	95.8331
2.0632	95.9407
2.06238	95.9785
2.06156	95.743
2.06074	95.7411
2.05993	95.798
2.05911	95.9108
2.05829	95.8683
2.05747	95.7918
2.05666	95.8248
2.05584	95.9057
2.05503	96.0697
2.05421	95.8908
2.0534	95.5627
2.05259	95.6324
2.05177	95.9191
2.05096	96.0471
2.05015	96.0165
2.04934	95.787
2.04853	95.922
2.04772	95.967
2.04691	95.7336
2.04611	95.616
2.0453	95.6409
2.04449	95.732
2.04369	95.7155
2.04288	95.8091
2.04208	95.8602
2.04127	95.8134
2.04047	95.7012
2.03967	95.562
2.03886	95.6028
2.03806	95.7156
2.03726	95.7552
2.03646	95.5616
2.03566	95.4369
2.03486	95.5995
2.03407	95.688
2.03327	95.4955
2.03247	95.3596
2.03167	95.5343
2.03088	95.894
2.03008	95.9673
2.02929	95.8652
2.0285	95.5254
2.0277	95.5205
2.02691	95.8153
2.02612	95.7276
2.02533	95.6034
2.02453	95.3805
2.02374	95.2844
2.02295	95.3974
2.02217	95.4364
2.02138	95.5204
2.02059	95.5631
2.0198	95.6044
2.01902	95.7082
2.01823	95.5749
2.01744	95.3542
2.01666	95.4253
2.01588	95.485
2.01509	95.3955
2.01431	95.2834
2.01353	95.2315
2.01275	95.2563
2.01196	95.1586
2.01118	95.1632
2.0104	95.3015
2.00963	95.2554
2.00885	95.1538
2.00807	95.2001
2.00729	95.1219
2.00651	94.9156
2.00574	94.8846
2.00496	94.8754
2.00419	94.7544
2.00341	94.5372
2.00264	94.5127
2.00187	94.5145
2.00109	94.5848
2.00032	94.5904
