Name: Biotite Gneiss
Type: Rock
Class: Metamorphic
Subclass:  Gneiss 
Particle Size: Solid surface
Sample No.: Ward79.txt
Owner: JPL
Wavelength range:  IR 
Origin: Ward's Collection of American Rocks.  Sample locality - Uxbridge, Worcester County, Massachusetts.  Collected by - JPL.
Collected by:  Ward's Natural Science
Description: A banded rock.  Think bands of black mica alternate with
those of quartz and feldspar.  Geologic age - Pre-Cambrian.




Measurement: Hemispherical reflectance
First Column: X
Second Column: Y
X Units: Wavelength (micrometers)
Y Units: Reflectance (percent)
First X Value: 15.3871
Last X Value: 1.9998
Number of X Values: 2257
Additional information: None

15.3871   5.07036
15.3416   4.73376
15.2964   4.51961
15.2514   4.16984
15.2066   3.63911
15.1622   3.26868
15.1180   3.31225
15.0740   3.15349
15.0303   3.13045
14.9869   3.26615
14.9437   3.28621
14.9008   3.61554
14.8581   3.64158
14.8156   3.47943
14.7734   3.53139
14.7314   3.50232
14.6897   3.54193
14.6482   3.74118
14.6069   3.46607
14.5659   3.46995
14.5251   3.59663
14.4845   3.80311
14.4442   4.04064
14.4041   4.11563
14.3642   3.90477
14.3245   3.65532
14.2850   3.64543
14.2458   3.77920
14.2068   3.93963
14.1679   3.99391
14.1293   3.97362
14.0909   4.01973
14.0528   3.99536
14.0148   4.01625
13.9770   4.10178
13.9394   4.21176
13.9021   4.30431
13.8649   4.23036
13.8279   4.28842
13.7911   4.55124
13.7546   4.47106
13.7182   4.36220
13.6820   4.31936
13.6460   4.43407
13.6101   4.68878
13.5745   4.66204
13.5391   4.62440
13.5038   4.79550
13.4687   4.88808
13.4339   4.82225
13.3991   4.89658
13.3646   5.00194
13.3302   4.85665
13.2961   4.87449
13.2621   4.89797
13.2282   4.81370
13.1946   4.95616
13.1611   5.08612
13.1278   5.04720
13.0946   5.05366
13.0616   5.24253
13.0288   5.18295
12.9962   5.12210
12.9637   5.43933
12.9313   5.74492
12.8992   6.06453
12.8672   6.42177
12.8353   6.53854
12.8036   6.60189
12.7721   6.47931
12.7407   6.33710
12.7095   6.17074
12.6784   5.77771
12.6475   5.44731
12.6167   5.40601
12.5861   5.58448
12.5556   5.90724
12.5253   5.96426
12.4951   5.89730
12.4651   5.96696
12.4352   5.75431
12.4054   5.16150
12.3758   4.66549
12.3463   4.08341
12.3170   3.57868
12.2878   3.58169
12.2588   3.83318
12.2299   3.98220
12.2011   4.11808
12.1725   4.24452
12.1439   4.34627
12.1156   4.60209
12.0873   4.77190
12.0592   4.68071
12.0312   4.73192
12.0034   4.91128
11.9757   5.01574
11.9481   5.17155
11.9206   5.30700
11.8933   5.36995
11.8661   5.49366
11.8390   5.66996
11.8120   5.63332
11.7852   5.61648
11.7584   5.79704
11.7318   5.84634
11.7053   5.85826
11.6790   6.02379
11.6527   6.09380
11.6266   6.11744
11.6006   6.17680
11.5747   6.24574
11.5489   6.29659
11.5233   6.24946
11.4977   6.31815
11.4723   6.33624
11.4469   6.28230
11.4217   6.38692
11.3966   6.59093
11.3716   6.80985
11.3468   6.95058
11.3220   7.00348
11.2973   7.16993
11.2728   7.46063
11.2483   7.61907
11.2240   7.61214
11.1997   7.76478
11.1756   7.99386
11.1515   8.09970
11.1276   8.00657
11.1038   8.05313
11.0801   8.27628
11.0564   8.26604
11.0329   8.33465
11.0095   8.54563
10.9862   8.66258
10.9629   8.61864
10.9398   8.76213
10.9168   8.97260
10.8938   8.95124
10.8710   8.99439
10.8483   9.18959
10.8256   9.36223
10.8031   9.63769
10.7806   9.83015
10.7582   9.92182
10.7360  10.02440
10.7138  10.19800
10.6917  10.35260
10.6697  10.42700
10.6478  10.43460
10.6260  10.49330
10.6042  10.69960
10.5826  10.95050
10.5610  11.14370
10.5396  11.34800
10.5182  11.58530
10.4969  11.75080
10.4757  11.88580
10.4546  11.94830
10.4335  12.02710
10.4126  12.36560
10.3917  12.62580
10.3709  12.71830
10.3502  12.95830
10.3296  13.34280
10.3091  13.55020
10.2886  13.62570
10.2683  13.98370
10.2480  14.32120
10.2277  14.66960
10.2076  14.90100
10.1876  15.06040
10.1676  15.33370
10.1477  15.78940
10.1279  16.18190
10.1081  16.46730
10.0885  16.76730
10.0689  16.99890
10.0494  17.22250
10.0299  17.44550
10.0106  17.71500
 9.9913  17.92350
 9.9720  18.13060
 9.9529  18.40490
 9.9338  18.83780
 9.9148  19.07640
 9.8959  19.08840
 9.8771  19.02350
 9.8583  18.96700
 9.8396  18.96280
 9.8210  19.00180
 9.8024  19.04000
 9.7839  19.07030
 9.7655  18.99030
 9.7471  18.87940
 9.7288  18.92960
 9.7106  19.24500
 9.6925  19.48410
 9.6744  19.52110
 9.6564  19.67010
 9.6384  19.75100
 9.6205  19.73020
 9.6027  19.60580
 9.5850  19.49950
 9.5673  19.36990
 9.5497  19.23190
 9.5321  19.11840
 9.5146  19.00150
 9.4972  19.01370
 9.4798  19.00950
 9.4625  18.95060
 9.4453  19.09590
 9.4281  19.20710
 9.4110  19.30710
 9.3940  19.59870
 9.3770  20.15530
 9.3600  20.55400
 9.3432  20.89720
 9.3264  21.23750
 9.3096  21.47360
 9.2930  21.50860
 9.2763  21.43660
 9.2598  21.50320
 9.2432  21.51560
 9.2268  21.41760
 9.2104  21.32280
 9.1941  21.23690
 9.1778  21.15330
 9.1616  21.08960
 9.1454  21.14580
 9.1293  21.17560
 9.1133  21.03750
 9.0973  21.03610
 9.0814  21.05030
 9.0655  21.07390
 9.0497  21.15710
 9.0339  21.22170
 9.0182  21.20720
 9.0025  21.25480
 8.9870  21.38690
 8.9714  21.48450
 8.9559  21.52670
 8.9405  21.71070
 8.9251  21.87430
 8.9097  22.00730
 8.8945  22.07070
 8.8792  22.12230
 8.8641  22.31820
 8.8489  22.41560
 8.8338  22.36380
 8.8188  22.31040
 8.8039  22.40240
 8.7889  22.47130
 8.7741  22.51620
 8.7592  22.46330
 8.7445  22.44760
 8.7297  22.41480
 8.7151  22.26020
 8.7005  21.93140
 8.6859  21.53610
 8.6714  21.00720
 8.6569  20.22210
 8.6425  19.35690
 8.6281  18.93990
 8.6137  19.33560
 8.5994  20.23220
 8.5852  21.19540
 8.5710  21.80180
 8.5569  22.10000
 8.5428  22.35610
 8.5287  22.40910
 8.5147  22.38360
 8.5008  22.30480
 8.4869  22.26720
 8.4730  22.33000
 8.4592  22.40410
 8.4454  22.35940
 8.4316  22.30930
 8.4180  22.35530
 8.4043  22.35590
 8.3907  22.20070
 8.3772  22.12750
 8.3637  21.90610
 8.3502  21.66780
 8.3368  21.38590
 8.3234  21.14870
 8.3100  20.84600
 8.2967  20.42990
 8.2835  19.89600
 8.2703  19.29010
 8.2571  18.71340
 8.2440  18.11480
 8.2309  17.48980
 8.2179  16.83720
 8.2049  16.03680
 8.1919  15.21190
 8.1790  14.55750
 8.1661  13.74950
 8.1532  12.76360
 8.1404  11.73170
 8.1277  10.93350
 8.1150  10.25070
 8.1023   9.47873
 8.0897   8.69996
 8.0770   8.12195
 8.0645   7.71020
 8.0520   7.19557
 8.0395   6.57320
 8.0270   6.01521
 8.0146   5.59976
 8.0023   5.15124
 7.9899   4.76891
 7.9776   4.50535
 7.9654   4.29116
 7.9532   3.98663
 7.9410   3.65230
 7.9288   3.28582
 7.9167   3.06740
 7.9047   2.93338
 7.8926   2.74376
 7.8807   2.57048
 7.8687   2.46737
 7.8568   2.36319
 7.8449   2.24081
 7.8330   2.15597
 7.8212   2.01393
 7.8094   1.83537
 7.7977   1.79434
 7.7860   1.91730
 7.7743   1.95784
 7.7627   1.84909
 7.7511   1.83152
 7.7395   1.84378
 7.7280   1.80753
 7.7165   1.69910
 7.7050   1.67379
 7.6936   1.60723
 7.6822   1.45113
 7.6708   1.48732
 7.6595   1.58953
 7.6482   1.46753
 7.6369   1.37278
 7.6257   1.39170
 7.6145   1.38412
 7.6033   1.30085
 7.5922   1.27272
 7.5811   1.26396
 7.5700   1.25762
 7.5590   1.24114
 7.5480   1.17045
 7.5370   1.16965
 7.5261   1.32033
 7.5152   1.33383
 7.5043   1.22812
 7.4935   1.24804
 7.4826   1.32904
 7.4718   1.37491
 7.4611   1.39438
 7.4504   1.34186
 7.4397   1.36121
 7.4290   1.35721
 7.4184   1.38575
 7.4078   1.44644
 7.3972   1.43399
 7.3867   1.38884
 7.3762   1.47865
 7.3657   1.43563
 7.3553   1.31050
 7.3449   1.28498
 7.3345   1.41643
 7.3241   1.53112
 7.3138   1.48527
 7.3035   1.47991
 7.2932   1.48048
 7.2830   1.46723
 7.2727   1.47226
 7.2626   1.44523
 7.2524   1.45083
 7.2423   1.46386
 7.2322   1.50571
 7.2221   1.59888
 7.2120   1.55949
 7.2020   1.47081
 7.1921   1.47185
 7.1821   1.44580
 7.1722   1.44338
 7.1623   1.51135
 7.1524   1.54986
 7.1425   1.60010
 7.1327   1.66851
 7.1229   1.67999
 7.1131   1.67417
 7.1034   1.83142
 7.0937   1.86278
 7.0840   1.80206
 7.0743   1.84568
 7.0647   1.82315
 7.0551   1.77320
 7.0455   1.76007
 7.0359   1.73119
 7.0264   1.80313
 7.0169   1.81187
 7.0074   1.74914
 6.9979   1.70969
 6.9885   1.76595
 6.9791   1.88644
 6.9697   1.89063
 6.9604   1.88769
 6.9510   1.90606
 6.9417   1.98056
 6.9324   1.95209
 6.9232   1.83304
 6.9140   1.84191
 6.9047   1.92799
 6.8956   1.96943
 6.8864   1.96675
 6.8773   2.04485
 6.8682   2.07885
 6.8591   2.08031
 6.8500   2.10726
 6.8410   2.11787
 6.8320   2.17994
 6.8230   2.09652
 6.8140   2.06198
 6.8051   2.11294
 6.7962   2.12571
 6.7873   2.14444
 6.7784   2.18123
 6.7695   2.13573
 6.7607   2.16510
 6.7519   2.19139
 6.7431   2.17346
 6.7344   2.13198
 6.7256   2.13777
 6.7169   2.14931
 6.7082   2.20295
 6.6996   2.27555
 6.6909   2.30832
 6.6823   2.29172
 6.6737   2.30208
 6.6651   2.26009
 6.6566   2.23209
 6.6480   2.24097
 6.6395   2.30728
 6.6310   2.38790
 6.6226   2.38670
 6.6141   2.37174
 6.6057   2.39163
 6.5973   2.31396
 6.5889   2.30902
 6.5805   2.42651
 6.5722   2.41653
 6.5639   2.28148
 6.5556   2.24338
 6.5473   2.31643
 6.5390   2.40820
 6.5308   2.42891
 6.5226   2.40401
 6.5144   2.44331
 6.5062   2.43018
 6.4981   2.43874
 6.4900   2.44150
 6.4818   2.35135
 6.4737   2.35282
 6.4657   2.36832
 6.4576   2.36604
 6.4496   2.38533
 6.4416   2.43114
 6.4336   2.44693
 6.4256   2.41142
 6.4177   2.40803
 6.4097   2.46047
 6.4018   2.46083
 6.3939   2.37600
 6.3860   2.33528
 6.3782   2.37148
 6.3704   2.33244
 6.3625   2.25987
 6.3547   2.34978
 6.3470   2.36190
 6.3392   2.30139
 6.3315   2.29648
 6.3237   2.29825
 6.3160   2.25707
 6.3083   2.23028
 6.3007   2.30036
 6.2930   2.32785
 6.2854   2.38740
 6.2778   2.27070
 6.2702   2.20197
 6.2626   2.19776
 6.2551   2.16825
 6.2476   2.22091
 6.2400   2.26892
 6.2325   2.28424
 6.2251   2.30395
 6.2176   2.21507
 6.2101   2.27145
 6.2027   2.28793
 6.1953   2.16823
 6.1879   2.17878
 6.1805   2.24249
 6.1732   2.24019
 6.1658   2.25078
 6.1585   2.27189
 6.1512   2.24422
 6.1439   2.25658
 6.1367   2.20431
 6.1294   2.14016
 6.1222   2.21066
 6.1149   2.33543
 6.1077   2.33022
 6.1006   2.29811
 6.0934   2.41819
 6.0862   2.58253
 6.0791   2.43227
 6.0720   2.36861
 6.0649   2.46383
 6.0578   2.42528
 6.0507   2.36539
 6.0437   2.37037
 6.0366   2.35032
 6.0296   2.35433
 6.0226   2.39144
 6.0156   2.35108
 6.0087   2.35024
 6.0017   2.45842
 5.9948   2.49239
 5.9878   2.49645
 5.9809   2.46376
 5.9740   2.43079
 5.9672   2.39386
 5.9603   2.41330
 5.9535   2.47441
 5.9466   2.53562
 5.9398   2.60322
 5.9330   2.58864
 5.9262   2.45684
 5.9195   2.45446
 5.9127   2.54720
 5.9060   2.57036
 5.8993   2.50745
 5.8926   2.47990
 5.8859   2.57079
 5.8792   2.58801
 5.8726   2.56981
 5.8659   2.66868
 5.8593   2.66429
 5.8527   2.64044
 5.8461   2.70320
 5.8395   2.73279
 5.8329   2.76393
 5.8264   2.75761
 5.8198   2.67018
 5.8133   2.70914
 5.8068   2.80775
 5.8003   2.83233
 5.7938   2.75293
 5.7874   2.74118
 5.7809   2.84698
 5.7745   2.87152
 5.7680   2.86026
 5.7616   2.87313
 5.7552   2.91845
 5.7489   2.97510
 5.7425   2.97749
 5.7361   2.93086
 5.7298   2.90242
 5.7235   2.96993
 5.7172   2.98699
 5.7109   2.94392
 5.7046   2.93821
 5.6983   3.04343
 5.6921   3.10354
 5.6858   3.09696
 5.6796   3.08965
 5.6734   3.10518
 5.6672   3.12313
 5.6610   3.09989
 5.6548   3.07641
 5.6487   3.08174
 5.6425   3.06006
 5.6364   3.01189
 5.6303   3.04342
 5.6242   3.07350
 5.6181   3.09719
 5.6120   3.14467
 5.6059   3.14927
 5.5999   3.15026
 5.5938   3.15125
 5.5878   3.10878
 5.5818   3.06521
 5.5758   3.09173
 5.5698   3.03957
 5.5638   3.02491
 5.5578   3.11602
 5.5519   3.14696
 5.5460   3.13427
 5.5400   3.16785
 5.5341   3.22282
 5.5282   3.27812
 5.5223   3.31300
 5.5164   3.39896
 5.5106   3.45131
 5.5047   3.39512
 5.4989   3.46029
 5.4931   3.55848
 5.4873   3.64317
 5.4815   3.64092
 5.4757   3.66866
 5.4699   3.73717
 5.4641   3.72151
 5.4584   3.66884
 5.4527   3.72693
 5.4469   3.77783
 5.4412   3.78119
 5.4355   3.85302
 5.4298   3.93561
 5.4241   3.93918
 5.4185   4.02160
 5.4128   4.01571
 5.4072   3.94911
 5.4015   3.99153
 5.3959   3.94873
 5.3903   3.92302
 5.3847   3.99260
 5.3791   4.04920
 5.3735   4.02323
 5.3680   3.96456
 5.3624   3.94171
 5.3569   4.04633
 5.3514   4.14399
 5.3458   4.14781
 5.3403   4.12009
 5.3348   4.14813
 5.3294   4.19061
 5.3239   4.15307
 5.3184   4.12171
 5.3130   4.14956
 5.3075   4.19609
 5.3021   4.26591
 5.2967   4.31491
 5.2913   4.31244
 5.2859   4.31563
 5.2805   4.37398
 5.2751   4.44450
 5.2698   4.46682
 5.2644   4.43804
 5.2591   4.44669
 5.2538   4.49193
 5.2485   4.56148
 5.2431   4.61303
 5.2378   4.67780
 5.2326   4.67811
 5.2273   4.62787
 5.2220   4.63976
 5.2168   4.69446
 5.2115   4.75798
 5.2063   4.80997
 5.2011   4.87418
 5.1959   4.92947
 5.1907   5.00092
 5.1855   5.02217
 5.1803   5.01724
 5.1751   5.10598
 5.1700   5.11086
 5.1648   5.09913
 5.1597   5.22932
 5.1545   5.29991
 5.1494   5.25148
 5.1443   5.20711
 5.1392   5.21999
 5.1341   5.22239
 5.1291   5.28193
 5.1240   5.37699
 5.1189   5.43902
 5.1139   5.52977
 5.1088   5.52950
 5.1038   5.47696
 5.0988   5.51679
 5.0938   5.57791
 5.0888   5.55513
 5.0838   5.66847
 5.0788   5.75318
 5.0738   5.72529
 5.0689   5.74887
 5.0639   5.74663
 5.0590   5.80852
 5.0541   5.98763
 5.0491   5.98513
 5.0442   5.86720
 5.0393   5.93266
 5.0344   6.04773
 5.0296   6.07552
 5.0247   6.10011
 5.0198   6.11085
 5.0150   6.15214
 5.0101   6.19222
 5.0053   6.17478
 5.0004   6.17548
 4.9956   6.24260
 4.9908   6.32969
 4.9860   6.47902
 4.9812   6.52811
 4.9765   6.51844
 4.9717   6.54418
 4.9669   6.54966
 4.9622   6.61427
 4.9574   6.68720
 4.9527   6.75985
 4.9480   6.84506
 4.9432   6.86733
 4.9385   6.91439
 4.9338   6.93364
 4.9291   6.98560
 4.9245   7.04122
 4.9198   7.10296
 4.9151   7.19491
 4.9105   7.24100
 4.9058   7.30038
 4.9012   7.39113
 4.8966   7.52441
 4.8919   7.70857
 4.8873   7.84069
 4.8827   7.91645
 4.8781   7.97891
 4.8736   8.16512
 4.8690   8.28000
 4.8644   8.21894
 4.8599   8.23318
 4.8553   8.40657
 4.8508   8.57358
 4.8462   8.59530
 4.8417   8.67485
 4.8372   8.78993
 4.8327   8.86966
 4.8282   8.95877
 4.8237   8.97717
 4.8192   8.94278
 4.8147   9.02133
 4.8103   9.11148
 4.8058   9.15732
 4.8014   9.31825
 4.7969   9.39062
 4.7925   9.42778
 4.7881   9.41258
 4.7836   9.34833
 4.7792   9.49043
 4.7748   9.60417
 4.7704   9.61646
 4.7660   9.66225
 4.7617   9.76169
 4.7573   9.82288
 4.7530   9.86236
 4.7486   9.94118
 4.7443  10.04120
 4.7399  10.14940
 4.7356  10.12780
 4.7313  10.12270
 4.7270  10.21840
 4.7226  10.31470
 4.7184  10.35430
 4.7141  10.36770
 4.7098  10.48120
 4.7055  10.44330
 4.7012  10.34490
 4.6970  10.37470
 4.6927  10.36130
 4.6885  10.27940
 4.6842  10.35200
 4.6800  10.43300
 4.6758  10.52890
 4.6716  10.64950
 4.6674  10.74340
 4.6632  10.76670
 4.6590  10.90550
 4.6548  11.07500
 4.6506  11.23320
 4.6465  11.38880
 4.6423  11.49250
 4.6382  11.68920
 4.6340  11.89080
 4.6299  11.95500
 4.6258  12.03630
 4.6216  12.19730
 4.6175  12.38210
 4.6134  12.54600
 4.6093  12.67390
 4.6052  12.83780
 4.6011  12.93590
 4.5971  12.99130
 4.5930  13.11970
 4.5889  13.22210
 4.5849  13.31860
 4.5808  13.40400
 4.5768  13.46370
 4.5727  13.57780
 4.5687  13.65990
 4.5647  13.76720
 4.5607  13.95460
 4.5567  13.96070
 4.5526  13.97310
 4.5487  14.14250
 4.5447  14.27940
 4.5407  14.27960
 4.5367  14.24460
 4.5328  14.24190
 4.5288  14.29940
 4.5248  14.30990
 4.5209  14.30540
 4.5170  14.42600
 4.5130  14.43660
 4.5091  14.27280
 4.5052  14.28440
 4.5013  14.19810
 4.4974  14.07250
 4.4935  14.17100
 4.4896  14.35880
 4.4857  14.48110
 4.4818  14.44160
 4.4779  14.44830
 4.4741  14.58920
 4.4702  14.65090
 4.4664  14.67270
 4.4625  14.82410
 4.4587  14.99150
 4.4549  15.14400
 4.4510  15.32520
 4.4472  15.46540
 4.4434  15.51770
 4.4396  15.63760
 4.4358  15.79600
 4.4320  15.97270
 4.4282  16.16330
 4.4245  16.28560
 4.4207  16.37580
 4.4169  16.47730
 4.4132  16.57850
 4.4094  16.80620
 4.4057  17.03860
 4.4019  17.15470
 4.3982  17.18930
 4.3945  17.23430
 4.3907  17.56840
 4.3870  17.85450
 4.3833  17.92650
 4.3796  17.96250
 4.3759  18.11500
 4.3722  18.36240
 4.3685  18.59760
 4.3649  18.83990
 4.3612  19.06190
 4.3575  19.27120
 4.3539  19.45200
 4.3502  19.56280
 4.3466  19.72000
 4.3429  19.79960
 4.3393  19.88290
 4.3357  20.05010
 4.3320  20.10190
 4.3284  20.18070
 4.3248  20.35080
 4.3212  20.50740
 4.3176  20.46450
 4.3140  20.37800
 4.3105  20.32850
 4.3069  20.35420
 4.3033  20.41550
 4.2997  20.62150
 4.2962  20.67180
 4.2926  20.57200
 4.2890  20.52990
 4.2855  20.60590
 4.2820  20.68930
 4.2784  20.79580
 4.2749  20.85740
 4.2714  20.93620
 4.2679  21.23360
 4.2644  21.56620
 4.2609  21.90630
 4.2574  22.14810
 4.2539  22.06770
 4.2504  21.89730
 4.2469  21.75290
 4.2434  21.72790
 4.2400  21.67790
 4.2365  21.64280
 4.2330  21.74910
 4.2296  21.85310
 4.2261  21.90580
 4.2227  22.05680
 4.2193  22.25610
 4.2158  22.48150
 4.2124  22.76020
 4.2090  23.01740
 4.2056  23.23640
 4.2022  23.35770
 4.1988  23.50830
 4.1954  23.60950
 4.1920  23.69110
 4.1886  23.84650
 4.1852  23.85020
 4.1818  23.91590
 4.1785  24.07940
 4.1751  24.13230
 4.1717  24.15750
 4.1684  24.22110
 4.1650  24.25810
 4.1617  24.37130
 4.1584  24.46840
 4.1550  24.55110
 4.1517  24.59880
 4.1484  24.60640
 4.1451  24.72820
 4.1418  24.91430
 4.1384  24.97060
 4.1351  24.98640
 4.1319  24.99900
 4.1286  25.06140
 4.1253  25.18740
 4.1220  25.20630
 4.1187  25.12970
 4.1155  25.20470
 4.1122  25.32740
 4.1089  25.34750
 4.1057  25.44960
 4.1024  25.65170
 4.0992  25.66820
 4.0959  25.62620
 4.0927  25.71490
 4.0895  25.88870
 4.0863  25.97790
 4.0830  25.94960
 4.0798  25.93380
 4.0766  26.05300
 4.0734  26.01550
 4.0702  25.98380
 4.0670  25.94000
 4.0639  25.90530
 4.0607  26.00010
 4.0575  26.18030
 4.0543  26.28280
 4.0511  26.27020
 4.0480  26.17030
 4.0448  26.11670
 4.0417  26.13860
 4.0385  26.16510
 4.0354  26.15090
 4.0323  26.10680
 4.0291  26.10410
 4.0260  26.05570
 4.0229  26.09300
 4.0197  26.12990
 4.0166  25.98590
 4.0135  25.97750
 4.0104  25.96370
 4.0073  25.89850
 4.0042  25.75920
 4.0011  25.62640
 3.9981  25.61320
 3.9950  25.79930
 3.9919  25.84980
 3.9888  25.70820
 3.9857  25.66510
 3.9827  25.71570
 3.9796  25.71860
 3.9766  25.76760
 3.9735  25.89320
 3.9705  26.01150
 3.9675  26.08030
 3.9644  26.15650
 3.9614  26.27770
 3.9584  26.43730
 3.9554  26.45920
 3.9523  26.45540
 3.9493  26.52470
 3.9463  26.62460
 3.9433  26.85460
 3.9403  26.86430
 3.9373  26.82440
 3.9343  26.91600
 3.9314  26.99530
 3.9284  27.13520
 3.9254  27.24220
 3.9224  27.23740
 3.9195  27.16090
 3.9165  27.15670
 3.9136  27.17250
 3.9106  27.22770
 3.9077  27.42180
 3.9047  27.55610
 3.9018  27.38040
 3.8988  27.34510
 3.8959  27.44900
 3.8930  27.31860
 3.8901  27.24490
 3.8872  27.37410
 3.8842  27.40390
 3.8813  27.41210
 3.8784  27.38580
 3.8755  27.30180
 3.8726  27.33750
 3.8697  27.32780
 3.8669  27.18990
 3.8640  27.30060
 3.8611  27.33760
 3.8582  27.41030
 3.8554  27.47110
 3.8525  27.38410
 3.8496  27.37990
 3.8468  27.57240
 3.8439  27.56420
 3.8411  27.45190
 3.8382  27.56740
 3.8354  27.73000
 3.8326  27.69000
 3.8297  27.62140
 3.8269  27.66630
 3.8241  27.80200
 3.8213  27.88600
 3.8185  27.93780
 3.8157  27.96660
 3.8128  27.97580
 3.8100  28.02220
 3.8072  28.03040
 3.8045  28.05580
 3.8017  28.16980
 3.7989  28.21940
 3.7961  28.23920
 3.7933  28.24750
 3.7906  28.09400
 3.7878  27.99160
 3.7850  28.11300
 3.7822  28.12360
 3.7795  28.07770
 3.7767  28.16670
 3.7740  28.26450
 3.7713  28.25630
 3.7685  28.19820
 3.7658  28.20340
 3.7630  28.04240
 3.7603  27.89400
 3.7576  27.88640
 3.7549  28.04940
 3.7521  28.15930
 3.7494  28.03810
 3.7467  27.93130
 3.7440  28.00900
 3.7413  28.00310
 3.7386  27.99410
 3.7359  28.05860
 3.7332  28.16290
 3.7306  28.24550
 3.7279  28.21310
 3.7252  28.08800
 3.7225  27.87910
 3.7199  27.82670
 3.7172  27.99690
 3.7145  28.14500
 3.7119  28.23050
 3.7092  28.19540
 3.7066  28.18370
 3.7039  28.11510
 3.7013  28.10270
 3.6986  28.18010
 3.6960  28.28590
 3.6934  28.29880
 3.6907  28.40710
 3.6881  28.47240
 3.6855  28.30550
 3.6829  28.19480
 3.6803  28.30020
 3.6776  28.51320
 3.6750  28.56760
 3.6724  28.51620
 3.6698  28.49740
 3.6672  28.40180
 3.6646  28.38810
 3.6620  28.60210
 3.6595  28.69030
 3.6569  28.45470
 3.6543  28.32950
 3.6517  28.37850
 3.6492  28.35300
 3.6466  28.19870
 3.6440  28.14300
 3.6415  28.27880
 3.6389  28.36920
 3.6364  28.32100
 3.6338  28.25510
 3.6313  28.27890
 3.6287  28.21900
 3.6262  28.17610
 3.6237  28.20530
 3.6211  28.14780
 3.6186  28.08980
 3.6161  28.13720
 3.6136  28.13420
 3.6111  28.12850
 3.6085  28.05120
 3.6060  27.95180
 3.6035  27.79480
 3.6010  27.83150
 3.5985  27.90830
 3.5960  27.93120
 3.5935  27.88950
 3.5910  27.76410
 3.5886  27.72670
 3.5861  27.64840
 3.5836  27.60710
 3.5811  27.61170
 3.5787  27.60360
 3.5762  27.51780
 3.5737  27.39060
 3.5713  27.43210
 3.5688  27.61400
 3.5663  27.53290
 3.5639  27.41410
 3.5614  27.40300
 3.5590  27.34590
 3.5566  27.27030
 3.5541  27.14120
 3.5517  27.15200
 3.5493  27.19340
 3.5468  27.02960
 3.5444  26.88620
 3.5420  26.93750
 3.5396  27.04770
 3.5372  27.13790
 3.5347  27.03310
 3.5323  26.86610
 3.5299  26.68140
 3.5275  26.46880
 3.5251  26.41270
 3.5227  26.62800
 3.5203  26.60810
 3.5180  26.46110
 3.5156  26.34840
 3.5132  26.16790
 3.5108  26.00610
 3.5084  26.05100
 3.5061  25.93270
 3.5037  25.77520
 3.5013  25.75170
 3.4990  25.77820
 3.4966  25.75180
 3.4943  25.72890
 3.4919  25.66490
 3.4895  25.50620
 3.4872  25.13300
 3.4849  24.99620
 3.4825  25.14980
 3.4802  25.32900
 3.4778  25.42000
 3.4755  25.36190
 3.4732  25.28700
 3.4709  25.36730
 3.4685  25.51430
 3.4662  25.42360
 3.4639  25.32240
 3.4616  25.18780
 3.4593  25.06530
 3.4570  24.92970
 3.4547  24.91470
 3.4524  24.87890
 3.4501  24.78350
 3.4478  24.75010
 3.4455  24.82070
 3.4432  24.76280
 3.4409  24.63520
 3.4386  24.63120
 3.4364  24.56640
 3.4341  24.34200
 3.4318  24.24400
 3.4295  24.22130
 3.4273  24.30470
 3.4250  24.14930
 3.4228  23.91590
 3.4205  23.93590
 3.4182  23.97520
 3.4160  23.79290
 3.4137  23.68030
 3.4115  23.66630
 3.4093  23.60450
 3.4070  23.57200
 3.4048  23.65550
 3.4025  23.74740
 3.4003  23.81100
 3.3981  23.68770
 3.3958  23.66940
 3.3936  23.64140
 3.3914  23.56860
 3.3892  23.54420
 3.3870  23.25230
 3.3848  23.02550
 3.3826  23.14130
 3.3804  22.94000
 3.3782  22.93240
 3.3760  23.26410
 3.3738  23.13830
 3.3716  23.05310
 3.3694  23.15500
 3.3672  23.05070
 3.3650  22.89170
 3.3628  22.84200
 3.3606  22.89310
 3.3585  22.87360
 3.3563  22.84160
 3.3541  22.72020
 3.3520  22.83510
 3.3498  22.90450
 3.3476  22.68860
 3.3455  22.53050
 3.3433  22.49860
 3.3411  22.37120
 3.3390  22.55320
 3.3369  22.77440
 3.3347  22.71220
 3.3326  22.79170
 3.3304  22.64780
 3.3283  22.35320
 3.3262  22.38390
 3.3240  22.36250
 3.3219  22.29170
 3.3198  22.42880
 3.3176  22.38730
 3.3155  22.21440
 3.3134  22.21300
 3.3113  22.04110
 3.3092  21.87700
 3.3071  21.91080
 3.3049  22.04580
 3.3028  22.01650
 3.3007  21.95350
 3.2986  21.88440
 3.2965  21.86050
 3.2944  21.62830
 3.2924  21.60930
 3.2903  21.48290
 3.2882  21.31420
 3.2861  21.34530
 3.2840  21.39810
 3.2819  21.33080
 3.2799  21.16010
 3.2778  21.34210
 3.2757  21.56050
 3.2736  21.24930
 3.2716  21.11110
 3.2695  21.21260
 3.2675  21.25250
 3.2654  21.14440
 3.2634  21.07650
 3.2613  20.98520
 3.2593  20.95270
 3.2572  21.00490
 3.2552  20.82930
 3.2531  20.83530
 3.2511  20.77760
 3.2490  20.48130
 3.2470  20.45650
 3.2450  20.55090
 3.2429  20.47270
 3.2409  20.31700
 3.2389  20.29420
 3.2369  20.36540
 3.2348  20.23240
 3.2328  19.99050
 3.2308  19.85420
 3.2288  20.10670
 3.2268  20.10900
 3.2248  19.99200
 3.2228  19.96070
 3.2208  19.95510
 3.2188  20.00570
 3.2168  20.10910
 3.2148  20.07180
 3.2128  19.86250
 3.2108  19.66240
 3.2088  19.70060
 3.2068  19.53910
 3.2049  19.41380
 3.2029  19.44510
 3.2009  19.56810
 3.1989  19.62400
 3.1970  19.56350
 3.1950  19.22680
 3.1930  19.15630
 3.1911  19.24920
 3.1891  19.14120
 3.1871  19.21210
 3.1852  18.98300
 3.1832  18.72850
 3.1813  18.94360
 3.1793  18.97490
 3.1774  19.02870
 3.1754  18.99110
 3.1735  18.77020
 3.1715  18.54880
 3.1696  18.37640
 3.1677  18.51730
 3.1657  18.60640
 3.1638  18.63240
 3.1619  18.60940
 3.1599  18.76930
 3.1580  18.60850
 3.1561  18.31860
 3.1542  18.27270
 3.1523  18.20130
 3.1503  18.06440
 3.1484  17.94000
 3.1465  17.93280
 3.1446  17.92320
 3.1427  18.02330
 3.1408  17.91760
 3.1389  17.80000
 3.1370  18.03550
 3.1351  18.07290
 3.1332  17.87130
 3.1313  17.59220
 3.1294  17.46740
 3.1275  17.49420
 3.1257  17.71460
 3.1238  17.50790
 3.1219  17.28400
 3.1200  17.45110
 3.1181  17.52080
 3.1163  17.31580
 3.1144  17.19530
 3.1125  17.26980
 3.1107  17.17910
 3.1088  17.02050
 3.1069  17.11080
 3.1051  17.13470
 3.1032  17.06650
 3.1014  17.03260
 3.0995  16.98210
 3.0976  16.83330
 3.0958  16.63420
 3.0940  16.72810
 3.0921  16.92380
 3.0903  16.77580
 3.0884  16.72420
 3.0866  16.86210
 3.0848  16.70760
 3.0829  16.39700
 3.0811  16.52700
 3.0793  16.54540
 3.0774  16.34510
 3.0756  16.57510
 3.0738  16.79020
 3.0720  16.56350
 3.0701  16.43090
 3.0683  16.48670
 3.0665  16.59610
 3.0647  16.45240
 3.0629  16.34130
 3.0611  16.33770
 3.0593  16.14470
 3.0575  15.93020
 3.0557  16.22570
 3.0539  16.64560
 3.0521  16.47790
 3.0503  16.13230
 3.0485  15.96150
 3.0467  16.17230
 3.0449  16.36680
 3.0431  16.34800
 3.0413  16.01580
 3.0396  16.14910
 3.0378  16.37180
 3.0360  16.38590
 3.0342  16.28900
 3.0324  16.20500
 3.0307  16.46070
 3.0289  16.35620
 3.0271  15.89720
 3.0254  15.79440
 3.0236  15.73840
 3.0218  15.86490
 3.0201  15.85440
 3.0183  15.42260
 3.0166  15.53700
 3.0148  15.82920
 3.0130  15.71480
 3.0113  15.59890
 3.0096  15.84250
 3.0078  15.83600
 3.0061  15.82350
 3.0043  16.06940
 3.0026  16.12260
 3.0008  16.03950
 2.9991  15.96180
 2.9974  15.59470
 2.9956  15.64670
 2.9939  15.88340
 2.9922  15.65820
 2.9905  15.48990
 2.9887  15.25370
 2.9870  15.58610
 2.9853  16.08800
 2.9836  15.77220
 2.9819  15.31770
 2.9802  15.17550
 2.9784  15.21780
 2.9767  15.43570
 2.9750  15.46740
 2.9733  15.38330
 2.9716  15.24340
 2.9699  15.52910
 2.9682  15.73200
 2.9665  15.63950
 2.9648  15.29860
 2.9631  14.80060
 2.9614  14.72330
 2.9597  15.24250
 2.9581  15.62020
 2.9564  15.50730
 2.9547  15.48570
 2.9530  15.72240
 2.9513  15.60320
 2.9496  15.65690
 2.9480  15.70370
 2.9463  15.32080
 2.9446  15.32110
 2.9429  15.43360
 2.9413  15.19620
 2.9396  15.11760
 2.9379  15.10440
 2.9363  15.26310
 2.9346  15.42350
 2.9330  15.47820
 2.9313  15.79270
 2.9296  16.10530
 2.9280  16.10290
 2.9263  15.91940
 2.9247  15.69910
 2.9230  15.87760
 2.9214  15.89750
 2.9197  15.83770
 2.9181  15.81600
 2.9165  15.62990
 2.9148  15.47650
 2.9132  15.53920
 2.9116  15.76320
 2.9099  15.91640
 2.9083  16.20360
 2.9067  16.38090
 2.9050  16.37180
 2.9034  16.32700
 2.9018  16.04700
 2.9002  15.73210
 2.8985  15.90510
 2.8969  16.56250
 2.8953  16.68120
 2.8937  16.10270
 2.8921  16.13420
 2.8905  16.29140
 2.8888  15.94390
 2.8872  15.70490
 2.8856  16.19180
 2.8840  16.63780
 2.8824  16.84160
 2.8808  16.69350
 2.8792  16.21570
 2.8776  16.30730
 2.8760  16.99050
 2.8744  16.97890
 2.8728  16.67140
 2.8712  16.76350
 2.8697  16.70590
 2.8681  16.48630
 2.8665  16.60820
 2.8649  16.76700
 2.8633  16.80670
 2.8617  16.98490
 2.8602  17.00960
 2.8586  16.88790
 2.8570  16.72160
 2.8554  16.75560
 2.8539  16.95140
 2.8523  17.07370
 2.8507  17.04300
 2.8492  16.89140
 2.8476  16.91250
 2.8460  17.02050
 2.8445  16.99450
 2.8429  16.97240
 2.8413  16.99960
 2.8398  16.65260
 2.8382  16.83620
 2.8367  16.92980
 2.8351  16.74690
 2.8336  16.75010
 2.8320  16.71570
 2.8305  16.62850
 2.8289  16.67120
 2.8274  17.06840
 2.8259  17.23230
 2.8243  17.02260
 2.8228  16.99520
 2.8213  17.36280
 2.8197  17.86220
 2.8182  17.28340
 2.8167  16.78860
 2.8151  16.99230
 2.8136  16.85940
 2.8121  16.96020
 2.8106  17.35950
 2.8090  17.51090
 2.8075  17.48970
 2.8060  17.79040
 2.8045  18.34600
 2.8030  17.93270
 2.8014  17.29370
 2.7999  17.28770
 2.7984  17.59740
 2.7969  17.87820
 2.7954  17.81600
 2.7939  18.09370
 2.7924  17.74170
 2.7909  18.13430
 2.7894  18.11660
 2.7879  17.58950
 2.7864  17.57670
 2.7849  17.81050
 2.7834  18.15920
 2.7819  18.08670
 2.7804  17.85490
 2.7789  17.56590
 2.7774  17.52670
 2.7759  17.34970
 2.7745  17.62040
 2.7730  18.14670
 2.7715  18.79010
 2.7700  18.62990
 2.7685  17.92830
 2.7671  17.85620
 2.7656  18.57920
 2.7641  18.78710
 2.7626  18.61480
 2.7612  18.34000
 2.7597  18.37110
 2.7582  18.64300
 2.7568  18.69260
 2.7553  18.73470
 2.7538  18.97350
 2.7524  19.84430
 2.7509  20.28790
 2.7494  19.99810
 2.7480  19.91030
 2.7465  19.88460
 2.7451  19.93690
 2.7436  20.20280
 2.7422  20.40130
 2.7407  20.74430
 2.7393  20.83560
 2.7378  20.93180
 2.7364  20.69670
 2.7350  20.90540
 2.7335  21.08450
 2.7321  21.36820
 2.7306  21.56390
 2.7292  21.57020
 2.7278  21.67190
 2.7263  21.87050
 2.7249  22.13400
 2.7235  22.41090
 2.7220  22.62610
 2.7206  22.75970
 2.7192  23.02770
 2.7178  22.79730
 2.7163  22.49500
 2.7149  22.58310
 2.7135  22.95080
 2.7121  23.59490
 2.7106  23.76140
 2.7092  23.27370
 2.7078  23.14880
 2.7064  23.61720
 2.7050  23.80550
 2.7036  24.04900
 2.7022  24.89640
 2.7008  25.68880
 2.6994  26.38600
 2.6980  27.20450
 2.6965  28.04660
 2.6951  28.70590
 2.6938  29.47320
 2.6923  30.43700
 2.6910  31.53820
 2.6896  32.57400
 2.6882  33.33700
 2.6868  33.79080
 2.6854  34.30580
 2.6840  35.05000
 2.6826  35.75140
 2.6812  36.29080
 2.6798  36.74430
 2.6784  37.07700
 2.6771  37.62570
 2.6757  37.84820
 2.6743  37.95840
 2.6729  38.26730
 2.6715  38.73650
 2.6702  38.73970
 2.6688  38.79030
 2.6674  39.28040
 2.6660  39.36510
 2.6647  39.22880
 2.6633  39.08880
 2.6619  39.29460
 2.6606  39.21770
 2.6592  39.32910
 2.6578  39.32690
 2.6565  39.22260
 2.6551  39.32600
 2.6538  39.66380
 2.6524  39.73930
 2.6511  39.59690
 2.6497  39.48630
 2.6484  39.46610
 2.6470  39.63620
 2.6456  39.76210
 2.6443  39.72470
 2.6429  39.83220
 2.6416  40.00180
 2.6403  40.00410
 2.6389  39.88270
 2.6376  39.77390
 2.6362  39.94880
 2.6349  40.21720
 2.6336  40.52570
 2.6322  40.51110
 2.6309  40.57220
 2.6296  40.31610
 2.6282  40.23210
 2.6269  40.69840
 2.6256  40.85900
 2.6242  40.62940
 2.6229  40.47760
 2.6216  40.77930
 2.6203  41.07550
 2.6189  40.59390
 2.6176  40.57450
 2.6163  40.76000
 2.6150  40.70120
 2.6136  40.97480
 2.6123  41.50950
 2.6110  41.74800
 2.6097  41.47990
 2.6084  41.39070
 2.6071  41.39640
 2.6058  41.40910
 2.6044  41.28670
 2.6031  41.50390
 2.6018  41.63640
 2.6005  41.52700
 2.5992  41.60440
 2.5979  41.63220
 2.5966  41.94340
 2.5953  42.09810
 2.5940  41.84850
 2.5927  41.37850
 2.5914  41.25100
 2.5901  41.24860
 2.5888  41.51120
 2.5876  41.92790
 2.5863  41.80520
 2.5850  41.75540
 2.5837  41.56670
 2.5824  41.49540
 2.5811  41.78580
 2.5798  41.94240
 2.5785  41.59900
 2.5773  41.35200
 2.5760  41.15940
 2.5747  41.22970
 2.5734  41.34620
 2.5722  41.47940
 2.5709  41.72870
 2.5696  42.03870
 2.5683  41.41080
 2.5671  40.59510
 2.5658  41.22120
 2.5645  41.60080
 2.5633  41.24360
 2.5620  41.48070
 2.5607  41.69970
 2.5595  41.39960
 2.5582  41.18140
 2.5569  41.62040
 2.5557  41.65610
 2.5544  41.23710
 2.5532  41.16230
 2.5519  41.04430
 2.5507  41.29680
 2.5494  41.67410
 2.5481  41.87080
 2.5469  41.71460
 2.5456  41.76330
 2.5444  41.77650
 2.5431  41.45940
 2.5419  41.27940
 2.5406  41.08210
 2.5394  40.93890
 2.5382  41.41220
 2.5369  41.79950
 2.5357  41.58820
 2.5344  41.00580
 2.5332  41.24190
 2.5320  41.54430
 2.5307  41.19240
 2.5295  40.78160
 2.5283  40.84730
 2.5270  41.02640
 2.5258  40.62610
 2.5246  40.90470
 2.5233  41.13680
 2.5221  41.20760
 2.5209  41.47490
 2.5197  41.30760
 2.5184  40.92710
 2.5172  41.05930
 2.5160  41.20220
 2.5148  40.97070
 2.5136  41.10190
 2.5123  41.27360
 2.5111  41.10720
 2.5099  41.01250
 2.5087  41.15660
 2.5075  41.36640
 2.5063  41.47230
 2.5051  41.48800
 2.5038  41.20230
 2.5026  41.24340
 2.5014  41.13980
 2.5002  40.78060
 2.4990  40.65810
 2.4978  40.63870
 2.4966  40.61560
 2.4954  41.02720
 2.4942  41.25280
 2.4930  41.05120
 2.4918  41.05780
 2.4906  41.46320
 2.4894  41.43390
 2.4882  41.09590
 2.4870  41.29970
 2.4858  41.55210
 2.4846  41.42320
 2.4835  41.34770
 2.4823  41.10380
 2.4811  41.14900
 2.4799  41.31970
 2.4787  41.01730
 2.4775  40.80960
 2.4764  40.60020
 2.4752  40.73590
 2.4740  41.22910
 2.4728  41.17740
 2.4716  40.93850
 2.4705  41.28850
 2.4693  41.46910
 2.4681  41.28410
 2.4669  40.84500
 2.4657  40.65200
 2.4646  40.86730
 2.4634  40.72000
 2.4622  40.46640
 2.4611  40.89850
 2.4599  41.28330
 2.4587  41.21640
 2.4576  41.11500
 2.4564  41.39930
 2.4552  41.27940
 2.4541  40.99470
 2.4529  40.81780
 2.4518  40.95070
 2.4506  41.09550
 2.4494  41.08270
 2.4483  40.95070
 2.4471  40.74410
 2.4460  40.87200
 2.4448  41.06540
 2.4437  41.48000
 2.4425  41.25690
 2.4414  40.88120
 2.4402  41.03440
 2.4391  40.96790
 2.4379  40.52970
 2.4368  40.55830
 2.4356  41.23040
 2.4345  41.08900
 2.4333  40.89480
 2.4322  41.00990
 2.4311  40.86080
 2.4299  40.64200
 2.4288  40.45340
 2.4276  40.76960
 2.4265  40.89190
 2.4254  40.63460
 2.4242  40.79220
 2.4231  40.80270
 2.4220  40.31560
 2.4209  40.27080
 2.4197  40.44320
 2.4186  40.45650
 2.4175  40.57730
 2.4163  41.02890
 2.4152  41.38620
 2.4141  41.29580
 2.4130  41.08130
 2.4118  40.77680
 2.4107  40.59330
 2.4096  40.48230
 2.4085  40.27800
 2.4074  40.06410
 2.4063  40.10460
 2.4051  40.43230
 2.4040  40.58670
 2.4029  40.43250
 2.4018  40.62200
 2.4007  40.67050
 2.3996  40.33520
 2.3985  40.49090
 2.3973  40.47800
 2.3962  40.19560
 2.3951  40.38110
 2.3940  40.15220
 2.3929  39.99700
 2.3918  40.12790
 2.3907  40.24310
 2.3896  40.40360
 2.3885  40.48490
 2.3874  40.41680
 2.3863  40.18250
 2.3852  40.41260
 2.3841  40.63580
 2.3830  40.38800
 2.3819  40.00330
 2.3808  39.70660
 2.3798  39.64750
 2.3786  40.53790
 2.3776  40.83710
 2.3765  40.05590
 2.3754  39.74310
 2.3743  39.87600
 2.3732  39.77130
 2.3721  40.37080
 2.3710  40.66510
 2.3700  40.45640
 2.3689  40.63410
 2.3678  41.14670
 2.3667  40.42580
 2.3656  39.74110
 2.3645  39.60700
 2.3635  39.22640
 2.3624  39.10320
 2.3613  39.47380
 2.3603  39.71960
 2.3592  39.57920
 2.3581  39.70450
 2.3570  40.05670
 2.3560  39.68320
 2.3549  38.89510
 2.3538  38.61930
 2.3527  38.79750
 2.3517  38.90330
 2.3506  39.02470
 2.3495  38.72130
 2.3485  38.45750
 2.3474  38.53640
 2.3464  38.57750
 2.3453  38.85350
 2.3442  39.05900
 2.3432  39.23550
 2.3421  38.89610
 2.3411  38.54330
 2.3400  38.28100
 2.3390  38.45560
 2.3379  38.50630
 2.3369  38.83510
 2.3358  39.10070
 2.3347  39.05670
 2.3337  39.32350
 2.3326  39.51590
 2.3316  39.46300
 2.3306  39.69180
 2.3295  39.91960
 2.3285  39.93940
 2.3274  39.64490
 2.3264  39.14820
 2.3253  39.60340
 2.3243  40.05970
 2.3232  40.20040
 2.3222  40.19670
 2.3212  40.27270
 2.3201  40.09940
 2.3191  39.86660
 2.3180  40.29080
 2.3170  40.91590
 2.3160  41.15010
 2.3149  40.69290
 2.3139  40.74740
 2.3129  41.01720
 2.3118  41.25710
 2.3108  41.24330
 2.3098  40.92650
 2.3088  41.13120
 2.3077  41.31930
 2.3067  40.78310
 2.3057  41.00060
 2.3047  41.43800
 2.3036  41.30550
 2.3026  40.85760
 2.3016  40.72220
 2.3006  41.03140
 2.2995  41.24480
 2.2985  41.01890
 2.2975  41.20340
 2.2965  41.44800
 2.2955  41.50410
 2.2944  41.26480
 2.2934  41.23550
 2.2924  41.07980
 2.2914  40.86350
 2.2904  41.20030
 2.2894  40.95600
 2.2884  40.52310
 2.2874  41.25780
 2.2864  41.76380
 2.2854  41.74570
 2.2843  41.74580
 2.2833  41.32020
 2.2823  41.15490
 2.2813  41.23770
 2.2803  41.28610
 2.2793  41.37790
 2.2783  41.22820
 2.2773  41.28490
 2.2763  41.41310
 2.2753  41.56490
 2.2743  41.71440
 2.2733  41.62820
 2.2723  41.34120
 2.2713  41.28200
 2.2703  40.84030
 2.2694  40.59110
 2.2684  40.90860
 2.2674  40.93520
 2.2664  40.63650
 2.2654  40.84940
 2.2644  40.96850
 2.2634  40.68750
 2.2624  40.86070
 2.2614  41.17050
 2.2605  41.41780
 2.2595  41.04610
 2.2585  40.42730
 2.2575  40.18160
 2.2565  40.05880
 2.2555  39.81750
 2.2546  39.52710
 2.2536  40.07270
 2.2526  41.10150
 2.2516  40.86450
 2.2506  40.46250
 2.2497  40.56820
 2.2487  40.98520
 2.2477  41.30990
 2.2467  40.98190
 2.2458  40.68670
 2.2448  40.93650
 2.2438  41.04460
 2.2428  40.83130
 2.2419  40.93250
 2.2409  41.35300
 2.2399  41.87060
 2.2390  41.81940
 2.2380  41.40810
 2.2370  41.22100
 2.2361  41.68780
 2.2351  41.50140
 2.2342  40.83200
 2.2332  40.75640
 2.2322  41.04060
 2.2313  41.45840
 2.2303  41.83350
 2.2294  41.89170
 2.2284  41.99380
 2.2274  41.72830
 2.2265  41.45900
 2.2255  41.55290
 2.2246  41.85600
 2.2236  41.40290
 2.2227  41.29890
 2.2217  41.74120
 2.2208  42.27180
 2.2198  42.53430
 2.2189  42.22160
 2.2179  41.62130
 2.2170  41.90530
 2.2160  41.66750
 2.2151  41.43190
 2.2141  41.36170
 2.2132  41.49430
 2.2122  41.91370
 2.2113  41.57850
 2.2103  41.01940
 2.2094  40.79250
 2.2085  41.14220
 2.2075  41.57740
 2.2066  41.48000
 2.2056  41.33450
 2.2047  41.33360
 2.2038  41.32540
 2.2028  41.50480
 2.2019  41.13430
 2.2010  41.08050
 2.2000  41.26900
 2.1991  40.77010
 2.1982  40.88990
 2.1972  40.75610
 2.1963  40.39610
 2.1954  41.27590
 2.1944  41.60470
 2.1935  41.35550
 2.1926  41.25860
 2.1917  40.71910
 2.1907  40.91830
 2.1898  41.88740
 2.1889  42.14370
 2.1880  41.60960
 2.1870  41.23150
 2.1861  41.30730
 2.1852  41.43230
 2.1843  41.14350
 2.1833  40.69300
 2.1824  41.27980
 2.1815  41.69580
 2.1806  41.10210
 2.1797  40.84460
 2.1788  41.38100
 2.1778  41.68810
 2.1769  41.93110
 2.1760  42.06010
 2.1751  41.38740
 2.1742  40.86910
 2.1733  41.07980
 2.1724  41.45390
 2.1715  41.38220
 2.1706  41.71400
 2.1696  42.27260
 2.1687  41.42580
 2.1678  40.71350
 2.1669  40.96120
 2.1660  41.09730
 2.1651  40.90970
 2.1642  40.39290
 2.1633  40.70140
 2.1624  41.08890
 2.1615  41.23710
 2.1606  41.56160
 2.1597  41.53210
 2.1588  41.94900
 2.1579  42.40970
 2.1570  42.29610
 2.1561  41.62250
 2.1552  40.81460
 2.1543  40.57210
 2.1534  41.11410
 2.1525  41.39120
 2.1517  41.24910
 2.1507  41.25020
 2.1499  41.32670
 2.1490  41.55820
 2.1481  41.71490
 2.1472  41.57620
 2.1463  41.04820
 2.1454  40.75000
 2.1445  40.95960
 2.1436  40.91310
 2.1428  40.73960
 2.1419  41.03130
 2.1410  41.17140
 2.1401  41.31430
 2.1392  41.44460
 2.1383  41.26030
 2.1375  40.91150
 2.1366  40.02480
 2.1357  39.71480
 2.1348  40.41750
 2.1339  40.83340
 2.1331  40.54750
 2.1322  40.55290
 2.1313  40.11180
 2.1304  40.44980
 2.1296  41.23330
 2.1287  41.49100
 2.1278  41.18510
 2.1269  41.11470
 2.1261  41.14880
 2.1252  41.16110
 2.1243  40.96980
 2.1235  40.13340
 2.1226  40.46010
 2.1217  41.40500
 2.1208  41.16680
 2.1200  40.96140
 2.1191  41.04130
 2.1183  40.30570
 2.1174  40.11740
 2.1165  40.79010
 2.1157  41.32330
 2.1148  40.48970
 2.1139  39.79880
 2.1131  40.20660
 2.1122  40.64990
 2.1113  40.61970
 2.1105  40.47730
 2.1096  40.12190
 2.1088  39.86990
 2.1079  40.32340
 2.1071  40.81020
 2.1062  41.06230
 2.1054  41.12720
 2.1045  40.37380
 2.1036  39.91160
 2.1028  39.65850
 2.1019  40.12410
 2.1011  40.55290
 2.1002  40.45240
 2.0994  40.39650
 2.0985  40.66290
 2.0977  40.15250
 2.0968  39.68980
 2.0960  40.77360
 2.0951  41.32790
 2.0943  41.44580
 2.0934  41.44870
 2.0926  41.48930
 2.0918  40.97900
 2.0909  40.25950
 2.0901  40.25540
 2.0892  40.57420
 2.0884  41.57560
 2.0875  41.01020
 2.0867  40.12940
 2.0859  40.38800
 2.0850  40.71730
 2.0842  39.85350
 2.0833  39.54630
 2.0825  40.84090
 2.0817  40.29680
 2.0808  40.05340
 2.0800  40.42310
 2.0792  41.34320
 2.0783  41.35810
 2.0775  40.28070
 2.0767  40.36520
 2.0759  40.53790
 2.0750  40.60830
 2.0742  40.27920
 2.0734  40.16640
 2.0725  40.57170
 2.0717  40.19460
 2.0709  39.89400
 2.0701  41.21390
 2.0692  41.51110
 2.0684  40.88160
 2.0676  40.14360
 2.0667  39.95880
 2.0659  39.67200
 2.0651  39.93930
 2.0643  40.43550
 2.0635  40.86770
 2.0626  40.02550
 2.0618  39.02140
 2.0610  39.75760
 2.0602  39.96190
 2.0594  40.29360
 2.0585  40.26080
 2.0577  39.85950
 2.0569  40.73680
 2.0561  40.74410
 2.0553  40.19260
 2.0545  39.34460
 2.0537  39.07650
 2.0528  40.30530
 2.0520  38.76160
 2.0512  37.76440
 2.0504  38.91640
 2.0496  39.26160
 2.0488  40.40170
 2.0480  41.34870
 2.0472  40.40640
 2.0464  40.37700
 2.0456  38.86700
 2.0447  38.34580
 2.0439  40.06730
 2.0431  40.67350
 2.0423  39.61640
 2.0415  40.24360
 2.0407  41.57850
 2.0399  41.99280
 2.0391  39.89080
 2.0383  37.92540
 2.0375  39.34630
 2.0367  40.20660
 2.0359  40.35800
 2.0351  40.16290
 2.0343  39.99470
 2.0335  39.51290
 2.0327  39.59140
 2.0319  40.26500
 2.0311  40.46580
 2.0303  39.75010
 2.0295  38.08180
 2.0287  37.59290
 2.0280  37.88420
 2.0272  38.35370
 2.0264  38.43370
 2.0256  39.74010
 2.0248  40.32750
 2.0240  41.48560
 2.0232  41.14360
 2.0224  39.08170
 2.0216  38.26910
 2.0208  37.88280
 2.0200  38.44940
 2.0193  38.07990
 2.0185  40.46600
 2.0177  41.63530
 2.0169  40.53700
 2.0161  39.03300
 2.0153  38.70230
 2.0146  39.16090
 2.0138  39.31340
 2.0130  38.97540
 2.0122  38.72110
 2.0114  38.93610
 2.0107  39.04140
 2.0099  37.55450
 2.0091  37.83410
 2.0083  39.86210
 2.0075  40.51220
 2.0068  40.03290
 2.0060  39.53690
 2.0052  39.73970
 2.0044  40.10120
 2.0037  39.44440
 2.0029  38.93400
 2.0021  39.55190
 2.0013  39.26800
 2.0006  39.41800
 1.9998  38.73540
