Name: Riebeckite Na_2(Fe^2+,Mg)_3,Fe_2^3+Si_8O_22(OH)_2
Type: Mineral
Class: Silicates
Subclass: Inosilicates
Particle Size: 45-125um
Sample No.: IN-7A
Owner: JPL
Wavelength range: IR
Origin: Canada, Ontario
Collected by Ward's
Description: 





Measurement: Hemispherical reflectance
First Column: X
Second Column: Y
X Units:  Wavelength (micrometers)
Y Units:  Reflectance (percent)
First X Value: 15.3853
Last X Value: 2.00032
Number of X Values: 2256
Additional information: in07aa.txt
 
15.3853	2.20174
15.3397	2.21394
15.2945	2.07028
15.2495	2.19955
15.2048	2.21275
15.1603	2.1366
15.1161	2.20458
15.0722	2.37612
15.0285	2.48438
14.9851	2.48115
14.9419	2.43972
14.8989	2.34288
14.8563	2.21842
14.8138	2.14465
14.7716	2.2759
14.7296	2.41264
14.6879	2.34896
14.6464	2.33471
14.6052	2.30049
14.5641	2.21039
14.5233	2.14159
14.4828	2.17038
14.4424	2.45845
14.4023	2.61299
14.3624	2.66884
14.3227	2.4735
14.2833	2.20529
14.244	2.17732
14.205	2.24552
14.1662	2.5143
14.1276	2.65065
14.0892	2.52605
14.051	2.3672
14.0131	2.4487
13.9753	2.69418
13.9377	2.94048
13.9004	2.84747
13.8632	2.79822
13.8262	2.86712
13.7895	2.78838
13.7529	2.69107
13.7165	2.61658
13.6803	2.72141
13.6443	2.93435
13.6085	2.98146
13.5729	2.91073
13.5374	2.92275
13.5022	3.05375
13.4671	3.16384
13.4322	3.09674
13.3975	3.0711
13.363	3.28805
13.3286	3.32107
13.2944	3.17345
13.2604	3.06299
13.2266	2.89754
13.193	2.83494
13.1595	2.89578
13.1262	2.95063
13.093	3.06112
13.06	3.15784
13.0272	3.24472
12.9946	3.39261
12.9621	3.40665
12.9298	3.37518
12.8976	3.51643
12.8656	3.74068
12.8337	3.92814
12.8021	3.96203
12.7705	3.97273
12.7391	3.90938
12.7079	3.90844
12.6769	4.09761
12.6459	4.18059
12.6152	4.24617
12.5845	4.28261
12.5541	4.32482
12.5238	4.33986
12.4936	4.38242
12.4635	4.4524
12.4337	4.47737
12.4039	4.52452
12.3743	4.52076
12.3448	4.49227
12.3155	4.53892
12.2863	4.86521
12.2573	5.07602
12.2284	5.08329
12.1996	5.06097
12.171	5.05053
12.1425	5.00932
12.1141	5.05709
12.0859	5.09921
12.0578	5.20091
12.0298	5.43989
12.0019	5.51395
11.9742	5.48402
11.9466	5.61992
11.9192	5.70739
11.8918	5.66068
11.8646	5.78635
11.8375	6.00656
11.8106	6.08814
11.7837	6.08493
11.757	6.08328
11.7304	6.0431
11.7039	6.12403
11.6776	6.25152
11.6513	6.4229
11.6252	6.68874
11.5992	6.89043
11.5733	6.89087
11.5475	6.85505
11.5219	6.95932
11.4963	7.05677
11.4709	7.22518
11.4455	7.42412
11.4203	7.53081
11.3952	7.402
11.3702	7.37198
11.3454	7.53463
11.3206	7.77012
11.2959	8.07208
11.2714	8.12989
11.2469	8.05072
11.2226	8.10546
11.1983	8.25685
11.1742	8.38083
11.1502	8.62432
11.1263	8.81186
11.1024	8.9278
11.0787	9.12401
11.0551	9.30973
11.0316	9.5537
11.0081	9.65816
10.9848	9.84401
10.9616	10.0091
10.9385	10.0109
10.9154	10.1598
10.8925	10.375
10.8697	10.4211
10.8469	10.3743
10.8243	10.4241
10.8017	10.628
10.7793	10.7513
10.7569	10.7932
10.7346	10.8709
10.7125	11.0882
10.6904	11.3992
10.6684	11.6585
10.6465	11.8039
10.6247	12.0844
10.6029	12.4652
10.5813	12.8815
10.5597	13.2945
10.5383	13.7423
10.5169	14.0635
10.4956	14.346
10.4744	14.7825
10.4533	15.3476
10.4323	15.9404
10.4113	16.4728
10.3904	17.078
10.3697	17.6489
10.349	18.1554
10.3284	18.6307
10.3078	18.977
10.2874	19.3184
10.267	19.6638
10.2467	19.8865
10.2265	20.1079
10.2064	20.2943
10.1863	20.4262
10.1663	20.4787
10.1464	20.4758
10.1266	20.4436
10.1069	20.3784
10.0872	20.2853
10.0676	20.1648
10.0481	19.9818
10.0287	19.7205
10.0093	19.4915
9.99005	19.2486
9.97084	18.8311
9.95169	18.3224
9.93263	17.761
9.91364	17.3032
9.89472	16.7467
9.87587	16.0599
9.8571	15.6149
9.83839	15.2483
9.81976	14.8776
9.80119	14.4973
9.78271	13.9374
9.76428	13.5459
9.74592	13.427
9.72764	13.3419
9.70943	13.3058
9.69128	13.4587
9.6732	13.6855
9.65518	13.9045
9.63724	14.0328
9.61935	14.2622
9.60155	14.6398
9.5838	14.9707
9.56611	15.1339
9.5485	15.2276
9.53094	15.4866
9.51345	15.7593
9.49604	15.784
9.47867	15.8881
9.46137	16.0543
9.44414	16.0372
9.42697	15.9592
9.40986	15.8251
9.39281	15.7722
9.37583	15.7498
9.35891	15.4845
9.34204	15.0438
9.32524	14.6121
9.3085	14.1671
9.29182	13.5844
9.27519	12.9789
9.25863	12.3083
9.24213	11.5935
9.22568	10.9648
9.2093	10.2557
9.19297	9.53043
9.17669	8.74285
9.16048	8.08306
9.14433	7.56133
9.12823	6.90403
9.11218	6.24028
9.0962	5.75693
9.08027	5.4061
9.06439	4.99217
9.04858	4.55414
9.03281	4.12466
9.0171	3.89137
9.00145	3.85307
8.98585	3.80735
8.9703	3.89255
8.9548	4.01407
8.93937	4.09769
8.92398	4.37816
8.90865	4.70998
8.89337	4.96013
8.87814	5.28656
8.86296	5.63178
8.84784	5.98903
8.83277	6.24965
8.81774	6.31661
8.80277	6.3477
8.78786	6.28572
8.77298	6.1305
8.75816	5.76346
8.7434	5.33377
8.72868	4.83679
8.714	4.10768
8.69938	3.31158
8.68481	2.66644
8.67029	2.18308
8.65581	1.79296
8.64139	1.54538
8.62701	1.37031
8.61268	1.14551
8.5984	0.841546
8.58416	0.654518
8.56997	0.651456
8.55583	0.611042
8.54174	0.621318
8.52769	0.65808
8.51368	0.618832
8.49973	0.512881
8.48582	0.411651
8.47195	0.33701
8.45813	0.370751
8.44436	0.397209
8.43062	0.361391
8.41693	0.456358
8.4033	0.50701
8.3897	0.481917
8.37614	0.605073
8.36264	0.586061
8.34917	0.418853
8.33574	0.426418
8.32236	0.494449
8.30903	0.62474
8.29573	0.670937
8.28248	0.766226
8.26927	0.888964
8.2561	0.866832
8.24298	0.884841
8.2299	0.941618
8.21685	0.932526
8.20385	0.95871
8.19089	1.00076
8.17797	1.03467
8.16509	1.17094
8.15225	1.24939
8.13946	1.24958
8.1267	1.15379
8.11398	1.22765
8.10131	1.49483
8.08867	1.55751
8.07606	1.50271
8.0635	1.45031
8.05099	1.47362
8.0385	1.6081
8.02606	1.70212
8.01366	1.80448
8.00129	1.82454
7.98896	1.84785
7.97667	1.92899
7.96442	1.99522
7.9522	2.00713
7.94002	2.16164
7.92788	2.18629
7.91578	2.10801
7.90371	2.26071
7.89168	2.42025
7.87969	2.44296
7.86773	2.487
7.85581	2.57732
7.84392	2.57643
7.83207	2.54971
7.82026	2.67058
7.80849	2.80937
7.79674	2.76616
7.78503	2.82065
7.77337	2.9371
7.76173	3.02624
7.75012	3.13727
7.73856	3.19175
7.72703	3.27239
7.71553	3.27291
7.70406	3.23575
7.69263	3.32415
7.68123	3.41728
7.66987	3.51406
7.65855	3.59786
7.64725	3.62063
7.63598	3.68496
7.62475	3.68373
7.61356	3.80599
7.60239	3.95503
7.59126	3.97853
7.58017	4.00753
7.5691	4.02946
7.55806	4.13489
7.54707	4.22051
7.5361	4.28659
7.52516	4.36459
7.51425	4.34745
7.50338	4.36072
7.49253	4.46345
7.48172	4.51261
7.47094	4.55569
7.46019	4.74499
7.44947	4.86137
7.43879	4.93181
7.42813	4.91784
7.4175	4.94436
7.4069	5.06489
7.39634	5.17729
7.3858	5.23579
7.37529	5.33917
7.36482	5.40218
7.35437	5.47855
7.34396	5.59577
7.33357	5.6591
7.32321	5.66889
7.31288	5.71267
7.30258	5.7612
7.29231	5.91868
7.28207	6.06552
7.27185	6.06988
7.26167	6.0723
7.25152	6.12205
7.24139	6.16251
7.23129	6.31172
7.22122	6.44258
7.21117	6.62569
7.20116	6.77008
7.19117	6.73717
7.18121	6.84242
7.17128	7.01345
7.16137	7.12442
7.1515	7.25674
7.14164	7.258
7.13182	7.28271
7.12203	7.38972
7.11225	7.46781
7.10251	7.54691
7.0928	7.68566
7.08311	7.73552
7.07344	7.78376
7.06381	7.89897
7.0542	8.12535
7.04461	8.29312
7.03506	8.19647
7.02552	8.20986
7.01601	8.32712
7.00653	8.46572
6.99708	8.64346
6.98765	8.66726
6.97824	8.66886
6.96886	8.91753
6.95951	9.13664
6.95018	9.03639
6.94087	9.02627
6.9316	9.05962
6.92234	9.15848
6.91311	9.28533
6.90391	9.3455
6.89473	9.31463
6.88557	9.42205
6.87644	9.64022
6.86733	10.1124
6.85824	10.0992
6.84918	9.79894
6.84015	9.71829
6.83114	9.82516
6.82215	9.88244
6.81319	9.82049
6.80424	9.86019
6.79532	10.0907
6.78643	10.2236
6.77756	10.1985
6.76871	10.1704
6.75989	10.1725
6.75109	10.2737
6.74231	10.3119
6.73355	10.4308
6.72482	10.625
6.71611	10.7529
6.70742	10.7626
6.69875	10.6607
6.69011	10.7538
6.68149	10.9338
6.67289	10.8796
6.66431	10.7753
6.65576	10.764
6.64722	11.2143
6.63871	11.7859
6.63022	11.5008
6.62175	11.0629
6.61331	11.0028
6.60488	10.982
6.59648	11.1376
6.5881	11.1888
6.57974	11.263
6.5714	11.3763
6.56308	11.1237
6.55478	10.94
6.54651	10.7772
6.53825	10.5749
6.53001	10.4717
6.5218	10.4766
6.51361	10.2391
6.50544	10.2496
6.49729	10.6637
6.48915	10.7124
6.48104	10.3168
6.47295	9.96705
6.46488	9.63017
6.45683	9.47145
6.4488	9.41145
6.44079	9.39959
6.4328	9.3514
6.42482	9.34308
6.41687	9.67108
6.40894	9.48938
6.40103	8.86139
6.39314	8.66659
6.38526	8.56484
6.37741	8.50989
6.36957	8.51269
6.36176	8.30582
6.35396	8.20048
6.34618	8.31321
6.33843	8.18419
6.33069	7.95169
6.32297	7.83056
6.31527	7.79157
6.30758	7.73131
6.29992	7.72562
6.29227	7.72918
6.28465	7.67476
6.27704	7.60582
6.26945	7.51286
6.26188	7.52571
6.25432	7.53063
6.24679	7.52486
6.23927	7.52543
6.23177	7.45309
6.22429	7.41818
6.21683	7.496
6.20938	7.48953
6.20195	7.44143
6.19454	7.58772
6.18715	7.94831
6.17978	7.85355
6.17242	7.59938
6.16508	7.70129
6.15776	7.82595
6.15045	7.83093
6.14317	7.87823
6.1359	7.90068
6.12864	7.97507
6.12141	8.17818
6.11419	8.32656
6.10699	8.27455
6.0998	8.28467
6.09263	8.2712
6.08549	8.24667
6.07835	8.49055
6.07123	8.64148
6.06413	8.54129
6.05705	8.80529
6.04998	9.40506
6.04293	9.04004
6.0359	8.56625
6.02888	8.49886
6.02187	8.5777
6.01489	8.69343
6.00792	8.65187
6.00096	8.62382
5.99403	8.83733
5.98711	8.87536
5.9802	8.71173
5.97331	8.85574
5.96644	8.97716
5.95958	8.79082
5.95274	8.71746
5.94591	8.90351
5.9391	9.3641
5.9323	9.28066
5.92552	8.90357
5.91876	8.81187
5.91201	8.78147
5.90528	8.86798
5.89856	9.28531
5.89186	9.33027
5.88517	9.3976
5.8785	9.4423
5.87184	9.1479
5.8652	9.0961
5.85857	9.07917
5.85196	9.12407
5.84536	9.07359
5.83878	9.11413
5.83221	9.27356
5.82566	9.55086
5.81912	9.63119
5.81259	9.30911
5.80608	9.14575
5.79959	9.18458
5.79311	9.22891
5.78665	9.26738
5.78019	9.30951
5.77376	9.52224
5.76734	9.92316
5.76093	9.69581
5.75453	9.42197
5.74815	9.49214
5.74179	9.44655
5.73543	9.48816
5.7291	9.57247
5.72277	9.61908
5.71646	9.68786
5.71017	9.77088
5.70389	9.64449
5.69762	9.63133
5.69136	9.71096
5.68513	9.76239
5.6789	9.89723
5.67268	9.96724
5.66648	9.90651
5.6603	10.0246
5.65413	10.1585
5.64797	10.2812
5.64182	10.4805
5.63569	10.3719
5.62957	10.2861
5.62347	10.2549
5.61737	10.2688
5.61129	10.3703
5.60522	10.5005
5.59917	10.5137
5.59313	10.5639
5.5871	10.7115
5.58109	10.8974
5.57509	10.9758
5.5691	10.917
5.56312	10.9724
5.55716	11.0727
5.55121	11.2268
5.54528	11.2962
5.53935	11.3496
5.53344	11.4466
5.52754	11.606
5.52166	11.7636
5.51578	11.9405
5.50992	12.0859
5.50407	12.1721
5.49823	12.3337
5.49241	12.5221
5.4866	12.6721
5.4808	12.9149
5.47501	13.1077
5.46923	13.2501
5.46347	13.4206
5.45772	13.4803
5.45198	13.5537
5.44625	13.7392
5.44054	13.9681
5.43484	14.1633
5.42914	14.3318
5.42347	14.6279
5.4178	14.7835
5.41214	14.8383
5.4065	14.8794
5.40087	14.9855
5.39525	15.161
5.38964	15.29
5.38404	15.3997
5.37846	15.5323
5.37288	15.5869
5.36732	15.6227
5.36177	15.788
5.35623	16.0321
5.35071	16.1765
5.34519	16.061
5.33968	15.9624
5.33419	16.034
5.32871	16.0844
5.32324	16.068
5.31778	16.0778
5.31233	16.1311
5.30689	16.1931
5.30147	16.2593
5.29605	16.3584
5.29065	16.4532
5.28525	16.4232
5.27987	16.4302
5.2745	16.415
5.26914	16.4228
5.26379	16.4739
5.25845	16.5032
5.25312	16.4997
5.24781	16.5609
5.2425	16.6508
5.23721	16.6973
5.23192	16.7442
5.22665	16.8095
5.22138	16.8103
5.21613	16.8628
5.21089	16.8787
5.20566	16.8926
5.20044	16.9456
5.19522	16.8453
5.19002	16.7357
5.18483	16.7045
5.17965	16.7711
5.17448	16.7959
5.16933	16.8006
5.16418	16.7941
5.15904	16.7768
5.15391	16.795
5.14879	16.8637
5.14368	16.877
5.13859	16.8295
5.1335	16.7967
5.12842	16.8516
5.12335	16.9124
5.1183	16.8451
5.11325	16.8084
5.10821	16.8427
5.10318	16.8374
5.09817	16.8536
5.09316	16.9586
5.08816	17.0317
5.08317	17.0054
5.07819	16.9762
5.07322	17.0292
5.06826	17.1133
5.06331	17.1807
5.05837	17.186
5.05344	17.2366
5.04852	17.3305
5.04361	17.4048
5.03871	17.4065
5.03382	17.4799
5.02894	17.5707
5.02406	17.6453
5.0192	17.7902
5.01435	17.8659
5.0095	17.8791
5.00467	17.9124
4.99984	18.0185
4.99502	18.1712
4.99021	18.2494
4.98542	18.2919
4.98063	18.3703
4.97585	18.4961
4.97108	18.6259
4.96632	18.6969
4.96156	18.8526
4.95682	18.9881
4.95209	19.0969
4.94736	19.1682
4.94264	19.3321
4.93794	19.5488
4.93324	19.638
4.92855	19.75
4.92387	19.9329
4.9192	20.1093
4.91453	20.3088
4.90988	20.4608
4.90524	20.6157
4.9006	20.8515
4.89597	21.0277
4.89135	21.1334
4.88674	21.2679
4.88214	21.494
4.87755	21.7464
4.87296	21.9285
4.86839	22.0686
4.86382	22.2993
4.85926	22.5771
4.85471	22.7804
4.85017	22.9013
4.84564	23.0639
4.84111	23.2494
4.8366	23.4479
4.83209	23.6956
4.82759	23.8882
4.8231	24.0479
4.81862	24.2377
4.81415	24.3594
4.80968	24.5468
4.80522	24.7402
4.80077	24.9691
4.79633	25.1867
4.7919	25.3984
4.78747	25.552
4.78306	25.6877
4.77865	25.882
4.77425	26.158
4.76986	26.3824
4.76547	26.5466
4.7611	26.7211
4.75673	26.9389
4.75237	27.1543
4.74802	27.3717
4.74367	27.5962
4.73934	27.7507
4.73501	27.9056
4.73069	28.1308
4.72638	28.3779
4.72207	28.5886
4.71777	28.7953
4.71348	28.9916
4.7092	29.1727
4.70493	29.3877
4.70066	29.6555
4.69641	29.9705
4.69216	30.1545
4.68791	30.3277
4.68368	30.5342
4.67945	30.7789
4.67523	31.066
4.67102	31.3163
4.66682	31.5511
4.66262	31.8266
4.65843	32.079
4.65425	32.3796
4.65007	32.6582
4.64591	32.9551
4.64175	33.2184
4.6376	33.5164
4.63345	33.8285
4.62932	34.1607
4.62519	34.4876
4.62106	34.7726
4.61695	35.0833
4.61284	35.4845
4.60874	35.8071
4.60465	36.1299
4.60056	36.4581
4.59648	36.7599
4.59241	37.0359
4.58835	37.3269
4.58429	37.6339
4.58024	37.8881
4.5762	38.1826
4.57216	38.4953
4.56814	38.7937
4.56411	39.0467
4.5601	39.2886
4.55609	39.5953
4.55209	39.8904
4.5481	40.1482
4.54411	40.3495
4.54013	40.6578
4.53616	40.897
4.5322	41.0872
4.52824	41.2576
4.52429	41.4232
4.52034	41.6765
4.51641	41.9398
4.51247	42.1244
4.50855	42.3044
4.50463	42.5445
4.50072	42.7511
4.49682	42.8663
4.49292	42.9669
4.48903	43.092
4.48515	43.2088
4.48127	43.3322
4.4774	43.466
4.47354	43.623
4.46968	43.7423
4.46584	43.8889
4.46199	44.0628
4.45815	44.0985
4.45432	44.1753
4.4505	44.3327
4.44668	44.4104
4.44287	44.4862
4.43907	44.5846
4.43527	44.5864
4.43148	44.6441
4.4277	44.7702
4.42392	44.8663
4.42015	44.9488
4.41638	45.06
4.41262	45.149
4.40887	45.2205
4.40513	45.2564
4.40139	45.2777
4.39765	45.3513
4.39393	45.4104
4.39021	45.4678
4.38649	45.5377
4.38278	45.6318
4.37908	45.6717
4.37539	45.7182
4.3717	45.8164
4.36801	45.8841
4.36434	45.9132
4.36067	45.9365
4.357	46.0216
4.35335	46.1103
4.34969	46.1673
4.34605	46.1167
4.34241	46.144
4.33877	46.2415
4.33514	46.3038
4.33152	46.3612
4.32791	46.3737
4.3243	46.3828
4.32069	46.432
4.3171	46.4864
4.31351	46.6315
4.30992	46.7754
4.30634	46.8194
4.30277	46.8531
4.2992	46.8934
4.29564	46.9295
4.29208	46.9964
4.28853	47.0177
4.28499	47.1322
4.28145	47.2557
4.27792	47.3271
4.27439	47.3004
4.27087	47.3574
4.26735	47.4291
4.26384	47.3765
4.26034	47.27
4.25684	47.2569
4.25335	47.3392
4.24986	47.4798
4.24638	47.6044
4.24291	47.7356
4.23944	47.8791
4.23598	47.9876
4.23252	47.9898
4.22906	47.9475
4.22562	47.9576
4.22218	48.0081
4.21874	48.04
4.21531	48.0188
4.21189	47.9756
4.20847	47.8958
4.20506	47.8909
4.20165	47.9797
4.19825	48.0761
4.19485	48.1467
4.19146	48.1884
4.18807	48.1951
4.18469	48.2143
4.18132	48.2858
4.17795	48.3779
4.17458	48.425
4.17123	48.4728
4.16787	48.5217
4.16453	48.5346
4.16118	48.5353
4.15785	48.5884
4.15451	48.667
4.15119	48.7312
4.14787	48.7686
4.14455	48.8424
4.14124	48.9396
4.13794	48.9405
4.13464	48.9305
4.13134	48.9461
4.12805	48.9864
4.12477	49.0818
4.12149	49.1463
4.11822	49.193
4.11495	49.2203
4.11168	49.2407
4.10843	49.3352
4.10517	49.4017
4.10192	49.4541
4.09868	49.4682
4.09545	49.5371
4.09221	49.6147
4.08899	49.6307
4.08576	49.6546
4.08255	49.7448
4.07933	49.8066
4.07613	49.8479
4.07292	49.8453
4.06973	49.8736
4.06654	49.944
4.06335	49.9543
4.06017	50.0011
4.05699	50.0503
4.05382	50.047
4.05065	50.0963
4.04749	50.1881
4.04433	50.2649
4.04118	50.2084
4.03803	50.1484
4.03489	50.2302
4.03175	50.3031
4.02862	50.2937
4.02549	50.2991
4.02237	50.2929
4.01925	50.2944
4.01614	50.2821
4.01303	50.306
4.00993	50.3792
4.00683	50.4228
4.00373	50.4117
4.00064	50.3974
3.99756	50.4039
3.99448	50.4163
3.9914	50.3732
3.98833	50.3313
3.98527	50.3367
3.98221	50.3824
3.97915	50.4354
3.9761	50.4955
3.97305	50.5695
3.97001	50.6645
3.96697	50.679
3.96394	50.6758
3.96091	50.7313
3.95789	50.9338
3.95487	51.0609
3.95186	51.0934
3.94885	51.163
3.94584	51.2293
3.94284	51.3603
3.93984	51.4872
3.93685	51.594
3.93386	51.6416
3.93088	51.727
3.9279	51.752
3.92493	51.7381
3.92196	51.8334
3.919	51.9092
3.91604	51.9035
3.91308	51.9624
3.91013	52.0226
3.90718	52.0436
3.90424	52.0993
3.9013	52.1125
3.89837	52.1478
3.89544	52.2079
3.89252	52.2852
3.8896	52.3647
3.88668	52.4492
3.88377	52.4756
3.88086	52.5376
3.87796	52.6122
3.87506	52.6257
3.87217	52.6494
3.86928	52.744
3.86639	52.7859
3.86351	52.8091
3.86064	52.7955
3.85776	52.7827
3.8549	52.8155
3.85203	52.8494
3.84917	52.842
3.84631	52.8708
3.84346	52.9628
3.84062	53.0483
3.83777	53.0547
3.83494	53.1245
3.8321	53.2164
3.82927	53.1848
3.82644	53.1486
3.82362	53.1941
3.82081	53.2601
3.81799	53.3264
3.81518	53.3918
3.81238	53.4156
3.80958	53.4614
3.80678	53.4782
3.80399	53.5307
3.8012	53.6318
3.79841	53.7332
3.79563	53.7352
3.79286	53.7869
3.79008	53.8644
3.78731	53.826
3.78455	53.8347
3.78179	53.9219
3.77903	53.9188
3.77628	53.9343
3.77353	53.9443
3.77079	53.9653
3.76805	54.0339
3.76531	54.1559
3.76258	54.1991
3.75985	54.2101
3.75713	54.2489
3.7544	54.2781
3.75169	54.2549
3.74898	54.2244
3.74627	54.2729
3.74356	54.3117
3.74086	54.3466
3.73816	54.4163
3.73547	54.4309
3.73278	54.3985
3.7301	54.4816
3.72741	54.4966
3.72474	54.4239
3.72206	54.3536
3.71939	54.391
3.71673	54.4591
3.71406	54.4981
3.71141	54.4905
3.70875	54.5169
3.7061	54.4858
3.70345	54.5231
3.70081	54.6796
3.69817	54.6965
3.69553	54.6456
3.6929	54.6315
3.69027	54.6323
3.68765	54.6899
3.68503	54.6617
3.68241	54.6288
3.6798	54.6871
3.67719	54.7814
3.67458	54.7588
3.67198	54.7585
3.66938	54.7703
3.66678	54.8125
3.66419	54.8369
3.66161	54.8531
3.65902	54.8342
3.65644	54.7952
3.65387	54.8223
3.65129	54.881
3.64872	54.8966
3.64616	54.9
3.64359	54.9389
3.64103	55.0527
3.63848	55.0372
3.63593	54.9941
3.63338	54.9738
3.63084	54.958
3.6283	54.9592
3.62576	55.0044
3.62322	55.0014
3.62069	55.008
3.61817	55.0756
3.61564	55.1169
3.61312	55.1
3.61061	55.0728
3.6081	55.0994
3.60559	55.1223
3.60308	55.108
3.60058	55.0871
3.59808	55.1427
3.59558	55.1807
3.59309	55.2071
3.59061	55.1816
3.58812	55.1101
3.58564	55.146
3.58316	55.1637
3.58069	55.1324
3.57822	55.1312
3.57575	55.1648
3.57328	55.1622
3.57082	55.1889
3.56836	55.2111
3.56591	55.1948
3.56346	55.1589
3.56101	55.1292
3.55857	55.1167
3.55613	55.1811
3.55369	55.1875
3.55126	55.1045
3.54883	55.0405
3.5464	55.0386
3.54397	55.0796
3.54155	55.0176
3.53914	54.9332
3.53672	54.906
3.53431	54.8929
3.5319	54.9188
3.5295	54.8865
3.5271	54.8883
3.5247	54.8652
3.52231	54.7043
3.51991	54.6776
3.51753	54.6842
3.51514	54.5838
3.51276	54.5005
3.51038	54.4191
3.50801	54.315
3.50563	54.2021
3.50327	54.1618
3.5009	54.1457
3.49854	54.104
3.49618	54.1932
3.49382	54.1836
3.49147	54.075
3.48912	54.0835
3.48677	54.1035
3.48443	54.0675
3.48209	54.0396
3.47975	54.0561
3.47742	54.0536
3.47509	54.0392
3.47276	54.0363
3.47044	54.02
3.46812	54.0525
3.4658	54.1403
3.46348	54.2605
3.46117	54.3107
3.45886	54.2803
3.45656	54.1897
3.45425	54.0947
3.45195	54.0636
3.44966	54.1077
3.44736	54.1809
3.44507	54.1372
3.44279	54.0439
3.4405	54.0368
3.43822	54.095
3.43594	54.0035
3.43367	53.9315
3.43139	53.8936
3.42912	53.8067
3.42686	53.7506
3.42459	53.7258
3.42233	53.6319
3.42007	53.5007
3.41782	53.4465
3.41557	53.3396
3.41332	53.3033
3.41108	53.3199
3.40883	53.3236
3.40659	53.3194
3.40435	53.3065
3.40212	53.337
3.39989	53.3839
3.39766	53.3908
3.39544	53.4174
3.39322	53.3757
3.391	53.3578
3.38878	53.3531
3.38657	53.2867
3.38436	53.2028
3.38215	53.1066
3.37994	52.9721
3.37774	52.8808
3.37554	52.9115
3.37335	52.925
3.37115	52.9411
3.36896	52.9463
3.36678	52.927
3.36459	52.9122
3.36241	52.7766
3.36023	52.7151
3.35805	52.8131
3.35588	52.8016
3.35371	52.733
3.35154	52.7502
3.34938	52.7257
3.34721	52.6601
3.34505	52.6909
3.3429	52.6894
3.34074	52.7073
3.33859	52.7335
3.33644	52.7391
3.3343	52.7447
3.33215	52.7164
3.33001	52.6187
3.32788	52.6083
3.32574	52.5813
3.32361	52.4921
3.32148	52.461
3.31936	52.4578
3.31723	52.4666
3.31511	52.4698
3.31299	52.3651
3.31088	52.318
3.30876	52.3342
3.30665	52.2565
3.30455	52.1209
3.30244	52.0606
3.30034	52.0371
3.29824	52.0133
3.29614	51.9478
3.29405	51.9195
3.29196	51.8429
3.28987	51.7686
3.28778	51.7602
3.2857	51.7112
3.28362	51.6291
3.28154	51.6427
3.27946	51.6471
3.27739	51.6167
3.27532	51.6298
3.27325	51.5995
3.27119	51.6043
3.26913	51.5678
3.26707	51.5797
3.26501	51.575
3.26295	51.5586
3.2609	51.6398
3.25885	51.6133
3.2568	51.5931
3.25476	51.6094
3.25272	51.6276
3.25068	51.6887
3.24864	51.7207
3.24661	51.7745
3.24458	51.8164
3.24255	51.7556
3.24052	51.675
3.2385	51.6586
3.23648	51.682
3.23446	51.6835
3.23244	51.7542
3.23043	51.9296
3.22841	51.9048
3.2264	51.7342
3.2244	51.6888
3.22239	51.6702
3.22039	51.6592
3.21839	51.627
3.2164	51.5906
3.2144	51.5819
3.21241	51.4999
3.21042	51.4795
3.20844	51.4875
3.20645	51.4024
3.20447	51.3097
3.20249	51.2396
3.20051	51.1555
3.19854	51.1193
3.19657	51.1435
3.1946	51.0757
3.19263	50.958
3.19067	50.91
3.1887	50.8469
3.18674	50.7292
3.18479	50.6724
3.18283	50.6024
3.18088	50.5182
3.17893	50.3489
3.17698	50.3162
3.17504	50.3635
3.17309	50.2675
3.17115	50.1076
3.16921	49.8996
3.16728	49.815
3.16534	49.752
3.16341	49.7415
3.16148	49.7388
3.15956	49.6207
3.15763	49.6029
3.15571	49.6345
3.15379	49.541
3.15187	49.4381
3.14996	49.34
3.14805	49.3317
3.14614	49.3002
3.14423	49.2457
3.14232	49.1992
3.14042	49.0963
3.13852	49.0912
3.13662	49.0132
3.13472	48.9399
3.13283	48.984
3.13094	48.9462
3.12905	48.8609
3.12716	48.9156
3.12528	48.9241
3.12339	48.9151
3.12151	48.8363
3.11964	48.7573
3.11776	48.7448
3.11589	48.6988
3.11401	48.6439
3.11214	48.63
3.11028	48.6543
3.10841	48.638
3.10655	48.6215
3.10469	48.5608
3.10283	48.4886
3.10098	48.4554
3.09912	48.3567
3.09727	48.2968
3.09542	48.2444
3.09358	48.1955
3.09173	48.2097
3.08989	48.1879
3.08805	48.14
3.08621	48.1106
3.08437	48.0404
3.08254	48.0374
3.08071	48.0282
3.07888	48.0026
3.07705	47.9169
3.07523	47.8005
3.0734	47.7228
3.07158	47.7557
3.06977	47.7717
3.06795	47.7207
3.06613	47.6513
3.06432	47.5542
3.06251	47.535
3.0607	47.5056
3.0589	47.3702
3.0571	47.3447
3.05529	47.3108
3.05349	47.2526
3.0517	47.1763
3.0499	47.1207
3.04811	47.1257
3.04632	47.0852
3.04453	47.0154
3.04274	46.8743
3.04096	46.7575
3.03918	46.6624
3.0374	46.647
3.03562	46.5641
3.03384	46.5191
3.03207	46.4384
3.03029	46.4091
3.02852	46.4297
3.02676	46.3338
3.02499	46.1793
3.02323	46.0567
3.02146	46.0305
3.0197	45.9174
3.01795	45.8238
3.01619	45.7483
3.01444	45.7073
3.01269	45.5987
3.01094	45.4713
3.00919	45.3583
3.00744	45.2941
3.0057	45.3475
3.00396	45.2808
3.00222	45.078
3.00048	44.958
2.99875	45.0221
2.99701	44.9106
2.99528	44.7388
2.99355	44.5877
2.99183	44.4785
2.9901	44.4704
2.98838	44.5329
2.98666	44.5317
2.98494	44.4143
2.98322	44.2908
2.9815	44.1155
2.97979	43.9398
2.97808	43.8704
2.97637	43.8882
2.97466	43.7352
2.97295	43.6268
2.97125	43.7228
2.96955	43.7355
2.96785	43.5494
2.96615	43.422
2.96446	43.3917
2.96276	43.3771
2.96107	43.2803
2.95938	43.1348
2.95769	43.1488
2.95601	43.2342
2.95432	43.1593
2.95264	42.9975
2.95096	42.9148
2.94928	42.8145
2.9476	42.6634
2.94593	42.5409
2.94425	42.523
2.94258	42.5394
2.94092	42.4704
2.93925	42.3543
2.93758	42.3721
2.93592	42.2312
2.93426	42.0643
2.9326	41.9668
2.93094	41.8408
2.92928	41.8525
2.92763	41.9925
2.92598	41.9917
2.92433	41.8745
2.92268	41.6768
2.92103	41.5764
2.91939	41.4803
2.91775	41.4173
2.9161	41.3987
2.91447	41.4124
2.91283	41.4546
2.91119	41.4405
2.90956	41.2611
2.90793	41.3045
2.9063	41.4485
2.90467	41.217
2.90304	41.0113
2.90142	41.0634
2.89979	41.0093
2.89817	40.8829
2.89656	40.7857
2.89494	40.7039
2.89332	40.661
2.89171	40.7441
2.8901	40.7365
2.88849	40.6542
2.88688	40.5718
2.88527	40.4886
2.88367	40.3658
2.88206	40.2581
2.88046	40.2972
2.87886	40.3805
2.87727	40.2538
2.87567	40.115
2.87408	39.9931
2.87248	39.9182
2.87089	40.0352
2.8693	40.0233
2.86772	39.9591
2.86613	39.829
2.86455	39.686
2.86297	39.6561
2.86139	39.56
2.85981	39.4795
2.85823	39.4567
2.85666	39.4568
2.85508	39.486
2.85351	39.4222
2.85194	39.2369
2.85038	39.0515
2.84881	39.0237
2.84724	38.976
2.84568	38.8265
2.84412	38.8292
2.84256	38.8584
2.841	38.824
2.83945	38.6925
2.83789	38.6078
2.83634	38.6109
2.83479	38.599
2.83324	38.4011
2.83169	38.2177
2.83015	38.0944
2.82861	38.0845
2.82706	38.0166
2.82552	37.98
2.82398	37.915
2.82245	37.994
2.82091	38.0126
2.81938	37.9104
2.81784	37.8444
2.81631	37.9552
2.81479	37.8448
2.81326	37.5312
2.81173	37.4457
2.81021	37.4802
2.80869	37.475
2.80716	37.4344
2.80565	37.5809
2.80413	37.8399
2.80261	37.7937
2.8011	37.3608
2.79959	37.0549
2.79808	36.8873
2.79657	36.7406
2.79506	36.6576
2.79355	36.5682
2.79205	36.3669
2.79055	36.192
2.78904	36.2376
2.78754	36.3905
2.78605	35.9952
2.78455	35.4158
2.78306	35.2292
2.78156	34.8386
2.78007	34.2536
2.77858	33.6606
2.77709	33.151
2.77561	32.4367
2.77412	31.7097
2.77264	31.08
2.77116	30.4742
2.76968	29.4207
2.7682	28.4842
2.76672	27.8199
2.76524	27.0543
2.76377	26.3287
2.7623	25.2498
2.76083	24.0096
2.75936	23.2372
2.75789	22.4439
2.75642	21.6549
2.75496	20.3632
2.7535	18.66
2.75203	17.3655
2.75057	16.2262
2.74912	15.4864
2.74766	14.9847
2.7462	14.5086
2.74475	14.1294
2.7433	14.0735
2.74185	14.1058
2.7404	13.9683
2.73895	13.3119
2.7375	12.5293
2.73606	12.3624
2.73462	12.3142
2.73318	12.0087
2.73174	11.8106
2.7303	11.7048
2.72886	11.775
2.72742	11.8876
2.72599	12.0311
2.72456	12.1753
2.72313	11.9827
2.7217	12.2365
2.72027	12.6985
2.71884	12.7694
2.71742	12.9548
2.71599	13.2347
2.71457	13.6028
2.71315	14.1727
2.71173	15.0433
2.71032	15.6714
2.7089	16.0979
2.70748	16.7417
2.70607	17.4631
2.70466	18.5284
2.70325	20.0178
2.70184	21.7097
2.70043	23.3558
2.69903	25.0049
2.69762	27.0621
2.69622	29.6002
2.69482	32.4521
2.69342	35.166
2.69202	37.2672
2.69062	39.735
2.68923	42.351
2.68783	44.7999
2.68644	46.9509
2.68505	48.7735
2.68366	50.5528
2.68227	51.7321
2.68089	52.9835
2.6795	54.8692
2.67812	56.0741
2.67673	57.0918
2.67535	57.0411
2.67397	56.7779
2.6726	57.3395
2.67122	59.5873
2.66984	60.0977
2.66847	58.9104
2.6671	59.9065
2.66572	60.3922
2.66435	59.5993
2.66299	58.3649
2.66162	58.3948
2.66025	58.5465
2.65889	58.4786
2.65753	58.1138
2.65616	58.404
2.65481	58.5003
2.65345	58.7889
2.65209	58.9354
2.65073	58.4631
2.64938	58.2313
2.64803	58.3149
2.64667	58.5679
2.64532	58.6779
2.64397	58.3131
2.64263	58.3455
2.64128	58.3182
2.63994	58.2956
2.63859	58.2157
2.63725	58.1395
2.63591	58.1522
2.63457	58.5552
2.63323	58.5426
2.6319	59.0587
2.63056	60.1362
2.62923	59.2717
2.62789	58.931
2.62656	59.5935
2.62523	58.8623
2.6239	58.4412
2.62258	58.6117
2.62125	59.9615
2.61993	60.4596
2.6186	59.7767
2.61728	60.4735
2.61596	60.1229
2.61464	59.2756
2.61332	59.3648
2.61201	59.3487
2.61069	59.6097
2.60938	59.8964
2.60807	60.0686
2.60675	60.744
2.60544	61.3786
2.60414	60.7465
2.60283	60.3004
2.60152	60.0666
2.60022	59.6475
2.59891	59.4872
2.59761	59.9052
2.59631	61.5399
2.59501	63.5573
2.59371	62.0446
2.59242	59.988
2.59112	59.546
2.58983	59.7948
2.58853	60.0914
2.58724	60.2563
2.58595	59.9438
2.58466	60.5313
2.58338	60.6813
2.58209	59.9565
2.5808	59.8778
2.57952	59.3463
2.57824	59.4383
2.57695	59.9289
2.57567	59.7468
2.5744	60.0656
2.57312	60.3595
2.57184	59.6031
2.57057	59.8107
2.56929	59.9212
2.56802	59.3219
2.56675	59.051
2.56548	59.4744
2.56421	60.0319
2.56294	60.323
2.56168	60.4366
2.56041	59.9182
2.55915	59.3037
2.55789	59.1309
2.55662	59.1055
2.55536	59.1698
2.5541	59.4354
2.55285	59.724
2.55159	59.6216
2.55034	59.3805
2.54908	59.3239
2.54783	59.4264
2.54658	59.3347
2.54533	59.3749
2.54408	59.492
2.54283	59.5414
2.54159	59.3098
2.54034	59.0897
2.5391	59.0563
2.53785	59.0787
2.53661	59.1653
2.53537	59.0778
2.53413	59.0552
2.53289	59.2155
2.53166	59.2239
2.53042	59.0016
2.52919	58.8107
2.52795	58.8415
2.52672	58.862
2.52549	58.8291
2.52426	58.7602
2.52303	58.6156
2.52181	58.4743
2.52058	58.4155
2.51936	58.4367
2.51813	58.487
2.51691	58.3927
2.51569	58.3026
2.51447	58.3442
2.51325	58.2593
2.51203	58.2006
2.51082	58.1847
2.5096	58.1488
2.50839	58.0995
2.50717	57.9739
2.50596	57.9404
2.50475	57.9922
2.50354	58.0335
2.50233	57.9572
2.50113	57.8514
2.49992	57.8105
2.49872	57.8674
2.49751	57.7879
2.49631	57.7655
2.49511	57.8492
2.49391	57.904
2.49271	58.0101
2.49151	58.0015
2.49031	57.8234
2.48912	57.8071
2.48792	57.8512
2.48673	57.8536
2.48554	57.8641
2.48435	57.9573
2.48316	57.9988
2.48197	58.0204
2.48078	57.9915
2.4796	58.015
2.47841	57.9968
2.47723	57.9498
2.47604	58.0587
2.47486	58.1174
2.47368	58.0375
2.4725	57.9933
2.47132	57.9695
2.47014	57.9927
2.46897	58.0005
2.46779	58.0264
2.46662	58.1132
2.46545	58.1256
2.46427	58.1268
2.4631	58.107
2.46193	58.0264
2.46077	57.9273
2.4596	57.9571
2.45843	57.9782
2.45727	57.9342
2.4561	58.0089
2.45494	58.0643
2.45378	58.0287
2.45262	58.0333
2.45146	57.9915
2.4503	58.0018
2.44914	58.0289
2.44799	58.0007
2.44683	57.9826
2.44568	57.9582
2.44452	57.9235
2.44337	57.9792
2.44222	57.9935
2.44107	58.0148
2.43992	57.9785
2.43877	57.8706
2.43763	57.7924
2.43648	57.722
2.43534	57.686
2.43419	57.6634
2.43305	57.7164
2.43191	57.6601
2.43077	57.5357
2.42963	57.4709
2.42849	57.4031
2.42736	57.3456
2.42622	57.1816
2.42509	57.0528
2.42395	56.9126
2.42282	56.5783
2.42169	56.2633
2.42056	56.148
2.41943	56.0594
2.4183	55.9063
2.41717	55.7497
2.41605	55.5457
2.41492	55.1857
2.4138	54.8679
2.41267	54.818
2.41155	54.8085
2.41043	54.456
2.40931	54.0675
2.40819	53.8977
2.40707	53.6882
2.40595	53.3687
2.40484	53.1305
2.40372	53.048
2.40261	52.9555
2.4015	52.6296
2.40039	52.3636
2.39928	52.2198
2.39817	52.1766
2.39706	52.0608
2.39595	51.8732
2.39484	51.7847
2.39374	51.6369
2.39263	51.6873
2.39153	51.8723
2.39043	51.8448
2.38932	51.9527
2.38822	52.0048
2.38712	51.9949
2.38603	52.1405
2.38493	52.3294
2.38383	52.4883
2.38274	52.6154
2.38164	52.7332
2.38055	52.8421
2.37946	53.1439
2.37836	53.4993
2.37727	53.7832
2.37618	53.8988
2.3751	54.0846
2.37401	54.3555
2.37292	54.4614
2.37184	54.5945
2.37075	54.8298
2.36967	55.0085
2.36859	55.0751
2.3675	55.2133
2.36642	55.2576
2.36534	55.1976
2.36427	55.1235
2.36319	55.125
2.36211	55.0105
2.36104	54.9235
2.35996	54.8064
2.35889	54.7484
2.35781	54.6965
2.35674	54.5916
2.35567	54.4216
2.3546	54.0647
2.35353	53.7659
2.35247	53.6403
2.3514	53.486
2.35033	53.2182
2.34927	52.9844
2.3482	52.7881
2.34714	52.4583
2.34608	52.2167
2.34502	52.04
2.34396	51.9056
2.3429	51.7075
2.34184	51.4325
2.34078	51.26
2.33973	51.2074
2.33867	51.0726
2.33762	50.923
2.33656	50.7226
2.33551	50.5926
2.33446	50.4166
2.33341	50.1233
2.33236	49.9375
2.33131	49.8038
2.33026	49.8138
2.32922	49.9546
2.32817	49.8818
2.32712	49.8396
2.32608	49.8914
2.32504	49.8909
2.324	49.9248
2.32295	50.0783
2.32191	50.1211
2.32087	50.2791
2.31984	50.4458
2.3188	50.622
2.31776	50.9524
2.31673	51.1697
2.31569	51.3483
2.31466	51.7243
2.31362	52.0668
2.31259	52.3586
2.31156	52.6951
2.31053	53.0775
2.3095	53.5514
2.30847	54.0791
2.30745	54.4438
2.30642	54.6634
2.3054	54.9471
2.30437	55.3121
2.30335	55.563
2.30232	55.9237
2.3013	56.2578
2.30028	56.4948
2.29926	56.659
2.29824	56.7643
2.29722	56.9864
2.29621	57.2819
2.29519	57.6105
2.29417	57.7269
2.29316	57.8376
2.29215	58.0395
2.29113	58.1014
2.29012	58.2764
2.28911	58.4575
2.2881	58.6585
2.28709	58.7176
2.28608	58.8199
2.28507	58.9539
2.28407	59.0089
2.28306	59.1266
2.28206	59.2612
2.28105	59.2126
2.28005	59.2091
2.27905	59.2759
2.27805	59.4495
2.27705	59.6423
2.27605	59.7466
2.27505	59.715
2.27405	59.7147
2.27305	59.7623
2.27206	59.709
2.27106	59.6371
2.27007	59.808
2.26907	59.9744
2.26808	59.9077
2.26709	59.7983
2.2661	59.7202
2.26511	59.8198
2.26412	59.9148
2.26313	60.0122
2.26214	60.0571
2.26116	59.8634
2.26017	59.6981
2.25919	59.7817
2.2582	59.8885
2.25722	59.8589
2.25624	59.9067
2.25526	60.0355
2.25428	60.0525
2.2533	60.0052
2.25232	60.0774
2.25134	60.0746
2.25036	60.1301
2.24939	60.3008
2.24841	60.2661
2.24744	60.132
2.24646	60.1505
2.24549	60.1756
2.24452	60.1618
2.24355	60.1718
2.24257	60.1402
2.24161	60.2146
2.24064	60.2602
2.23967	60.2115
2.2387	60.2783
2.23774	60.341
2.23677	60.336
2.23581	60.2556
2.23484	60.1961
2.23388	60.1686
2.23292	60.3438
2.23196	60.4247
2.231	60.2621
2.23004	60.1505
2.22908	60.1854
2.22812	60.2719
2.22716	60.3679
2.22621	60.3952
2.22525	60.4136
2.2243	60.3724
2.22334	60.2622
2.22239	60.3354
2.22144	60.3823
2.22049	60.2264
2.21953	60.147
2.21859	59.993
2.21764	59.9358
2.21669	60.0484
2.21574	60.0425
2.21479	60.1158
2.21385	60.1706
2.2129	60.1285
2.21196	60.0302
2.21102	60.0173
2.21007	60.1143
2.20913	60.13
2.20819	60.1259
2.20725	60.0118
2.20631	59.9193
2.20537	60.0662
2.20444	60.1217
2.2035	60.0789
2.20256	59.9945
2.20163	59.9946
2.20069	60.0068
2.19976	59.8763
2.19883	59.8867
2.19789	59.9566
2.19696	60.016
2.19603	60.0555
2.1951	59.9874
2.19417	59.8752
2.19325	59.8377
2.19232	59.861
2.19139	59.927
2.19047	59.8108
2.18954	59.624
2.18862	59.5503
2.18769	59.6084
2.18677	59.6606
2.18585	59.7598
2.18493	59.8488
2.18401	59.8768
2.18309	59.7392
2.18217	59.663
2.18125	59.6212
2.18033	59.5793
2.17942	59.4827
2.1785	59.5731
2.17759	59.62
2.17667	59.4929
2.17576	59.4951
2.17485	59.5322
2.17393	59.5761
2.17302	59.4897
2.17211	59.3518
2.1712	59.4063
2.17029	59.4553
2.16939	59.4476
2.16848	59.3412
2.16757	59.2543
2.16667	59.3417
2.16576	59.3128
2.16486	59.1698
2.16395	59.2344
2.16305	59.2482
2.16215	59.077
2.16125	59.0181
2.16035	59.0552
2.15945	59.1998
2.15855	59.2906
2.15765	59.3064
2.15675	59.1069
2.15586	58.998
2.15496	58.9625
2.15406	58.9877
2.15317	59.0253
2.15228	58.9963
2.15138	58.8405
2.15049	58.753
2.1496	58.8583
2.14871	58.8403
2.14782	58.8251
2.14693	58.7639
2.14604	58.8155
2.14515	58.9025
2.14427	58.7061
2.14338	58.5907
2.14249	58.7122
2.14161	58.7338
2.14072	58.5588
2.13984	58.5207
2.13896	58.5899
2.13808	58.576
2.13719	58.4835
2.13631	58.429
2.13543	58.5235
2.13455	58.4151
2.13368	58.2533
2.1328	58.2268
2.13192	58.1989
2.13105	58.3164
2.13017	58.3499
2.1293	58.2191
2.12842	58.3754
2.12755	58.388
2.12668	58.2107
2.1258	58.1639
2.12493	58.1845
2.12406	58.2279
2.12319	58.2527
2.12232	58.235
2.12145	58.153
2.12059	58.0557
2.11972	58.0408
2.11885	58.0879
2.11799	58.0885
2.11712	58.1846
2.11626	58.0091
2.1154	57.9071
2.11453	58.0996
2.11367	58.2144
2.11281	58.1834
2.11195	58.0756
2.11109	57.925
2.11023	57.7362
2.10937	57.6661
2.10851	57.7586
2.10766	57.9383
2.1068	58.0265
2.10594	58.0287
2.10509	58.0325
2.10423	58.1557
2.10338	58.026
2.10253	57.7255
2.10168	57.7341
2.10082	57.9992
2.09997	58.1816
2.09912	58.1508
2.09827	58.0481
2.09742	58.0018
2.09658	58.1254
2.09573	58.0787
2.09488	57.9886
2.09404	57.7529
2.09319	57.6658
2.09235	57.7702
2.0915	57.7761
2.09066	57.9198
2.08982	58.0746
2.08897	57.7624
2.08813	57.695
2.08729	57.871
2.08645	57.9258
2.08561	57.8163
2.08477	57.8289
2.08394	58.1183
2.0831	58.0886
2.08226	57.9718
2.08143	57.9169
2.08059	58.0494
2.07976	57.9207
2.07892	57.6202
2.07809	57.6929
2.07726	57.8213
2.07643	57.6351
2.07559	57.6637
2.07476	57.8783
2.07393	57.8493
2.0731	57.8934
2.07228	57.9872
2.07145	57.7734
2.07062	57.7344
2.06979	57.8693
2.06897	57.827
2.06814	57.9052
2.06732	57.9103
2.06649	57.707
2.06567	57.6251
2.06485	57.7798
2.06403	57.7193
2.0632	57.4665
2.06238	57.4194
2.06156	57.4266
2.06074	57.4135
2.05993	57.5324
2.05911	57.6325
2.05829	57.5356
2.05747	57.4709
2.05666	57.6846
2.05584	57.8044
2.05503	57.6514
2.05421	57.5988
2.0534	57.5489
2.05259	57.4029
2.05177	57.3533
2.05096	57.3182
2.05015	57.3328
2.04934	57.1973
2.04853	57.282
2.04772	57.5687
2.04691	57.6159
2.04611	57.4948
2.0453	57.4442
2.04449	57.4325
2.04369	57.4361
2.04288	57.3932
2.04208	57.3314
2.04127	57.2407
2.04047	57.2433
2.03967	57.2268
2.03886	57.1996
2.03806	57.1881
2.03726	56.9883
2.03646	56.6874
2.03566	56.9193
2.03486	57.3662
2.03407	57.5556
2.03327	57.559
2.03247	57.3346
2.03167	56.8469
2.03088	56.743
2.03008	56.986
2.02929	57.0623
2.0285	56.9856
2.0277	56.8165
2.02691	56.8649
2.02612	57.1301
2.02533	57.0531
2.02453	57.0784
2.02374	57.0391
2.02295	56.7517
2.02217	56.6869
2.02138	56.7581
2.02059	56.8338
2.0198	56.7524
2.01902	56.7051
2.01823	56.625
2.01744	56.6006
2.01666	56.676
2.01588	56.664
2.01509	56.6455
2.01431	56.7974
2.01353	56.8586
2.01275	56.5807
2.01196	56.4755
2.01118	56.5345
2.0104	56.447
2.00963	56.2634
2.00885	56.3186
2.00807	56.5083
2.00729	56.4087
2.00651	56.2143
2.00574	56.2293
2.00496	56.1917
2.00419	56.3264
2.00341	56.2636
2.00264	56.1595
2.00187	56.2178
2.00109	56.4609
2.00032	56.4502
