Name: Quartz SiO_2
Type: Mineral
Class: Silicates
Subclass: Tectosilicates
Particle Size: 0-45um
Sample No.: TS-1C
Owner: JPL
Wavelength range: IR
Origin: USA, South Dakota, Custer County, Custer
Collected by Ward's
Description:  Rose quartz. 





Measurement: Hemispherical reflectance
First Column: X
Second Column: Y
X Units:  Wavelength (micrometers)
Y Units:  Reflectance (percent)
First X Value: 15.3853
Last X Value: 2.00032
Number of X Values: 2256
Additional information: ts01ca.txt
 
15.3853	17.1237
15.3397	17.3511
15.2945	17.2752
15.2495	17.226
15.2048	17.3855
15.1603	17.2386
15.1161	16.9335
15.0722	16.543
15.0285	16.211
14.9851	15.9953
14.9419	15.5578
14.8989	14.8783
14.8563	14.3362
14.8138	13.8407
14.7716	13.2827
14.7296	12.6935
14.6879	11.8059
14.6464	10.5905
14.6052	9.21223
14.5641	7.94404
14.5233	6.9134
14.4828	5.92119
14.4424	4.79041
14.4023	3.99536
14.3624	3.45037
14.3227	3.30376
14.2833	3.86729
14.244	4.94259
14.205	6.1305
14.1662	7.31333
14.1276	8.45936
14.0892	9.55312
14.051	10.3763
14.0131	11.1971
13.9753	11.9808
13.9377	12.5685
13.9004	12.9475
13.8632	13.2531
13.8262	13.4624
13.7895	13.7322
13.7529	13.9222
13.7165	13.9849
13.6803	14.0878
13.6443	13.9727
13.6085	13.6782
13.5729	13.3458
13.5374	13.374
13.5022	13.5301
13.4671	13.2238
13.4322	12.8609
13.3975	12.6932
13.363	12.4003
13.3286	11.9215
13.2944	11.6003
13.2604	11.1559
13.2266	10.4854
13.193	9.86171
13.1595	9.29179
13.1262	8.56234
13.093	7.84531
13.06	7.48523
13.0272	7.17863
12.9946	6.91297
12.9621	6.68062
12.9298	6.55124
12.8976	6.74425
12.8656	7.24494
12.8337	7.63055
12.8021	7.64871
12.7705	7.27698
12.7391	6.66627
12.7079	6.09851
12.6769	5.42754
12.6459	5.04626
12.6152	4.98987
12.5845	5.23391
12.5541	5.6832
12.5238	5.8726
12.4936	5.93455
12.4635	5.64049
12.4337	5.03376
12.4039	4.21556
12.3743	3.08933
12.3448	2.18764
12.3155	1.63421
12.2863	1.47731
12.2573	1.70457
12.2284	2.16462
12.1996	2.6343
12.171	3.21729
12.1425	3.92712
12.1141	4.65071
12.0859	5.47493
12.0578	6.36169
12.0298	7.13927
12.0019	7.81439
11.9742	8.43355
11.9466	9.07854
11.9192	9.61587
11.8918	10.0763
11.8646	10.557
11.8375	11.0736
11.8106	11.555
11.7837	11.9361
11.757	12.4766
11.7304	12.9442
11.7039	13.2087
11.6776	13.6125
11.6513	13.9098
11.6252	13.9618
11.5992	14.0173
11.5733	14.1408
11.5475	14.3726
11.5219	14.5585
11.4963	14.6797
11.4709	14.8701
11.4455	15.1109
11.4203	15.4223
11.3952	15.7334
11.3702	15.8983
11.3454	16.097
11.3206	16.231
11.2959	16.2521
11.2714	16.1782
11.2469	16.1356
11.2226	16.1673
11.1983	16.2181
11.1742	16.3848
11.1502	16.6414
11.1263	16.8057
11.1024	16.8001
11.0787	16.7954
11.0551	16.9361
11.0316	17.0733
11.0081	17.0468
10.9848	17.0707
10.9616	17.1896
10.9385	17.2502
10.9154	17.2086
10.8925	17.1071
10.8697	17.06
10.8469	16.9784
10.8243	16.8247
10.8017	16.7145
10.7793	16.5226
10.7569	16.3932
10.7346	16.2917
10.7125	16.2343
10.6904	16.0782
10.6684	15.8983
10.6465	15.5571
10.6247	15.1764
10.6029	14.9437
10.5813	14.9474
10.5597	14.9684
10.5383	14.7816
10.5169	14.6669
10.4956	14.6562
10.4744	14.601
10.4533	14.5974
10.4323	14.4403
10.4113	14.265
10.3904	14.1498
10.3697	13.9944
10.349	13.8141
10.3284	13.6548
10.3078	13.5323
10.2874	13.4432
10.267	13.287
10.2467	13.2354
10.2265	13.1979
10.2064	13.0168
10.1863	12.6987
10.1663	12.311
10.1464	12.0069
10.1266	11.6741
10.1069	11.2931
10.0872	11.158
10.0676	11.1582
10.0481	11.1614
10.0287	11.0517
10.0093	10.9636
9.99005	11.0103
9.97084	10.9883
9.95169	10.9705
9.93263	10.9477
9.91364	11.0231
9.89472	11.1708
9.87587	11.1259
9.8571	11.0066
9.83839	10.9228
9.81976	10.8325
9.80119	10.5875
9.78271	10.5287
9.76428	10.5527
9.74592	10.3758
9.72764	10.1733
9.70943	10.1555
9.69128	10.09
9.6732	9.9477
9.65518	9.87693
9.63724	9.85887
9.61935	9.79631
9.60155	9.81253
9.5838	9.94604
9.56611	10.1313
9.5485	10.2366
9.53094	10.5667
9.51345	10.9992
9.49604	11.2961
9.47867	11.6707
9.46137	12.3233
9.44414	13.0864
9.42697	14.0043
9.40986	15.3212
9.39281	16.8868
9.37583	18.4653
9.35891	19.9746
9.34204	21.3053
9.32524	22.3229
9.3085	23.0032
9.29182	23.2457
9.27519	23.3476
9.25863	23.5247
9.24213	23.5609
9.22568	23.5714
9.2093	23.5103
9.19297	23.425
9.17669	23.4843
9.16048	23.4433
9.14433	23.3245
9.12823	23.2796
9.11218	23.3562
9.0962	23.4249
9.08027	23.3483
9.06439	23.134
9.04858	23.1107
9.03281	23.0917
9.0171	23.0758
9.00145	23.1798
8.98585	23.1376
8.9703	22.9379
8.9548	22.8475
8.93937	22.9512
8.92398	22.9059
8.90865	22.7256
8.89337	22.6565
8.87814	22.6186
8.86296	22.393
8.84784	22.1363
8.83277	21.9667
8.81774	21.7299
8.80277	21.5071
8.78786	21.3082
8.77298	21.057
8.75816	20.8626
8.7434	20.6223
8.72868	20.2392
8.714	19.7664
8.69938	19.1915
8.68481	18.6149
8.67029	17.6075
8.65581	15.9727
8.64139	14.3333
8.62701	13.659
8.61268	14.3672
8.5984	16.0882
8.58416	17.7514
8.56997	18.7903
8.55583	19.4557
8.54174	19.9218
8.52769	20.2184
8.51368	20.2635
8.49973	20.2401
8.48582	20.4028
8.47195	20.3401
8.45813	20.0604
8.44436	19.8931
8.43062	19.9139
8.41693	19.8725
8.4033	19.7805
8.3897	19.7213
8.37614	19.697
8.36264	19.7755
8.34917	19.8706
8.33574	19.8359
8.32236	19.9383
8.30903	20.2584
8.29573	20.5822
8.28248	20.8972
8.26927	21.2659
8.2561	21.7909
8.24298	22.3052
8.2299	22.6389
8.21685	22.9482
8.20385	23.2763
8.19089	23.5163
8.17797	23.4705
8.16509	23.2623
8.15225	22.7751
8.13946	21.9239
8.1267	20.83
8.11398	19.8333
8.10131	18.881
8.08867	17.8642
8.07606	16.893
8.0635	15.9576
8.05099	15.1017
8.0385	14.3516
8.02606	13.6327
8.01366	12.8917
8.00129	12.2636
7.98896	11.6636
7.97667	11.0219
7.96442	10.3703
7.9522	9.73736
7.94002	9.10378
7.92788	8.40919
7.91578	7.71261
7.90371	7.16224
7.89168	6.63771
7.87969	6.0591
7.86773	5.6013
7.85581	5.18351
7.84392	4.80628
7.83207	4.52689
7.82026	4.27231
7.80849	4.11879
7.79674	3.97517
7.78503	3.72039
7.77337	3.57462
7.76173	3.53724
7.75012	3.37438
7.73856	3.19608
7.72703	3.05574
7.71553	2.91404
7.70406	2.74883
7.69263	2.60255
7.68123	2.39948
7.66987	2.17659
7.65855	2.01664
7.64725	1.90396
7.63598	1.72572
7.62475	1.59239
7.61356	1.45382
7.60239	1.24559
7.59126	1.20821
7.58017	1.1237
7.5691	0.997926
7.55806	0.946518
7.54707	0.919849
7.5361	0.896203
7.52516	0.892987
7.51425	0.858094
7.50338	0.690985
7.49253	0.653695
7.48172	0.628908
7.47094	0.541147
7.46019	0.425867
7.44947	0.457632
7.43879	0.516634
7.42813	0.453129
7.4175	0.42692
7.4069	0.486876
7.39634	0.399656
7.3858	0.39045
7.37529	0.446272
7.36482	0.457679
7.35437	0.434555
7.34396	0.402504
7.33357	0.476494
7.32321	0.51412
7.31288	0.474393
7.30258	0.543784
7.29231	0.62463
7.28207	0.716644
7.27185	0.780606
7.26167	0.792959
7.25152	0.80286
7.24139	0.929767
7.23129	0.990581
7.22122	0.998966
7.21117	1.05383
7.20116	1.20664
7.19117	1.37444
7.18121	1.49871
7.17128	1.56973
7.16137	1.58667
7.1515	1.58616
7.14164	1.70601
7.13182	1.84233
7.12203	1.91281
7.11225	2.10971
7.10251	2.36056
7.0928	2.43649
7.08311	2.50571
7.07344	2.57633
7.06381	2.71908
7.0542	2.87751
7.04461	2.98212
7.03506	3.03487
7.02552	3.18686
7.01601	3.33821
7.00653	3.57265
6.99708	3.79695
6.98765	3.91746
6.97824	4.0401
6.96886	4.20285
6.95951	4.35242
6.95018	4.48965
6.94087	4.67869
6.9316	4.89022
6.92234	5.04385
6.91311	5.1606
6.90391	5.16396
6.89473	5.24215
6.88557	5.36196
6.87644	5.3652
6.86733	5.39272
6.85824	5.38952
6.84918	5.34423
6.84015	5.33717
6.83114	5.34613
6.82215	5.36903
6.81319	5.35189
6.80424	5.40641
6.79532	5.51503
6.78643	5.43409
6.77756	5.27292
6.76871	5.09861
6.75989	5.00972
6.75109	4.94662
6.74231	4.83946
6.73355	4.78389
6.72482	4.7416
6.71611	4.67294
6.70742	4.67756
6.69875	4.74425
6.69011	4.89757
6.68149	5.13354
6.67289	5.3433
6.66431	5.47489
6.65576	5.66054
6.64722	5.87272
6.63871	6.00716
6.63022	6.02346
6.62175	5.89091
6.61331	5.80476
6.60488	5.77334
6.59648	5.71333
6.5881	5.6104
6.57974	5.6248
6.5714	5.69481
6.56308	5.60629
6.55478	5.50159
6.54651	5.55978
6.53825	5.74214
6.53001	6.0926
6.5218	6.73857
6.51361	7.50783
6.50544	8.26476
6.49729	9.19941
6.48915	10.0255
6.48104	10.6268
6.47295	11.1765
6.46488	11.7293
6.45683	12.2334
6.4488	12.7094
6.44079	13.1059
6.4328	13.3483
6.42482	13.4847
6.41687	13.7303
6.40894	13.5997
6.40103	13.1103
6.39314	12.7171
6.38526	12.3423
6.37741	11.8382
6.36957	11.2016
6.36176	10.6489
6.35396	10.2917
6.34618	10.0952
6.33843	9.68467
6.33069	9.10138
6.32297	8.60038
6.31527	8.14108
6.30758	7.74062
6.29992	7.37368
6.29227	6.87834
6.28465	6.46904
6.27704	6.22931
6.26945	6.00564
6.26188	5.73081
6.25432	5.39995
6.24679	5.15026
6.23927	4.97992
6.23177	4.81716
6.22429	4.71433
6.21683	4.74885
6.20938	4.77152
6.20195	4.76464
6.19454	4.82868
6.18715	5.00467
6.17978	5.29027
6.17242	5.70593
6.16508	6.19499
6.15776	6.70554
6.15045	7.30132
6.14317	8.03976
6.1359	8.76038
6.12864	9.4337
6.12141	10.0863
6.11419	10.7412
6.10699	11.2114
6.0998	11.7015
6.09263	12.306
6.08549	12.7951
6.07835	13.2559
6.07123	13.57
6.06413	13.5664
6.05705	13.7615
6.04998	14.0561
6.04293	13.9123
6.0359	13.6522
6.02888	13.57
6.02187	13.5335
6.01489	13.3578
6.00792	13.0255
6.00096	12.7085
5.99403	12.4325
5.98711	12.0102
5.9802	11.514
5.97331	11.0915
5.96644	10.5921
5.95958	10.1348
5.95274	9.83053
5.94591	9.66186
5.9391	9.71407
5.9323	9.70593
5.92552	9.75594
5.91876	10.0899
5.91201	10.5865
5.90528	11.1374
5.89856	11.8469
5.89186	12.5736
5.88517	13.3364
5.8785	14.0034
5.87184	14.3721
5.8652	15.0257
5.85857	15.5937
5.85196	16.1876
5.84536	16.8043
5.83878	17.4301
5.83221	18.0715
5.82566	18.8069
5.81912	19.4197
5.81259	19.8067
5.80608	20.2597
5.79959	20.7879
5.79311	21.2387
5.78665	21.7947
5.78019	22.3392
5.77376	22.9543
5.76734	23.6716
5.76093	23.9465
5.75453	24.0976
5.74815	24.552
5.74179	24.8848
5.73543	25.1716
5.7291	25.4427
5.72277	25.72
5.71646	25.8726
5.71017	25.9327
5.70389	25.7297
5.69762	25.4139
5.69136	24.9662
5.68513	24.3462
5.6789	23.6625
5.67268	22.7115
5.66648	21.5271
5.6603	20.2833
5.65413	19.0135
5.64797	17.8499
5.64182	16.758
5.63569	15.6597
5.62957	14.7245
5.62347	14.0388
5.61737	13.5688
5.61129	13.1988
5.60522	12.8661
5.59917	12.5531
5.59313	12.2726
5.5871	12.154
5.58109	12.2063
5.57509	12.2227
5.5691	12.2242
5.56312	12.3623
5.55716	12.622
5.55121	12.8802
5.54528	13.1624
5.53935	13.4554
5.53344	13.8216
5.52754	14.361
5.52166	14.8956
5.51578	15.437
5.50992	16.0185
5.50407	16.619
5.49823	17.1629
5.49241	17.7045
5.4866	18.292
5.4808	18.9046
5.47501	19.4214
5.46923	19.8301
5.46347	20.1377
5.45772	20.2097
5.45198	20.2121
5.44625	20.1068
5.44054	19.7398
5.43484	19.1659
5.42914	18.4605
5.42347	17.6684
5.4178	16.514
5.41214	15.1814
5.4065	13.9685
5.40087	12.7909
5.39525	11.5529
5.38964	10.4762
5.38404	9.48871
5.37846	8.62824
5.37288	7.94253
5.36732	7.41388
5.36177	7.10106
5.35623	6.93607
5.35071	6.78288
5.34519	6.74674
5.33968	6.68821
5.33419	6.70349
5.32871	6.81079
5.32324	6.91618
5.31778	7.01841
5.31233	7.12967
5.30689	7.26515
5.30147	7.42904
5.29605	7.69739
5.29065	8.0694
5.28525	8.36254
5.27987	8.65621
5.2745	9.0757
5.26914	9.56363
5.26379	10.0708
5.25845	10.6779
5.25312	11.5185
5.24781	12.4232
5.2425	13.3754
5.23721	14.4348
5.23192	15.5294
5.22665	16.5973
5.22138	17.6693
5.21613	18.6729
5.21089	19.4054
5.20566	19.9312
5.20044	20.3109
5.19522	20.4902
5.19002	20.4986
5.18483	20.4059
5.17965	20.2906
5.17448	20.1627
5.16933	20.0833
5.16418	19.9581
5.15904	19.8529
5.15391	19.7867
5.14879	19.605
5.14368	19.4547
5.13859	19.3186
5.1335	19.2183
5.12842	19.146
5.12335	19.1481
5.1183	19.2128
5.11325	19.2151
5.10821	19.1361
5.10318	18.9671
5.09817	18.6071
5.09316	18.1941
5.08816	17.7981
5.08317	17.4226
5.07819	17.0966
5.07322	16.7156
5.06826	16.4238
5.06331	16.2898
5.05837	16.2271
5.05344	16.1827
5.04852	16.149
5.04361	16.1041
5.03871	16.0601
5.03382	16.0325
5.02894	15.9958
5.02406	15.8722
5.0192	15.7284
5.01435	15.7165
5.0095	15.7976
5.00467	15.9246
4.99984	16.1266
4.99502	16.4022
4.99021	16.6749
4.98542	17.0257
4.98063	17.624
4.97585	18.4061
4.97108	19.3211
4.96632	20.389
4.96156	21.3966
4.95682	22.2908
4.95209	23.0803
4.94736	23.6955
4.94264	24.1609
4.93794	24.6052
4.93324	25.0508
4.92855	25.5219
4.92387	26.2269
4.9192	27.2481
4.91453	28.5366
4.90988	30.1398
4.90524	31.9818
4.9006	34.0312
4.89597	36.195
4.89135	38.2536
4.88674	40.1055
4.88214	41.9449
4.87755	43.6046
4.87296	45.0333
4.86839	46.3174
4.86382	47.5451
4.85926	48.5881
4.85471	49.5115
4.85017	50.3303
4.84564	51.127
4.84111	51.9322
4.8366	52.5807
4.83209	53.161
4.82759	53.7488
4.8231	54.3095
4.81862	54.832
4.81415	55.3335
4.80968	55.8082
4.80522	56.2787
4.80077	56.7407
4.79633	57.1378
4.7919	57.549
4.78747	57.9305
4.78306	58.2792
4.77865	58.6563
4.77425	59.0154
4.76986	59.3061
4.76547	59.6101
4.7611	59.9015
4.75673	60.2674
4.75237	60.5285
4.74802	60.6769
4.74367	60.8518
4.73934	61.0222
4.73501	61.1641
4.73069	61.303
4.72638	61.3057
4.72207	61.2562
4.71777	61.2527
4.71348	61.0215
4.7092	60.6567
4.70493	60.1333
4.70066	59.4709
4.69641	58.733
4.69216	57.9826
4.68791	57.3671
4.68368	57.1236
4.67945	57.2323
4.67523	57.5769
4.67102	58.1782
4.66682	58.921
4.66262	59.7358
4.65843	60.4631
4.65425	61.0726
4.65007	61.7007
4.64591	62.3627
4.64175	62.937
4.6376	63.5252
4.63345	64.1205
4.62932	64.6302
4.62519	65.0612
4.62106	65.3754
4.61695	65.725
4.61284	66.0317
4.60874	66.1954
4.60465	66.313
4.60056	66.4686
4.59648	66.6494
4.59241	66.7519
4.58835	66.7713
4.58429	66.8429
4.58024	66.9441
4.5762	66.9245
4.57216	66.8215
4.56814	66.6876
4.56411	66.5456
4.5601	66.3339
4.55609	66.0774
4.55209	65.7435
4.5481	65.3522
4.54411	64.8741
4.54013	64.2993
4.53616	63.6408
4.5322	62.902
4.52824	62.1754
4.52429	61.479
4.52034	60.6957
4.51641	59.7441
4.51247	58.7635
4.50855	57.821
4.50463	56.94
4.50072	56.2049
4.49682	55.5366
4.49292	55.0008
4.48903	54.6375
4.48515	54.4161
4.48127	54.2237
4.4774	53.897
4.47354	53.6103
4.46968	53.5078
4.46584	53.5739
4.46199	53.7568
4.45815	54.1455
4.45432	54.6602
4.4505	55.0882
4.44668	55.4432
4.44287	55.7519
4.43907	55.9792
4.43527	56.2033
4.43148	56.529
4.4277	56.7942
4.42392	57.1377
4.42015	57.5594
4.41638	57.9431
4.41262	58.2659
4.40887	58.6431
4.40513	59.1506
4.40139	59.6093
4.39765	60.0016
4.39393	60.4883
4.39021	61.0438
4.38649	61.5897
4.38278	62.0685
4.37908	62.5732
4.37539	63.1154
4.3717	63.6207
4.36801	64.0473
4.36434	64.4818
4.36067	64.9564
4.357	65.4044
4.35335	65.7528
4.34969	66.0418
4.34605	66.2595
4.34241	66.5024
4.33877	66.7331
4.33514	66.9122
4.33152	67.0396
4.32791	67.0885
4.3243	67.1391
4.32069	67.1332
4.3171	67.0441
4.31351	66.9017
4.30992	66.7853
4.30634	66.6649
4.30277	66.506
4.2992	66.3978
4.29564	66.3198
4.29208	66.262
4.28853	66.3279
4.28499	66.3286
4.28145	66.3898
4.27792	66.5737
4.27439	66.6852
4.27087	66.8399
4.26735	67.1356
4.26384	67.4739
4.26034	67.7672
4.25684	67.9861
4.25335	67.9936
4.24986	67.8352
4.24638	67.6858
4.24291	67.5666
4.23944	67.4566
4.23598	67.3435
4.23252	67.2881
4.22906	67.4393
4.22562	67.5594
4.22218	67.6963
4.21874	67.9148
4.21531	68.0511
4.21189	68.0872
4.20847	68.1682
4.20506	68.1811
4.20165	68.1889
4.19825	68.272
4.19485	68.3766
4.19146	68.5023
4.18807	68.6274
4.18469	68.7205
4.18132	68.8712
4.17795	69.0942
4.17458	69.2957
4.17123	69.3783
4.16787	69.4528
4.16453	69.5667
4.16118	69.694
4.15785	69.8255
4.15451	69.927
4.15119	70.0475
4.14787	70.1505
4.14455	70.2324
4.14124	70.3635
4.13794	70.47
4.13464	70.592
4.13134	70.7649
4.12805	70.9101
4.12477	70.9685
4.12149	71.1481
4.11822	71.3232
4.11495	71.4859
4.11168	71.641
4.10843	71.8082
4.10517	71.9381
4.10192	72.0851
4.09868	72.2696
4.09545	72.4357
4.09221	72.5492
4.08899	72.6442
4.08576	72.7733
4.08255	72.9151
4.07933	72.987
4.07613	73.039
4.07292	73.1291
4.06973	73.1849
4.06654	73.2198
4.06335	73.2801
4.06017	73.3484
4.05699	73.4016
4.05382	73.3913
4.05065	73.3536
4.04749	73.3339
4.04433	73.3196
4.04118	73.2822
4.03803	73.2487
4.03489	73.2351
4.03175	73.2286
4.02862	73.1923
4.02549	73.1146
4.02237	73.0856
4.01925	73.0535
4.01614	72.9899
4.01303	73.0469
4.00993	73.1055
4.00683	73.1242
4.00373	73.1692
4.00064	73.1822
3.99756	73.1422
3.99448	73.1909
3.9914	73.3048
3.98833	73.36
3.98527	73.4022
3.98221	73.4678
3.97915	73.5664
3.9761	73.637
3.97305	73.6302
3.97001	73.6962
3.96697	73.8562
3.96394	73.9927
3.96091	74.1115
3.95789	74.2822
3.95487	74.3551
3.95186	74.3444
3.94885	74.3718
3.94584	74.4934
3.94284	74.5697
3.93984	74.6372
3.93685	74.7652
3.93386	74.8107
3.93088	74.8186
3.9279	74.8778
3.92493	74.8741
3.92196	74.9342
3.919	74.9982
3.91604	75.025
3.91308	74.9633
3.91013	74.9087
3.90718	74.8897
3.90424	74.8749
3.9013	74.8715
3.89837	74.847
3.89544	74.7797
3.89252	74.6704
3.8896	74.6092
3.88668	74.5693
3.88377	74.5379
3.88086	74.4612
3.87796	74.3894
3.87506	74.3632
3.87217	74.2819
3.86928	74.2467
3.86639	74.1729
3.86351	74.0759
3.86064	74.1046
3.85776	74.1417
3.8549	74.1229
3.85203	74.0998
3.84917	74.0633
3.84631	74.1067
3.84346	74.1131
3.84062	74.1051
3.83777	74.1891
3.83494	74.2652
3.8321	74.2599
3.82927	74.252
3.82644	74.3025
3.82362	74.3828
3.82081	74.41
3.81799	74.4707
3.81518	74.5108
3.81238	74.5282
3.80958	74.524
3.80678	74.561
3.80399	74.5563
3.8012	74.4829
3.79841	74.4673
3.79563	74.5754
3.79286	74.5948
3.79008	74.5512
3.78731	74.4682
3.78455	74.4354
3.78179	74.4524
3.77903	74.4245
3.77628	74.3593
3.77353	74.2962
3.77079	74.2224
3.76805	74.1554
3.76531	74.0834
3.76258	74.0829
3.75985	74.0156
3.75713	73.9314
3.7544	73.8852
3.75169	73.8855
3.74898	73.8544
3.74627	73.8694
3.74356	73.8693
3.74086	73.7848
3.73816	73.7532
3.73547	73.7974
3.73278	73.8252
3.7301	73.8335
3.72741	73.9389
3.72474	74.041
3.72206	74.1105
3.71939	74.1195
3.71673	74.1734
3.71406	74.2644
3.71141	74.3423
3.70875	74.4646
3.7061	74.5867
3.70345	74.635
3.70081	74.7553
3.69817	74.8845
3.69553	75.0484
3.6929	75.2222
3.69027	75.2571
3.68765	75.2981
3.68503	75.376
3.68241	75.5385
3.6798	75.6552
3.67719	75.7229
3.67458	75.805
3.67198	75.8989
3.66938	75.9231
3.66678	75.9425
3.66419	75.9996
3.66161	76.0883
3.65902	76.1556
3.65644	76.2296
3.65387	76.2024
3.65129	76.1474
3.64872	76.2346
3.64616	76.3323
3.64359	76.3534
3.64103	76.3839
3.63848	76.3801
3.63593	76.3781
3.63338	76.3431
3.63084	76.345
3.6283	76.3299
3.62576	76.2841
3.62322	76.3173
3.62069	76.3658
3.61817	76.3447
3.61564	76.2726
3.61312	76.2249
3.61061	76.319
3.6081	76.3667
3.60559	76.3126
3.60308	76.2617
3.60058	76.2933
3.59808	76.4039
3.59558	76.4371
3.59309	76.4477
3.59061	76.4552
3.58812	76.4044
3.58564	76.3596
3.58316	76.3656
3.58069	76.4056
3.57822	76.5088
3.57575	76.5669
3.57328	76.5423
3.57082	76.5584
3.56836	76.5418
3.56591	76.5742
3.56346	76.6374
3.56101	76.6465
3.55857	76.6106
3.55613	76.6311
3.55369	76.6415
3.55126	76.6703
3.54883	76.6703
3.5464	76.6859
3.54397	76.7346
3.54155	76.7252
3.53914	76.6735
3.53672	76.7117
3.53431	76.8649
3.5319	76.8509
3.5295	76.785
3.5271	76.7862
3.5247	76.705
3.52231	76.6173
3.51991	76.599
3.51753	76.6226
3.51514	76.5235
3.51276	76.4492
3.51038	76.341
3.50801	76.1666
3.50563	75.9912
3.50327	75.9368
3.5009	75.8924
3.49854	75.8704
3.49618	75.9209
3.49382	76.0309
3.49147	76.1169
3.48912	76.2093
3.48677	76.3209
3.48443	76.4221
3.48209	76.372
3.47975	76.2904
3.47742	76.3514
3.47509	76.3991
3.47276	76.412
3.47044	76.3945
3.46812	76.3379
3.4658	76.3626
3.46348	76.4213
3.46117	76.4535
3.45886	76.4006
3.45656	76.3071
3.45425	76.3268
3.45195	76.3824
3.44966	76.3106
3.44736	76.2279
3.44507	76.1364
3.44279	76.0425
3.4405	75.9767
3.43822	75.9838
3.43594	75.8867
3.43367	75.7328
3.43139	75.6344
3.42912	75.4795
3.42686	75.3053
3.42459	75.13
3.42233	75.0233
3.42007	74.9062
3.41782	74.7798
3.41557	74.7285
3.41332	74.8007
3.41108	74.892
3.40883	74.9821
3.40659	74.9996
3.40435	75.0878
3.40212	75.2296
3.39989	75.2972
3.39766	75.332
3.39544	75.407
3.39322	75.4919
3.391	75.5093
3.38878	75.4889
3.38657	75.446
3.38436	75.5106
3.38215	75.5039
3.37994	75.3846
3.37774	75.3441
3.37554	75.373
3.37335	75.362
3.37115	75.3395
3.36896	75.4676
3.36678	75.5611
3.36459	75.6377
3.36241	75.756
3.36023	75.8143
3.35805	75.8262
3.35588	75.762
3.35371	75.7233
3.35154	75.7345
3.34938	75.7393
3.34721	75.7162
3.34505	75.764
3.3429	75.7914
3.34074	75.8995
3.33859	75.9302
3.33644	75.8404
3.3343	75.7724
3.33215	75.764
3.33001	75.7933
3.32788	75.815
3.32574	75.8357
3.32361	75.9292
3.32148	75.9693
3.31936	75.9033
3.31723	75.847
3.31511	75.8418
3.31299	75.7969
3.31088	75.8282
3.30876	75.7908
3.30665	75.7846
3.30455	75.7239
3.30244	75.5994
3.30034	75.5772
3.29824	75.6468
3.29614	75.7182
3.29405	75.6817
3.29196	75.624
3.28987	75.5973
3.28778	75.554
3.2857	75.562
3.28362	75.5271
3.28154	75.4363
3.27946	75.4314
3.27739	75.4427
3.27532	75.425
3.27325	75.329
3.27119	75.3047
3.26913	75.317
3.26707	75.296
3.26501	75.2243
3.26295	75.1932
3.2609	75.178
3.25885	75.1526
3.2568	75.0856
3.25476	75.0631
3.25272	75.0343
3.25068	74.9812
3.24864	74.9705
3.24661	74.8913
3.24458	74.8352
3.24255	74.8298
3.24052	74.8302
3.2385	74.8011
3.23648	74.7828
3.23446	74.7813
3.23244	74.7903
3.23043	74.7316
3.22841	74.7348
3.2264	74.7464
3.2244	74.6881
3.22239	74.6055
3.22039	74.5
3.21839	74.4428
3.2164	74.3904
3.2144	74.3984
3.21241	74.3867
3.21042	74.3448
3.20844	74.3603
3.20645	74.3822
3.20447	74.3612
3.20249	74.2806
3.20051	74.2485
3.19854	74.2232
3.19657	74.1223
3.1946	74.0957
3.19263	74.0887
3.19067	74.0362
3.1887	73.9224
3.18674	73.8345
3.18479	73.7931
3.18283	73.7381
3.18088	73.7042
3.17893	73.6746
3.17698	73.6547
3.17504	73.5876
3.17309	73.4606
3.17115	73.4474
3.16921	73.5216
3.16728	73.5493
3.16534	73.4999
3.16341	73.3956
3.16148	73.3565
3.15956	73.3032
3.15763	73.1484
3.15571	73.0784
3.15379	73.1011
3.15187	73.0547
3.14996	72.9857
3.14805	72.9029
3.14614	72.8032
3.14423	72.6775
3.14232	72.5944
3.14042	72.5517
3.13852	72.546
3.13662	72.526
3.13472	72.4343
3.13283	72.3475
3.13094	72.2757
3.12905	72.2107
3.12716	72.2425
3.12528	72.1875
3.12339	72.0365
3.12151	72.0423
3.11964	72.0723
3.11776	72.0593
3.11589	71.9978
3.11401	71.9505
3.11214	72.0064
3.11028	71.979
3.10841	71.8275
3.10655	71.7396
3.10469	71.7619
3.10283	71.6794
3.10098	71.6349
3.09912	71.6267
3.09727	71.5862
3.09542	71.6829
3.09358	71.6558
3.09173	71.498
3.08989	71.4424
3.08805	71.401
3.08621	71.3793
3.08437	71.3661
3.08254	71.286
3.08071	71.1905
3.07888	71.0591
3.07705	71.0692
3.07523	71.1423
3.0734	71.1325
3.07158	71.0762
3.06977	70.9746
3.06795	70.9072
3.06613	70.8289
3.06432	70.7173
3.06251	70.6551
3.0607	70.4921
3.0589	70.4172
3.0571	70.533
3.05529	70.5271
3.05349	70.3726
3.0517	70.2766
3.0499	70.2886
3.04811	70.2665
3.04632	70.0648
3.04453	69.9735
3.04274	69.9832
3.04096	69.9231
3.03918	69.7842
3.0374	69.6509
3.03562	69.6155
3.03384	69.7233
3.03207	69.666
3.03029	69.499
3.02852	69.4531
3.02676	69.4011
3.02499	69.322
3.02323	69.3327
3.02146	69.3034
3.0197	69.2474
3.01795	69.1995
3.01619	69.1247
3.01444	69.2223
3.01269	69.1595
3.01094	69.0586
3.00919	69.1059
3.00744	69.121
3.0057	69.1148
3.00396	69.1499
3.00222	69.0754
3.00048	68.9745
2.99875	69.0517
2.99701	69.1183
2.99528	69.0393
2.99355	68.8993
2.99183	68.8689
2.9901	68.9209
2.98838	68.9958
2.98666	68.9977
2.98494	68.8504
2.98322	68.7499
2.9815	68.6659
2.97979	68.6072
2.97808	68.4742
2.97637	68.3332
2.97466	68.2697
2.97295	68.2186
2.97125	68.0493
2.96955	67.8525
2.96785	67.6953
2.96615	67.3904
2.96446	67.0599
2.96276	66.9724
2.96107	66.8755
2.95938	66.7449
2.95769	66.8759
2.95601	67.0624
2.95432	67.1574
2.95264	67.2509
2.95096	67.3542
2.94928	67.5025
2.9476	67.693
2.94593	67.8778
2.94425	67.9392
2.94258	67.9201
2.94092	67.9745
2.93925	68.0505
2.93758	68.0737
2.93592	68.0206
2.93426	68.1193
2.9326	68.2577
2.93094	68.1714
2.92928	68.1348
2.92763	68.1558
2.92598	68.109
2.92433	68.0118
2.92268	67.9979
2.92103	68.0271
2.91939	67.9421
2.91775	67.917
2.9161	68.0005
2.91447	68.023
2.91283	68.1449
2.91119	68.1863
2.90956	68.2113
2.90793	68.2025
2.9063	68.2035
2.90467	68.2064
2.90304	68.2485
2.90142	68.2929
2.89979	68.3546
2.89817	68.3858
2.89656	68.4089
2.89494	68.4315
2.89332	68.5513
2.89171	68.6639
2.8901	68.6311
2.88849	68.5521
2.88688	68.5863
2.88527	68.6143
2.88367	68.609
2.88206	68.5353
2.88046	68.4558
2.87886	68.3687
2.87727	68.3162
2.87567	68.3096
2.87408	68.1822
2.87248	67.9935
2.87089	67.9561
2.8693	68.1592
2.86772	68.2855
2.86613	68.4219
2.86455	68.651
2.86297	68.6835
2.86139	68.7964
2.85981	68.9252
2.85823	68.9587
2.85666	69.022
2.85508	69.1193
2.85351	69.1558
2.85194	69.1503
2.85038	69.2224
2.84881	69.226
2.84724	69.2964
2.84568	69.2209
2.84412	69.0335
2.84256	69.1315
2.841	69.3361
2.83945	69.3855
2.83789	69.3998
2.83634	69.4598
2.83479	69.5289
2.83324	69.5123
2.83169	69.5116
2.83015	69.401
2.82861	69.461
2.82706	69.637
2.82552	69.603
2.82398	69.4518
2.82245	69.6234
2.82091	69.8718
2.81938	69.9552
2.81784	69.8937
2.81631	69.8127
2.81479	69.8896
2.81326	69.8951
2.81173	69.878
2.81021	69.9634
2.80869	70.0241
2.80716	70.0603
2.80565	70.1611
2.80413	70.3829
2.80261	70.4457
2.8011	70.3174
2.79959	70.2707
2.79808	70.25
2.79657	70.23
2.79506	70.2454
2.79355	70.3304
2.79205	70.3578
2.79055	70.3866
2.78904	70.4828
2.78754	70.654
2.78605	70.6296
2.78455	70.4338
2.78306	70.4146
2.78156	70.6008
2.78007	70.5761
2.77858	70.6912
2.77709	70.9206
2.77561	70.7766
2.77412	70.5886
2.77264	70.6933
2.77116	71.026
2.76968	71.0836
2.7682	71.1262
2.76672	71.0708
2.76524	70.8121
2.76377	70.8849
2.7623	70.8383
2.76083	70.6582
2.75936	70.8042
2.75789	70.9838
2.75642	71.356
2.75496	71.5247
2.7535	71.1975
2.75203	71.1876
2.75057	71.2527
2.74912	71.3049
2.74766	71.3881
2.7462	71.3949
2.74475	71.5108
2.7433	71.9268
2.74185	72.4355
2.7404	72.757
2.73895	72.642
2.7375	72.2907
2.73606	72.5204
2.73462	72.8763
2.73318	72.7854
2.73174	72.8565
2.7303	73.15
2.72886	73.2875
2.72742	73.4831
2.72599	74.1023
2.72456	74.8671
2.72313	74.9799
2.7217	75.2441
2.72027	75.7745
2.71884	75.6171
2.71742	75.6581
2.71599	75.8903
2.71457	76.1606
2.71315	76.4257
2.71173	77.0791
2.71032	77.4313
2.7089	77.3909
2.70748	77.4264
2.70607	77.4695
2.70466	77.6095
2.70325	77.8997
2.70184	78.2621
2.70043	78.4307
2.69903	78.5519
2.69762	78.739
2.69622	79.1408
2.69482	79.605
2.69342	79.7306
2.69202	79.5427
2.69062	79.5061
2.68923	79.6168
2.68783	79.8105
2.68644	80.006
2.68505	80.1207
2.68366	80.2145
2.68227	80.1073
2.68089	80.1352
2.6795	80.5607
2.67812	80.7912
2.67673	81.0511
2.67535	80.8581
2.67397	80.6408
2.6726	80.7972
2.67122	81.5419
2.66984	81.7208
2.66847	81.3147
2.6671	81.6242
2.66572	81.7605
2.66435	81.4716
2.66299	81.0307
2.66162	81.1522
2.66025	81.2483
2.65889	81.1575
2.65753	81.0516
2.65616	81.1686
2.65481	81.1279
2.65345	81.2402
2.65209	81.2975
2.65073	81.0957
2.64938	81.0024
2.64803	81.0028
2.64667	81.1765
2.64532	81.3343
2.64397	81.1563
2.64263	81.1525
2.64128	81.1334
2.63994	81.053
2.63859	81.0891
2.63725	81.1891
2.63591	81.2646
2.63457	81.3973
2.63323	81.3914
2.6319	81.5553
2.63056	81.8617
2.62923	81.5189
2.62789	81.5222
2.62656	81.6994
2.62523	81.2051
2.6239	81.1294
2.62258	81.2178
2.62125	81.5768
2.61993	81.7099
2.6186	81.454
2.61728	81.853
2.61596	81.7215
2.61464	81.334
2.61332	81.4657
2.61201	81.4272
2.61069	81.4332
2.60938	81.4373
2.60807	81.4569
2.60675	81.8545
2.60544	82.1174
2.60414	81.7689
2.60283	81.5105
2.60152	81.5132
2.60022	81.4152
2.59891	81.3039
2.59761	81.4323
2.59631	82.0535
2.59501	82.7044
2.59371	82.0664
2.59242	81.3126
2.59112	81.2722
2.58983	81.4706
2.58853	81.6233
2.58724	81.7046
2.58595	81.6475
2.58466	81.9252
2.58338	81.9164
2.58209	81.61
2.5808	81.5391
2.57952	81.3875
2.57824	81.4938
2.57695	81.5961
2.57567	81.47
2.5744	81.6779
2.57312	81.7833
2.57184	81.5233
2.57057	81.6597
2.56929	81.7322
2.56802	81.4741
2.56675	81.3921
2.56548	81.6109
2.56421	81.8226
2.56294	81.7975
2.56168	81.8121
2.56041	81.6686
2.55915	81.4085
2.55789	81.3348
2.55662	81.3465
2.55536	81.3647
2.5541	81.3405
2.55285	81.3982
2.55159	81.4253
2.55034	81.4489
2.54908	81.5567
2.54783	81.5781
2.54658	81.4424
2.54533	81.3467
2.54408	81.3999
2.54283	81.4198
2.54159	81.3578
2.54034	81.3656
2.5391	81.4768
2.53785	81.5527
2.53661	81.5821
2.53537	81.5713
2.53413	81.5499
2.53289	81.5264
2.53166	81.48
2.53042	81.5815
2.52919	81.5516
2.52795	81.4818
2.52672	81.4797
2.52549	81.5091
2.52426	81.4286
2.52303	81.4542
2.52181	81.4996
2.52058	81.3604
2.51936	81.3508
2.51813	81.4825
2.51691	81.5324
2.51569	81.4997
2.51447	81.4786
2.51325	81.5126
2.51203	81.4881
2.51082	81.4332
2.5096	81.4715
2.50839	81.5107
2.50717	81.4528
2.50596	81.4998
2.50475	81.5125
2.50354	81.4231
2.50233	81.4157
2.50113	81.5096
2.49992	81.5042
2.49872	81.4061
2.49751	81.3359
2.49631	81.4848
2.49511	81.596
2.49391	81.5924
2.49271	81.5842
2.49151	81.6293
2.49031	81.5187
2.48912	81.4864
2.48792	81.4812
2.48673	81.4102
2.48554	81.3111
2.48435	81.3472
2.48316	81.454
2.48197	81.5866
2.48078	81.6015
2.4796	81.5963
2.47841	81.664
2.47723	81.6194
2.47604	81.5215
2.47486	81.4424
2.47368	81.4864
2.4725	81.5557
2.47132	81.4596
2.47014	81.5273
2.46897	81.5632
2.46779	81.4726
2.46662	81.5161
2.46545	81.5105
2.46427	81.4607
2.4631	81.4656
2.46193	81.5172
2.46077	81.6696
2.4596	81.662
2.45843	81.5013
2.45727	81.4887
2.4561	81.5541
2.45494	81.6269
2.45378	81.5653
2.45262	81.504
2.45146	81.5147
2.4503	81.5452
2.44914	81.5579
2.44799	81.4999
2.44683	81.5377
2.44568	81.5872
2.44452	81.5575
2.44337	81.6335
2.44222	81.684
2.44107	81.6509
2.43992	81.6692
2.43877	81.6075
2.43763	81.6562
2.43648	81.6528
2.43534	81.7376
2.43419	81.8077
2.43305	81.7291
2.43191	81.6686
2.43077	81.6488
2.42963	81.5408
2.42849	81.5739
2.42736	81.7463
2.42622	81.7149
2.42509	81.7509
2.42395	81.8201
2.42282	81.7495
2.42169	81.6676
2.42056	81.5955
2.41943	81.626
2.4183	81.6944
2.41717	81.7177
2.41605	81.7699
2.41492	81.7784
2.4138	81.6168
2.41267	81.5265
2.41155	81.6601
2.41043	81.7291
2.40931	81.6274
2.40819	81.7534
2.40707	81.7421
2.40595	81.5894
2.40484	81.7147
2.40372	81.8001
2.40261	81.6603
2.4015	81.6864
2.40039	81.7117
2.39928	81.6193
2.39817	81.5289
2.39706	81.5465
2.39595	81.6536
2.39484	81.7572
2.39374	81.7052
2.39263	81.6917
2.39153	81.8332
2.39043	81.8447
2.38932	81.793
2.38822	81.7458
2.38712	81.7378
2.38603	81.7328
2.38493	81.7329
2.38383	81.6778
2.38274	81.7839
2.38164	81.8866
2.38055	81.8124
2.37946	81.7162
2.37836	81.6549
2.37727	81.7116
2.37618	81.7757
2.3751	81.798
2.37401	81.8662
2.37292	81.7896
2.37184	81.7094
2.37075	81.6863
2.36967	81.7198
2.36859	81.7445
2.3675	81.8212
2.36642	81.8914
2.36534	81.8842
2.36427	81.7336
2.36319	81.6042
2.36211	81.5826
2.36104	81.6341
2.35996	81.7428
2.35889	81.7406
2.35781	81.7459
2.35674	81.7809
2.35567	81.7801
2.3546	81.8069
2.35353	81.6718
2.35247	81.6493
2.3514	81.8213
2.35033	81.9572
2.34927	81.8956
2.3482	81.7809
2.34714	81.6817
2.34608	81.7046
2.34502	81.8479
2.34396	81.9148
2.3429	81.7613
2.34184	81.7169
2.34078	81.7089
2.33973	81.6132
2.33867	81.6559
2.33762	81.866
2.33656	82.0483
2.33551	81.8869
2.33446	81.7245
2.33341	81.848
2.33236	81.7588
2.33131	81.682
2.33026	81.8816
2.32922	81.9133
2.32817	81.9154
2.32712	82.0061
2.32608	81.9469
2.32504	81.8134
2.324	81.7824
2.32295	81.8125
2.32191	81.7846
2.32087	81.7398
2.31984	81.7537
2.3188	81.7221
2.31776	81.7194
2.31673	81.8635
2.31569	81.9049
2.31466	81.8562
2.31362	82.05
2.31259	82.0592
2.31156	81.9
2.31053	81.8087
2.3095	81.6937
2.30847	81.7631
2.30745	81.888
2.30642	81.7842
2.3054	81.6829
2.30437	81.7878
2.30335	81.9301
2.30232	81.908
2.3013	82.006
2.30028	82.0386
2.29926	81.9377
2.29824	81.8192
2.29722	81.7067
2.29621	81.7596
2.29519	81.7628
2.29417	81.7656
2.29316	81.8426
2.29215	81.8887
2.29113	81.8967
2.29012	81.8312
2.28911	81.8587
2.2881	81.9408
2.28709	81.92
2.28608	81.8993
2.28507	81.8935
2.28407	82.0333
2.28306	82.0556
2.28206	81.8723
2.28105	81.767
2.28005	81.7915
2.27905	81.836
2.27805	81.8396
2.27705	81.8502
2.27605	81.8127
2.27505	81.9228
2.27405	81.9946
2.27305	81.8508
2.27206	81.8248
2.27106	81.8815
2.27007	81.9077
2.26907	81.8516
2.26808	81.7644
2.26709	81.7181
2.2661	81.7444
2.26511	81.7005
2.26412	81.6039
2.26313	81.8233
2.26214	82.082
2.26116	82.106
2.26017	82.018
2.25919	81.9784
2.2582	81.9724
2.25722	81.8527
2.25624	81.7412
2.25526	81.8077
2.25428	81.915
2.2533	81.9171
2.25232	81.8131
2.25134	81.8174
2.25036	81.9008
2.24939	81.8703
2.24841	81.7529
2.24744	81.7516
2.24646	81.7907
2.24549	81.7737
2.24452	81.9104
2.24355	81.955
2.24257	81.7318
2.24161	81.7213
2.24064	81.8563
2.23967	81.9202
2.2387	81.9311
2.23774	81.9363
2.23677	81.9885
2.23581	81.9713
2.23484	81.9263
2.23388	81.876
2.23292	81.7841
2.23196	81.7249
2.231	81.7503
2.23004	81.8281
2.22908	81.9005
2.22812	81.8773
2.22716	81.804
2.22621	81.8114
2.22525	81.8859
2.2243	81.9655
2.22334	81.9878
2.22239	81.9616
2.22144	81.9137
2.22049	81.9248
2.21953	82.0626
2.21859	82.0739
2.21764	82.0419
2.21669	81.8386
2.21574	81.6932
2.21479	81.6574
2.21385	81.6074
2.2129	81.6411
2.21196	81.7795
2.21102	81.9469
2.21007	81.867
2.20913	81.7653
2.20819	81.8583
2.20725	81.9739
2.20631	81.8935
2.20537	81.7716
2.20444	81.7873
2.2035	81.8246
2.20256	81.8594
2.20163	81.9588
2.20069	81.9014
2.19976	81.8238
2.19883	81.8726
2.19789	81.9516
2.19696	81.9553
2.19603	81.9152
2.1951	81.8484
2.19417	81.7622
2.19325	81.6995
2.19232	81.5691
2.19139	81.6938
2.19047	81.8294
2.18954	81.8715
2.18862	81.9321
2.18769	82.0097
2.18677	82.0369
2.18585	82.0277
2.18493	81.8605
2.18401	81.7345
2.18309	81.7955
2.18217	81.75
2.18125	81.7173
2.18033	81.8909
2.17942	82.0014
2.1785	81.9913
2.17759	82.0759
2.17667	82.1108
2.17576	82.002
2.17485	81.8965
2.17393	81.8889
2.17302	81.8646
2.17211	81.8623
2.1712	81.8991
2.17029	81.9225
2.16939	81.9426
2.16848	82.0134
2.16757	82.0718
2.16667	81.9769
2.16576	81.8816
2.16486	81.8034
2.16395	81.9099
2.16305	82.0956
2.16215	82.3011
2.16125	82.1143
2.16035	81.9377
2.15945	81.8617
2.15855	81.7645
2.15765	81.8296
2.15675	81.9721
2.15586	81.9942
2.15496	81.9046
2.15406	81.8728
2.15317	82.0539
2.15228	82.0852
2.15138	82.1128
2.15049	82.0097
2.1496	81.9591
2.14871	81.9471
2.14782	81.9867
2.14693	82.0326
2.14604	82.0155
2.14515	82.1341
2.14427	82.2435
2.14338	82.1084
2.14249	82.1032
2.14161	82.2238
2.14072	82.1873
2.13984	82.0857
2.13896	82.2396
2.13808	82.2513
2.13719	82.2051
2.13631	82.1339
2.13543	82.1309
2.13455	82.1692
2.13368	82.1174
2.1328	82.0202
2.13192	81.9546
2.13105	81.9906
2.13017	82.0815
2.1293	82.1192
2.12842	82.1032
2.12755	82.0673
2.12668	82.1687
2.1258	82.1233
2.12493	82.1613
2.12406	82.2682
2.12319	82.1856
2.12232	81.9822
2.12145	81.9841
2.12059	81.9859
2.11972	81.9511
2.11885	82.0608
2.11799	82.0481
2.11712	82.0147
2.11626	82.1301
2.1154	82.1514
2.11453	82.1661
2.11367	82.1885
2.11281	82.0525
2.11195	81.8704
2.11109	81.8223
2.11023	82.1801
2.10937	82.1916
2.10851	81.8716
2.10766	81.9696
2.1068	82.1529
2.10594	82.1327
2.10509	82.1893
2.10423	82.3496
2.10338	82.3812
2.10253	82.3629
2.10168	82.2487
2.10082	82.2951
2.09997	82.132
2.09912	82.0653
2.09827	82.2997
2.09742	82.3432
2.09658	82.1934
2.09573	82.0436
2.09488	81.9723
2.09404	82.1104
2.09319	81.9734
2.09235	81.9476
2.0915	82.1846
2.09066	82.1784
2.08982	81.99
2.08897	82.2073
2.08813	82.3623
2.08729	82.2216
2.08645	82.0196
2.08561	82.119
2.08477	82.2336
2.08394	82.2878
2.0831	82.279
2.08226	82.1614
2.08143	81.8269
2.08059	81.4705
2.07976	81.6525
2.07892	82.2151
2.07809	82.2998
2.07726	82.0783
2.07643	82.3419
2.07559	82.8403
2.07476	82.6378
2.07393	82.2791
2.0731	82.1265
2.07228	82.3353
2.07145	82.3332
2.07062	82.2297
2.06979	82.3016
2.06897	81.8998
2.06814	81.8296
2.06732	82.1477
2.06649	82.1063
2.06567	82.0847
2.06485	82.1187
2.06403	82.0396
2.0632	82.0373
2.06238	82.1884
2.06156	82.1172
2.06074	82.0895
2.05993	82.2923
2.05911	82.4157
2.05829	82.0979
2.05747	81.9004
2.05666	82.0823
2.05584	82.3535
2.05503	82.4478
2.05421	82.3089
2.0534	82.3178
2.05259	82.2941
2.05177	82.1822
2.05096	82.2258
2.05015	82.2706
2.04934	82.4208
2.04853	82.414
2.04772	82.2861
2.04691	82.0291
2.04611	81.8816
2.0453	81.9142
2.04449	81.8551
2.04369	81.892
2.04288	82.0535
2.04208	82.0395
2.04127	82.0642
2.04047	82.0981
2.03967	82.1028
2.03886	82.1316
2.03806	82.152
2.03726	82.2674
2.03646	82.2481
2.03566	82.2445
2.03486	82.1653
2.03407	82.001
2.03327	82.0339
2.03247	81.9187
2.03167	81.8463
2.03088	82.0884
2.03008	82.2304
2.02929	82.2888
2.0285	82.3962
2.0277	82.3409
2.02691	82.237
2.02612	82.1401
2.02533	82.1267
2.02453	82.1653
2.02374	82.2237
2.02295	82.2227
2.02217	82.1149
2.02138	82.1101
2.02059	82.2849
2.0198	82.2841
2.01902	82.1219
2.01823	81.9822
2.01744	82.0382
2.01666	82.1593
2.01588	82.2377
2.01509	82.2428
2.01431	82.1923
2.01353	81.9141
2.01275	81.9408
2.01196	82.2207
2.01118	82.1116
2.0104	81.9308
2.00963	82.2915
2.00885	82.2826
2.00807	82.1743
2.00729	82.2245
2.00651	82.3157
2.00574	82.2822
2.00496	82.1865
2.00419	82.0557
2.00341	82.1426
2.00264	82.3228
2.00187	82.1053
2.00109	81.9172
2.00032	81.9581
