Name: Oligoclase (Feldspar) (NaSi,CaAl)AlSi_2O_8
Type: Mineral
Class: Silicates
Subclass: Tectosilicates
Particle Size: 0-45um
Sample No.: TS-3A
Owner: JPL
Wavelength range: IR
Origin: 
Collected by JPL
Description:   





Measurement: Hemispherical reflectance
First Column: X
Second Column: Y
X Units:  Wavelength (micrometers)
Y Units:  Reflectance (percent)
First X Value: 15.3853
Last X Value: 2.00032
Number of X Values: 2256
Additional information: ts03aa.txt
 
15.3853	3.52095
15.3397	3.05135
15.2945	2.90908
15.2495	2.99372
15.2048	2.63338
15.1603	2.33623
15.1161	2.15529
15.0722	2.27034
15.0285	2.42764
14.9851	2.25072
14.9419	2.41028
14.8989	2.74785
14.8563	2.80634
14.8138	2.88108
14.7716	3.10787
14.7296	3.11136
14.6879	2.66395
14.6464	2.73664
14.6052	2.99364
14.5641	3.05026
14.5233	3.00877
14.4828	3.06772
14.4424	3.19449
14.4023	3.04137
14.3624	3.08636
14.3227	3.38473
14.2833	3.30651
14.244	3.17432
14.205	3.2021
14.1662	3.07648
14.1276	3.0552
14.0892	3.21081
14.051	3.09128
14.0131	2.93018
13.9753	3.04213
13.9377	3.12885
13.9004	2.95272
13.8632	2.87566
13.8262	2.80823
13.7895	2.85932
13.7529	2.85929
13.7165	2.89329
13.6803	2.79209
13.6443	2.62361
13.6085	2.66648
13.5729	2.8467
13.5374	2.81295
13.5022	2.8391
13.4671	3.01127
13.4322	2.92914
13.3975	2.75143
13.363	2.73406
13.3286	2.69059
13.2944	2.64727
13.2604	2.62242
13.2266	2.78493
13.193	3.01544
13.1595	2.96471
13.1262	2.78813
13.093	2.81196
13.06	2.86527
13.0272	2.83457
12.9946	2.70499
12.9621	2.57056
12.9298	2.61739
12.8976	2.55527
12.8656	2.52051
12.8337	2.76758
12.8021	2.78046
12.7705	2.85117
12.7391	2.87946
12.7079	2.69461
12.6769	2.67519
12.6459	2.64609
12.6152	2.71725
12.5845	2.95081
12.5541	3.11695
12.5238	3.28848
12.4936	3.6636
12.4635	4.08823
12.4337	4.41421
12.4039	4.93817
12.3743	5.43148
12.3448	5.85292
12.3155	6.44314
12.2863	7.09342
12.2573	7.79275
12.2284	8.65699
12.1996	9.39832
12.171	9.97872
12.1425	10.5801
12.1141	11.0553
12.0859	11.2037
12.0578	11.4154
12.0298	11.5595
12.0019	11.6026
11.9742	11.7215
11.9466	11.824
11.9192	11.7973
11.8918	11.6676
11.8646	11.554
11.8375	11.4688
11.8106	11.2672
11.7837	11.1442
11.757	11.1424
11.7304	10.9758
11.7039	10.7733
11.6776	10.6457
11.6513	10.5748
11.6252	10.4752
11.5992	10.2568
11.5733	10.1665
11.5475	10.212
11.5219	10.1778
11.4963	10.1542
11.4709	10.2517
11.4455	10.4192
11.4203	10.3526
11.3952	10.0819
11.3702	9.93535
11.3454	9.90203
11.3206	9.8157
11.2959	9.6384
11.2714	9.40568
11.2469	9.16053
11.2226	9.01658
11.1983	8.7908
11.1742	8.55
11.1502	8.24863
11.1263	7.88309
11.1024	7.5215
11.0787	7.17356
11.0551	6.9485
11.0316	6.7878
11.0081	6.50593
10.9848	6.34701
10.9616	6.23377
10.9385	6.12131
10.9154	5.92215
10.8925	5.7112
10.8697	5.48956
10.8469	5.35816
10.8243	5.4398
10.8017	5.38175
10.7793	5.27225
10.7569	5.16589
10.7346	5.1382
10.7125	5.13685
10.6904	5.15977
10.6684	5.09192
10.6465	5.01379
10.6247	5.00839
10.6029	5.15053
10.5813	5.16359
10.5597	5.18157
10.5383	5.12029
10.5169	5.05956
10.4956	5.05488
10.4744	5.07506
10.4533	5.15645
10.4323	5.21488
10.4113	5.1791
10.3904	5.18799
10.3697	5.25795
10.349	5.34485
10.3284	5.51315
10.3078	5.64527
10.2874	5.5951
10.267	5.73039
10.2467	5.89941
10.2265	5.92069
10.2064	5.94325
10.1863	5.94519
10.1663	5.99691
10.1464	6.19225
10.1266	6.32915
10.1069	6.32834
10.0872	6.37017
10.0676	6.44979
10.0481	6.56496
10.0287	6.73908
10.0093	6.76572
9.99005	6.84403
9.97084	6.9973
9.95169	7.05696
9.93263	7.01416
9.91364	6.98464
9.89472	7.07595
9.87587	7.13813
9.8571	6.99696
9.83839	6.88538
9.81976	6.83255
9.80119	6.79617
9.78271	6.82039
9.76428	6.69915
9.74592	6.65952
9.72764	6.80464
9.70943	6.80371
9.69128	6.57604
9.6732	6.55745
9.65518	6.60596
9.63724	6.54782
9.61935	6.51287
9.60155	6.44369
9.5838	6.20755
9.56611	6.11144
9.5485	6.01864
9.53094	5.76725
9.51345	5.5608
9.49604	5.30646
9.47867	5.14864
9.46137	5.04106
9.44414	4.77732
9.42697	4.4242
9.40986	4.14981
9.39281	4.16752
9.37583	4.27524
9.35891	4.4675
9.34204	4.4419
9.32524	4.29511
9.3085	4.12581
9.29182	4.22786
9.27519	4.4219
9.25863	4.296
9.24213	4.18111
9.22568	4.27185
9.2093	4.20642
9.19297	4.24364
9.17669	4.26925
9.16048	4.37587
9.14433	4.53373
9.12823	4.43736
9.11218	4.42726
9.0962	4.54994
9.08027	4.56385
9.06439	4.66305
9.04858	4.75296
9.03281	4.69944
9.0171	4.66419
9.00145	4.77354
8.98585	4.93379
8.9703	4.94433
8.9548	4.83237
8.93937	4.97631
8.92398	5.12316
8.90865	5.05085
8.89337	5.00808
8.87814	5.13964
8.86296	5.21737
8.84784	5.26449
8.83277	5.39671
8.81774	5.53597
8.80277	5.50312
8.78786	5.54097
8.77298	5.48182
8.75816	5.57197
8.7434	5.8119
8.72868	5.86004
8.714	5.8058
8.69938	5.77729
8.68481	5.7711
8.67029	5.83791
8.65581	5.84443
8.64139	5.77848
8.62701	5.821
8.61268	5.86754
8.5984	5.8825
8.58416	5.97045
8.56997	6.09678
8.55583	6.12143
8.54174	6.28466
8.52769	6.40536
8.51368	6.32322
8.49973	6.31171
8.48582	6.37575
8.47195	6.44989
8.45813	6.58304
8.44436	6.70295
8.43062	6.73045
8.41693	6.67575
8.4033	6.68662
8.3897	6.76406
8.37614	6.87735
8.36264	6.90932
8.34917	6.89095
8.33574	6.82962
8.32236	6.8077
8.30903	6.83783
8.29573	6.74233
8.28248	6.5326
8.26927	6.35327
8.2561	6.14384
8.24298	5.7382
8.2299	5.27165
8.21685	4.78228
8.20385	4.36074
8.19089	4.13305
8.17797	3.81014
8.16509	3.36937
8.15225	3.08966
8.13946	2.88697
8.1267	2.78507
8.11398	2.58111
8.10131	2.26786
8.08867	1.98673
8.07606	1.86731
8.0635	1.71649
8.05099	1.51568
8.0385	1.38023
8.02606	1.12325
8.01366	0.96536
8.00129	0.989115
7.98896	0.894497
7.97667	0.82636
7.96442	0.759488
7.9522	0.639302
7.94002	0.629995
7.92788	0.594974
7.91578	0.570003
7.90371	0.590752
7.89168	0.643125
7.87969	0.621855
7.86773	0.520834
7.85581	0.522918
7.84392	0.54575
7.83207	0.591305
7.82026	0.627507
7.80849	0.585853
7.79674	0.545029
7.78503	0.565938
7.77337	0.551206
7.76173	0.596173
7.75012	0.639173
7.73856	0.712956
7.72703	0.740963
7.71553	0.703469
7.70406	0.747407
7.69263	0.87442
7.68123	1.03372
7.66987	1.12994
7.65855	1.11695
7.64725	1.15428
7.63598	1.2091
7.62475	1.33617
7.61356	1.4033
7.60239	1.49529
7.59126	1.56999
7.58017	1.59104
7.5691	1.64448
7.55806	1.76749
7.54707	1.86969
7.5361	1.99583
7.52516	2.05574
7.51425	2.12304
7.50338	2.27301
7.49253	2.49059
7.48172	2.58999
7.47094	2.71812
7.46019	2.83924
7.44947	2.91469
7.43879	3.00135
7.42813	3.15881
7.4175	3.32255
7.4069	3.38524
7.39634	3.54613
7.3858	3.67799
7.37529	3.72653
7.36482	3.8545
7.35437	4.0091
7.34396	4.12463
7.33357	4.20644
7.32321	4.31029
7.31288	4.45061
7.30258	4.67412
7.29231	4.93708
7.28207	5.10791
7.27185	5.13568
7.26167	5.22179
7.25152	5.36076
7.24139	5.58915
7.23129	5.71982
7.22122	5.81325
7.21117	5.99569
7.20116	6.16651
7.19117	6.35134
7.18121	6.49305
7.17128	6.54188
7.16137	6.66525
7.1515	6.90495
7.14164	7.14778
7.13182	7.296
7.12203	7.39935
7.11225	7.57006
7.10251	7.76078
7.0928	7.89275
7.08311	7.97468
7.07344	8.1027
7.06381	8.22743
7.0542	8.29966
7.04461	8.46511
7.03506	8.62059
7.02552	8.6867
7.01601	8.83272
7.00653	8.97467
6.99708	9.09953
6.98765	9.10751
6.97824	9.14336
6.96886	9.31399
6.95951	9.40601
6.95018	9.42451
6.94087	9.54579
6.9316	9.71039
6.92234	9.82191
6.91311	9.91712
6.90391	10.0078
6.89473	10.0805
6.88557	10.1882
6.87644	10.3163
6.86733	10.4619
6.85824	10.5843
6.84918	10.6083
6.84015	10.6226
6.83114	10.7187
6.82215	10.9021
6.81319	10.9971
6.80424	11.1134
6.79532	11.2377
6.78643	11.2956
6.77756	11.2699
6.76871	11.3614
6.75989	11.5265
6.75109	11.6709
6.74231	11.7463
6.73355	11.8093
6.72482	11.8755
6.71611	12.0493
6.70742	12.1646
6.69875	12.2119
6.69011	12.2921
6.68149	12.4047
6.67289	12.5109
6.66431	12.5685
6.65576	12.6428
6.64722	12.8793
6.63871	13.0559
6.63022	13.0665
6.62175	13.1637
6.61331	13.2694
6.60488	13.3573
6.59648	13.4595
6.5881	13.4468
6.57974	13.5797
6.5714	13.8354
6.56308	13.9227
6.55478	13.9895
6.54651	13.9971
6.53825	14.0457
6.53001	14.1597
6.5218	14.3248
6.51361	14.4634
6.50544	14.6395
6.49729	14.8077
6.48915	14.8592
6.48104	14.8304
6.47295	14.826
6.46488	14.8027
6.45683	14.8476
6.4488	14.9159
6.44079	15.1035
6.4328	15.3425
6.42482	15.3876
6.41687	15.4681
6.40894	15.3995
6.40103	15.2714
6.39314	15.2262
6.38526	15.1682
6.37741	15.138
6.36957	15.1264
6.36176	15.0983
6.35396	15.1099
6.34618	15.1818
6.33843	15.1348
6.33069	15.0297
6.32297	14.8935
6.31527	14.9163
6.30758	14.9854
6.29992	14.9516
6.29227	14.8823
6.28465	14.8651
6.27704	14.7978
6.26945	14.7272
6.26188	14.7733
6.25432	14.9196
6.24679	14.9916
6.23927	14.9907
6.23177	15.0166
6.22429	15.0565
6.21683	15.0823
6.20938	15.082
6.20195	15.0562
6.19454	15.0798
6.18715	15.22
6.17978	15.2253
6.17242	15.2354
6.16508	15.4106
6.15776	15.55
6.15045	15.5889
6.14317	15.6666
6.1359	15.7465
6.12864	15.8942
6.12141	16.0559
6.11419	16.1849
6.10699	16.1174
6.0998	16.1789
6.09263	16.3003
6.08549	16.4167
6.07835	16.5607
6.07123	16.6194
6.06413	16.663
6.05705	16.8406
6.04998	16.9989
6.04293	16.8673
6.0359	16.8138
6.02888	16.8653
6.02187	16.9372
6.01489	17.1151
6.00792	17.1157
6.00096	17.0702
5.99403	17.217
5.98711	17.3247
5.9802	17.3717
5.97331	17.459
5.96644	17.5073
5.95958	17.4988
5.95274	17.6056
5.94591	17.699
5.9391	17.8684
5.9323	17.8479
5.92552	17.7672
5.91876	17.779
5.91201	17.7192
5.90528	17.7056
5.89856	17.9287
5.89186	18.0286
5.88517	18.1388
5.8785	18.1701
5.87184	18.0007
5.8652	18.0291
5.85857	18.1255
5.85196	18.1962
5.84536	18.2527
5.83878	18.2754
5.83221	18.3952
5.82566	18.62
5.81912	18.6693
5.81259	18.474
5.80608	18.4388
5.79959	18.4961
5.79311	18.5525
5.78665	18.5932
5.78019	18.6627
5.77376	18.7917
5.76734	18.8971
5.76093	18.7589
5.75453	18.5759
5.74815	18.6514
5.74179	18.6565
5.73543	18.6638
5.7291	18.6361
5.72277	18.6114
5.71646	18.6546
5.71017	18.7712
5.70389	18.8015
5.69762	18.8013
5.69136	18.8571
5.68513	18.8117
5.6789	18.8899
5.67268	18.9896
5.66648	18.9837
5.6603	19.0346
5.65413	19.1524
5.64797	19.2683
5.64182	19.3392
5.63569	19.3158
5.62957	19.315
5.62347	19.4217
5.61737	19.5377
5.61129	19.6669
5.60522	19.8289
5.59917	19.8827
5.59313	19.8888
5.5871	20.0571
5.58109	20.2624
5.57509	20.3688
5.5691	20.4226
5.56312	20.6057
5.55716	20.8233
5.55121	21.0437
5.54528	21.223
5.53935	21.4389
5.53344	21.7086
5.52754	22.0649
5.52166	22.3275
5.51578	22.5344
5.50992	22.7803
5.50407	23.0093
5.49823	23.21
5.49241	23.4862
5.4866	23.7947
5.4808	24.127
5.47501	24.3824
5.46923	24.5505
5.46347	24.8194
5.45772	25.0488
5.45198	25.1959
5.44625	25.4999
5.44054	25.8446
5.43484	26.1378
5.42914	26.381
5.42347	26.6183
5.4178	26.8692
5.41214	27.1364
5.4065	27.4052
5.40087	27.6355
5.39525	27.8974
5.38964	28.125
5.38404	28.2901
5.37846	28.5221
5.37288	28.7173
5.36732	28.8491
5.36177	29.09
5.35623	29.3678
5.35071	29.5687
5.34519	29.6989
5.33968	29.8093
5.33419	29.9102
5.32871	30.0712
5.32324	30.2734
5.31778	30.343
5.31233	30.4343
5.30689	30.534
5.30147	30.634
5.29605	30.8145
5.29065	30.903
5.28525	30.931
5.27987	30.9806
5.2745	31.0365
5.26914	31.1589
5.26379	31.3102
5.25845	31.357
5.25312	31.3911
5.24781	31.5768
5.2425	31.7733
5.23721	31.8802
5.23192	31.9771
5.22665	32.1902
5.22138	32.4203
5.21613	32.6692
5.21089	32.8755
5.20566	33.0968
5.20044	33.2921
5.19522	33.4442
5.19002	33.675
5.18483	34.0077
5.17965	34.2232
5.17448	34.4483
5.16933	34.7163
5.16418	34.9813
5.15904	35.2155
5.15391	35.4898
5.14879	35.8128
5.14368	36.0764
5.13859	36.2754
5.1335	36.5046
5.12842	36.6793
5.12335	36.9856
5.1183	37.3596
5.11325	37.6645
5.10821	37.9199
5.10318	38.2272
5.09817	38.5342
5.09316	38.8514
5.08816	39.1944
5.08317	39.4738
5.07819	39.7692
5.07322	40.0605
5.06826	40.3441
5.06331	40.6419
5.05837	40.9504
5.05344	41.1933
5.04852	41.3998
5.04361	41.6759
5.03871	41.9724
5.03382	42.2591
5.02894	42.5113
5.02406	42.7806
5.0192	43.0318
5.01435	43.1925
5.0095	43.3703
5.00467	43.5473
4.99984	43.784
4.99502	44.0003
4.99021	44.2402
4.98542	44.4986
4.98063	44.6824
4.97585	44.8679
4.97108	45.0234
4.96632	45.209
4.96156	45.4379
4.95682	45.5639
4.95209	45.682
4.94736	45.8277
4.94264	45.956
4.93794	46.1051
4.93324	46.1998
4.92855	46.2593
4.92387	46.3301
4.9192	46.42
4.91453	46.4392
4.90988	46.4622
4.90524	46.5404
4.9006	46.6738
4.89597	46.7977
4.89135	46.891
4.88674	46.948
4.88214	47.0339
4.87755	47.1626
4.87296	47.3145
4.86839	47.4309
4.86382	47.517
4.85926	47.6298
4.85471	47.7852
4.85017	47.8875
4.84564	47.9925
4.84111	48.0797
4.8366	48.1367
4.83209	48.1544
4.82759	48.2226
4.8231	48.3463
4.81862	48.4008
4.81415	48.4493
4.80968	48.5651
4.80522	48.6835
4.80077	48.7468
4.79633	48.7805
4.7919	48.8098
4.78747	48.7669
4.78306	48.8089
4.77865	48.9157
4.77425	49.0664
4.76986	49.1549
4.76547	49.2903
4.7611	49.3625
4.75673	49.3889
4.75237	49.5004
4.74802	49.7036
4.74367	49.918
4.73934	50.0906
4.73501	50.2149
4.73069	50.3025
4.72638	50.4199
4.72207	50.5766
4.71777	50.7641
4.71348	50.9098
4.7092	51.05
4.70493	51.231
4.70066	51.4267
4.69641	51.5823
4.69216	51.7214
4.68791	51.8846
4.68368	52.062
4.67945	52.2574
4.67523	52.386
4.67102	52.5627
4.66682	52.7567
4.66262	52.9137
4.65843	53.1063
4.65425	53.3131
4.65007	53.5033
4.64591	53.7403
4.64175	53.9337
4.6376	54.0723
4.63345	54.2603
4.62932	54.5461
4.62519	54.8555
4.62106	55.0284
4.61695	55.1992
4.61284	55.5045
4.60874	55.7558
4.60465	55.9535
4.60056	56.1417
4.59648	56.4362
4.59241	56.763
4.58835	57.056
4.58429	57.3457
4.58024	57.6233
4.5762	57.8725
4.57216	58.1902
4.56814	58.4857
4.56411	58.7301
4.5601	58.9966
4.55609	59.2863
4.55209	59.5376
4.5481	59.7972
4.54411	60.1126
4.54013	60.3472
4.53616	60.5473
4.5322	60.8093
4.52824	61.0589
4.52429	61.3054
4.52034	61.5406
4.51641	61.8181
4.51247	62.1104
4.50855	62.3193
4.50463	62.58
4.50072	62.863
4.49682	63.07
4.49292	63.3052
4.48903	63.5546
4.48515	63.8068
4.48127	64.0684
4.4774	64.2945
4.47354	64.4642
4.46968	64.7033
4.46584	64.9315
4.46199	65.218
4.45815	65.4794
4.45432	65.6903
4.4505	65.8441
4.44668	66.028
4.44287	66.254
4.43907	66.4495
4.43527	66.7109
4.43148	66.9074
4.4277	67.045
4.42392	67.2142
4.42015	67.3958
4.41638	67.6467
4.41262	67.8639
4.40887	68.011
4.40513	68.126
4.40139	68.3239
4.39765	68.5567
4.39393	68.716
4.39021	68.8837
4.38649	69.154
4.38278	69.2766
4.37908	69.3458
4.37539	69.5755
4.3717	69.8223
4.36801	70.0248
4.36434	70.2279
4.36067	70.4472
4.357	70.6595
4.35335	70.8418
4.34969	70.9733
4.34605	71.1393
4.34241	71.3096
4.33877	71.4963
4.33514	71.702
4.33152	71.884
4.32791	72.0631
4.3243	72.2305
4.32069	72.3883
4.3171	72.5395
4.31351	72.7393
4.30992	72.919
4.30634	73.0633
4.30277	73.1946
4.2992	73.3875
4.29564	73.5405
4.29208	73.6417
4.28853	73.768
4.28499	73.9361
4.28145	74.1467
4.27792	74.336
4.27439	74.4399
4.27087	74.5299
4.26735	74.6858
4.26384	74.8825
4.26034	75.0108
4.25684	75.1616
4.25335	75.3183
4.24986	75.4193
4.24638	75.4992
4.24291	75.6157
4.23944	75.7495
4.23598	75.8181
4.23252	75.9654
4.22906	76.1721
4.22562	76.307
4.22218	76.373
4.21874	76.5098
4.21531	76.6596
4.21189	76.7122
4.20847	76.7712
4.20506	76.9569
4.20165	77.1092
4.19825	77.2051
4.19485	77.3228
4.19146	77.3782
4.18807	77.4733
4.18469	77.578
4.18132	77.6106
4.17795	77.6998
4.17458	77.7676
4.17123	77.813
4.16787	77.8939
4.16453	78.0132
4.16118	78.0932
4.15785	78.1154
4.15451	78.1748
4.15119	78.2158
4.14787	78.2554
4.14455	78.3214
4.14124	78.3577
4.13794	78.3534
4.13464	78.4216
4.13134	78.5123
4.12805	78.5411
4.12477	78.5585
4.12149	78.554
4.11822	78.5703
4.11495	78.5998
4.11168	78.6434
4.10843	78.7569
4.10517	78.8306
4.10192	78.8117
4.09868	78.8222
4.09545	78.8706
4.09221	78.8439
4.08899	78.8518
4.08576	78.8995
4.08255	78.9198
4.07933	78.9071
4.07613	78.9945
4.07292	79.0959
4.06973	79.0883
4.06654	79.066
4.06335	79.0633
4.06017	79.0516
4.05699	79.0553
4.05382	79.0744
4.05065	79.0415
4.04749	79.0761
4.04433	79.0945
4.04118	79.0836
4.03803	79.0549
4.03489	79.0195
4.03175	79.0019
4.02862	78.9713
4.02549	78.9116
4.02237	78.8993
4.01925	78.8712
4.01614	78.8605
4.01303	78.8604
4.00993	78.8113
4.00683	78.7236
4.00373	78.6249
4.00064	78.5637
3.99756	78.5031
3.99448	78.3781
3.9914	78.2695
3.98833	78.2156
3.98527	78.1579
3.98221	78.1645
3.97915	78.212
3.9761	78.189
3.97305	78.1889
3.97001	78.2693
3.96697	78.2944
3.96394	78.2361
3.96091	78.311
3.95789	78.5099
3.95487	78.5769
3.95186	78.6766
3.94885	78.8184
3.94584	78.9015
3.94284	78.9514
3.93984	79.0433
3.93685	79.0964
3.93386	79.0868
3.93088	79.185
3.9279	79.2564
3.92493	79.2824
3.92196	79.3642
3.919	79.3663
3.91604	79.3551
3.91308	79.3842
3.91013	79.408
3.90718	79.5072
3.90424	79.5722
3.9013	79.527
3.89837	79.4942
3.89544	79.5831
3.89252	79.6562
3.8896	79.6619
3.88668	79.6472
3.88377	79.6323
3.88086	79.6725
3.87796	79.6794
3.87506	79.6848
3.87217	79.6818
3.86928	79.6372
3.86639	79.6612
3.86351	79.7177
3.86064	79.7924
3.85776	79.8013
3.8549	79.8164
3.85203	79.7897
3.84917	79.7605
3.84631	79.8184
3.84346	79.8324
3.84062	79.8775
3.83777	79.9597
3.83494	79.9489
3.8321	79.9134
3.82927	79.9686
3.82644	80.0142
3.82362	79.9279
3.82081	79.8814
3.81799	79.9332
3.81518	79.9707
3.81238	80.024
3.80958	80.0451
3.80678	80.046
3.80399	80.0491
3.8012	80.0638
3.79841	80.0903
3.79563	80.1488
3.79286	80.2139
3.79008	80.192
3.78731	80.1447
3.78455	80.1527
3.78179	80.1651
3.77903	80.1862
3.77628	80.2044
3.77353	80.2125
3.77079	80.1831
3.76805	80.0657
3.76531	80.046
3.76258	80.1071
3.75985	80.1615
3.75713	80.1447
3.7544	80.0773
3.75169	80.0607
3.74898	80.0432
3.74627	80.0027
3.74356	80.0236
3.74086	80.0202
3.73816	80.0062
3.73547	80.029
3.73278	79.9893
3.7301	79.9124
3.72741	79.8595
3.72474	79.8443
3.72206	79.9176
3.71939	79.883
3.71673	79.8294
3.71406	79.7834
3.71141	79.7404
3.70875	79.7786
3.7061	79.822
3.70345	79.7838
3.70081	79.7638
3.69817	79.7628
3.69553	79.7014
3.6929	79.5769
3.69027	79.5564
3.68765	79.5599
3.68503	79.5506
3.68241	79.576
3.6798	79.5303
3.67719	79.4137
3.67458	79.3832
3.67198	79.4147
3.66938	79.3835
3.66678	79.3122
3.66419	79.3165
3.66161	79.3582
3.65902	79.2488
3.65644	79.1418
3.65387	79.1372
3.65129	79.0553
3.64872	78.9864
3.64616	78.9888
3.64359	79.0077
3.64103	79.0088
3.63848	78.9388
3.63593	78.9294
3.63338	78.939
3.63084	78.8412
3.6283	78.7359
3.62576	78.7507
3.62322	78.7791
3.62069	78.7698
3.61817	78.7548
3.61564	78.6485
3.61312	78.5365
3.61061	78.5318
3.6081	78.5108
3.60559	78.4638
3.60308	78.3877
3.60058	78.3366
3.59808	78.304
3.59558	78.2784
3.59309	78.1888
3.59061	78.0762
3.58812	77.9987
3.58564	77.9528
3.58316	77.9593
3.58069	77.955
3.57822	77.8323
3.57575	77.7542
3.57328	77.7043
3.57082	77.6382
3.56836	77.528
3.56591	77.4706
3.56346	77.4841
3.56101	77.4647
3.55857	77.3566
3.55613	77.2134
3.55369	77.0882
3.55126	77.0055
3.54883	76.9404
3.5464	76.837
3.54397	76.7575
3.54155	76.6888
3.53914	76.631
3.53672	76.4885
3.53431	76.3549
3.5319	76.2528
3.5295	76.1188
3.5271	75.9946
3.5247	75.8516
3.52231	75.6905
3.51991	75.5498
3.51753	75.284
3.51514	75.026
3.51276	74.7864
3.51038	74.4783
3.50801	74.2402
3.50563	74.0796
3.50327	73.9089
3.5009	73.7929
3.49854	73.6842
3.49618	73.6074
3.49382	73.5848
3.49147	73.5772
3.48912	73.6364
3.48677	73.6477
3.48443	73.5218
3.48209	73.4376
3.47975	73.3575
3.47742	73.1926
3.47509	73.1234
3.47276	73.1311
3.47044	73.1253
3.46812	73.1916
3.4658	73.2164
3.46348	73.2206
3.46117	73.1519
3.45886	72.9936
3.45656	72.9218
3.45425	72.8615
3.45195	72.685
3.44966	72.5281
3.44736	72.438
3.44507	72.3537
3.44279	72.2618
3.4405	72.1232
3.43822	71.9045
3.43594	71.7252
3.43367	71.5893
3.43139	71.4068
3.42912	71.1463
3.42686	70.9219
3.42459	70.6981
3.42233	70.4388
3.42007	70.2186
3.41782	70.1074
3.41557	69.9762
3.41332	69.8577
3.41108	69.8936
3.40883	69.8915
3.40659	69.8596
3.40435	69.8619
3.40212	69.922
3.39989	69.9904
3.39766	69.9637
3.39544	70.1369
3.39322	70.204
3.391	70.0437
3.38878	69.9477
3.38657	69.8906
3.38436	69.7262
3.38215	69.6199
3.37994	69.4918
3.37774	69.3075
3.37554	69.2477
3.37335	69.2059
3.37115	69.1414
3.36896	69.1305
3.36678	69.1468
3.36459	69.1766
3.36241	69.2246
3.36023	69.2481
3.35805	69.2765
3.35588	69.1554
3.35371	69.0238
3.35154	68.936
3.34938	68.9765
3.34721	68.9603
3.34505	68.89
3.3429	68.8977
3.34074	68.9528
3.33859	68.88
3.33644	68.7514
3.3343	68.674
3.33215	68.6033
3.33001	68.5879
3.32788	68.56
3.32574	68.4549
3.32361	68.3102
3.32148	68.1758
3.31936	68.179
3.31723	68.1592
3.31511	68.0428
3.31299	67.858
3.31088	67.659
3.30876	67.6065
3.30665	67.503
3.30455	67.3499
3.30244	67.2438
3.30034	67.1535
3.29824	67.0846
3.29614	66.9997
3.29405	66.8885
3.29196	66.7646
3.28987	66.6762
3.28778	66.5708
3.2857	66.4458
3.28362	66.3587
3.28154	66.212
3.27946	66.0889
3.27739	65.949
3.27532	65.7575
3.27325	65.6607
3.27119	65.5568
3.26913	65.4335
3.26707	65.3269
3.26501	65.1893
3.26295	65.0502
3.2609	64.9579
3.25885	64.8872
3.2568	64.7217
3.25476	64.6151
3.25272	64.5264
3.25068	64.3327
3.24864	64.1412
3.24661	64.0298
3.24458	63.9547
3.24255	63.864
3.24052	63.7055
3.2385	63.5677
3.23648	63.4518
3.23446	63.3032
3.23244	63.1048
3.23043	62.947
3.22841	62.838
3.2264	62.6666
3.2244	62.5044
3.22239	62.4291
3.22039	62.3506
3.21839	62.1154
3.2164	61.898
3.2144	61.7472
3.21241	61.6052
3.21042	61.4501
3.20844	61.3138
3.20645	61.0699
3.20447	60.9003
3.20249	60.8334
3.20051	60.6169
3.19854	60.3375
3.19657	60.1432
3.1946	60.0529
3.19263	59.8811
3.19067	59.6683
3.1887	59.4413
3.18674	59.2788
3.18479	59.1802
3.18283	59.0384
3.18088	58.8555
3.17893	58.6239
3.17698	58.4101
3.17504	58.0995
3.17309	57.8993
3.17115	57.7294
3.16921	57.5886
3.16728	57.4492
3.16534	57.3655
3.16341	57.2597
3.16148	57.1501
3.15956	56.9791
3.15763	56.791
3.15571	56.616
3.15379	56.4801
3.15187	56.3754
3.14996	56.2211
3.14805	56.1236
3.14614	56.0004
3.14423	55.867
3.14232	55.7765
3.14042	55.6949
3.13852	55.583
3.13662	55.4713
3.13472	55.3886
3.13283	55.297
3.13094	55.1728
3.12905	54.9971
3.12716	54.8453
3.12528	54.7919
3.12339	54.7587
3.12151	54.6101
3.11964	54.4531
3.11776	54.3695
3.11589	54.2446
3.11401	54.1841
3.11214	54.0565
3.11028	53.7647
3.10841	53.6207
3.10655	53.5637
3.10469	53.3755
3.10283	53.227
3.10098	53.1579
3.09912	53.0282
3.09727	52.9396
3.09542	52.8697
3.09358	52.7037
3.09173	52.6246
3.08989	52.6327
3.08805	52.5197
3.08621	52.3883
3.08437	52.3025
3.08254	52.1797
3.08071	52.0999
3.07888	52.0957
3.07705	52.0561
3.07523	51.9852
3.0734	51.8872
3.07158	51.828
3.06977	51.7815
3.06795	51.7099
3.06613	51.5993
3.06432	51.5535
3.06251	51.4612
3.0607	51.4048
3.0589	51.36
3.0571	51.3031
3.05529	51.2678
3.05349	51.2076
3.0517	51.1008
3.0499	50.9726
3.04811	50.8641
3.04632	50.8857
3.04453	50.9021
3.04274	50.8224
3.04096	50.5748
3.03918	50.2874
3.0374	50.1127
3.03562	50.0554
3.03384	49.9661
3.03207	49.8691
3.03029	49.6351
3.02852	49.375
3.02676	49.1501
3.02499	49.0015
3.02323	48.8442
3.02146	48.6901
3.0197	48.4189
3.01795	48.2103
3.01619	48.0667
3.01444	47.7618
3.01269	47.3707
3.01094	47.1406
3.00919	47.039
3.00744	46.9303
3.0057	46.7922
3.00396	46.7166
3.00222	46.6015
3.00048	46.5573
2.99875	46.6343
2.99701	46.6981
2.99528	46.7808
2.99355	46.7992
2.99183	46.711
2.9901	46.5999
2.98838	46.569
2.98666	46.6013
2.98494	46.6929
2.98322	46.6993
2.9815	46.7237
2.97979	46.7978
2.97808	46.7274
2.97637	46.5402
2.97466	46.5357
2.97295	46.632
2.97125	46.7586
2.96955	46.8483
2.96785	46.8337
2.96615	46.767
2.96446	46.6918
2.96276	46.7767
2.96107	46.8127
2.95938	46.7423
2.95769	46.7753
2.95601	46.8604
2.95432	46.7925
2.95264	46.7316
2.95096	46.7132
2.94928	46.7706
2.9476	46.7992
2.94593	46.7859
2.94425	46.7265
2.94258	46.8415
2.94092	46.9057
2.93925	46.7555
2.93758	46.6845
2.93592	46.7662
2.93426	46.7928
2.9326	46.8751
2.93094	46.8634
2.92928	46.8121
2.92763	46.7187
2.92598	46.6949
2.92433	46.833
2.92268	46.9252
2.92103	47.0118
2.91939	47.1542
2.91775	47.2862
2.9161	47.2185
2.91447	47.0998
2.91283	47.1701
2.91119	47.2647
2.90956	47.2228
2.90793	47.2977
2.9063	47.3698
2.90467	47.3083
2.90304	47.2997
2.90142	47.4276
2.89979	47.5937
2.89817	47.6973
2.89656	47.6415
2.89494	47.7328
2.89332	47.8887
2.89171	47.8415
2.8901	47.818
2.88849	47.9444
2.88688	47.8704
2.88527	47.8685
2.88367	48.0552
2.88206	48.0804
2.88046	48.0067
2.87886	47.9543
2.87727	47.9362
2.87567	47.8923
2.87408	47.856
2.87248	47.8566
2.87089	47.8265
2.8693	47.9673
2.86772	48.2861
2.86613	48.4464
2.86455	48.4411
2.86297	48.4676
2.86139	48.6196
2.85981	48.8532
2.85823	49.1213
2.85666	49.3708
2.85508	49.6018
2.85351	49.8857
2.85194	50.1124
2.85038	50.1742
2.84881	50.271
2.84724	50.5753
2.84568	50.8322
2.84412	51.0678
2.84256	51.3097
2.841	51.6175
2.83945	51.6336
2.83789	51.6414
2.83634	51.8368
2.83479	52.1473
2.83324	52.3995
2.83169	52.5321
2.83015	52.6996
2.82861	52.957
2.82706	53.1013
2.82552	53.3085
2.82398	53.441
2.82245	53.5384
2.82091	53.8055
2.81938	53.9225
2.81784	54.013
2.81631	54.167
2.81479	54.34
2.81326	54.5457
2.81173	54.727
2.81021	54.8972
2.80869	55.1121
2.80716	55.265
2.80565	55.3783
2.80413	55.5285
2.80261	55.7629
2.8011	55.8911
2.79959	55.8924
2.79808	55.9467
2.79657	56.1442
2.79506	56.2711
2.79355	56.3299
2.79205	56.3425
2.79055	56.4164
2.78904	56.5343
2.78754	56.56
2.78605	56.4824
2.78455	56.3714
2.78306	56.2694
2.78156	56.0924
2.78007	55.8628
2.77858	55.5614
2.77709	55.2949
2.77561	55.0437
2.77412	54.6293
2.77264	54.1785
2.77116	53.6412
2.76968	53.1564
2.7682	52.6401
2.76672	52.3719
2.76524	52.0457
2.76377	51.5591
2.7623	51.3329
2.76083	50.9297
2.75936	50.6281
2.75789	50.5907
2.75642	50.787
2.75496	51.1542
2.7535	51.215
2.75203	51.5861
2.75057	52.2299
2.74912	52.6296
2.74766	53.1243
2.7462	53.7034
2.74475	53.9582
2.7433	54.3197
2.74185	54.8587
2.7404	55.3017
2.73895	55.903
2.7375	56.3565
2.73606	56.7724
2.73462	57.3472
2.73318	57.9422
2.73174	58.5735
2.7303	59.2353
2.72886	60.0028
2.72742	60.9141
2.72599	62.2589
2.72456	63.7904
2.72313	64.9409
2.7217	66.237
2.72027	67.6993
2.71884	68.7147
2.71742	69.7618
2.71599	70.9154
2.71457	72.1924
2.71315	73.3597
2.71173	74.5436
2.71032	75.5652
2.7089	76.2401
2.70748	76.6491
2.70607	77.0857
2.70466	77.659
2.70325	78.1552
2.70184	78.6956
2.70043	79.1233
2.69903	79.5326
2.69762	80.0739
2.69622	80.7314
2.69482	81.2865
2.69342	81.671
2.69202	81.8594
2.69062	82.0329
2.68923	82.2776
2.68783	82.6877
2.68644	83.0905
2.68505	83.332
2.68366	83.4743
2.68227	83.5081
2.68089	83.6658
2.6795	83.9597
2.67812	84.1815
2.67673	84.4499
2.67535	84.4494
2.67397	84.4413
2.6726	84.6608
2.67122	85.16
2.66984	85.301
2.66847	85.1472
2.6671	85.5159
2.66572	85.7392
2.66435	85.6411
2.66299	85.4456
2.66162	85.5728
2.66025	85.6354
2.65889	85.534
2.65753	85.491
2.65616	85.5895
2.65481	85.645
2.65345	85.812
2.65209	86.0109
2.65073	85.9671
2.64938	85.9163
2.64803	86.0082
2.64667	86.0489
2.64532	85.9628
2.64397	85.9313
2.64263	86.1113
2.64128	86.21
2.63994	86.1627
2.63859	86.1564
2.63725	86.1838
2.63591	86.1937
2.63457	86.2755
2.63323	86.2998
2.6319	86.4213
2.63056	86.6732
2.62923	86.6105
2.62789	86.5659
2.62656	86.6379
2.62523	86.3472
2.6239	86.3162
2.62258	86.4246
2.62125	86.6374
2.61993	86.7463
2.6186	86.621
2.61728	86.822
2.61596	86.7609
2.61464	86.4567
2.61332	86.39
2.61201	86.4078
2.61069	86.5604
2.60938	86.682
2.60807	86.6828
2.60675	86.8887
2.60544	87.0027
2.60414	86.8008
2.60283	86.6828
2.60152	86.6873
2.60022	86.5796
2.59891	86.6144
2.59761	86.7981
2.59631	87.0621
2.59501	87.4977
2.59371	87.1781
2.59242	86.7581
2.59112	86.7613
2.58983	86.8815
2.58853	87.0227
2.58724	86.9828
2.58595	86.9118
2.58466	87.0976
2.58338	87.1636
2.58209	87.0691
2.5808	87.0244
2.57952	86.8256
2.57824	86.6842
2.57695	86.7479
2.57567	86.8727
2.5744	87.0965
2.57312	87.197
2.57184	87.0101
2.57057	87.0732
2.56929	87.1056
2.56802	86.932
2.56675	86.852
2.56548	86.9901
2.56421	87.1701
2.56294	87.1725
2.56168	87.1767
2.56041	87.1188
2.55915	87.035
2.55789	86.9208
2.55662	86.8502
2.55536	86.886
2.5541	86.9778
2.55285	87.1221
2.55159	87.1721
2.55034	87.1467
2.54908	87.1359
2.54783	87.2057
2.54658	87.1847
2.54533	87.1209
2.54408	87.0926
2.54283	87.0723
2.54159	87.0337
2.54034	86.9731
2.5391	86.8863
2.53785	86.9401
2.53661	87.1419
2.53537	87.1847
2.53413	87.0757
2.53289	87.011
2.53166	87.0184
2.53042	86.9834
2.52919	87.0671
2.52795	87.1756
2.52672	87.1942
2.52549	87.123
2.52426	87.1066
2.52303	87.1537
2.52181	87.1778
2.52058	87.0841
2.51936	87.0932
2.51813	87.1798
2.51691	87.2544
2.51569	87.1852
2.51447	86.9725
2.51325	86.9652
2.51203	87.0394
2.51082	87.0514
2.5096	87.0888
2.50839	87.1875
2.50717	87.1949
2.50596	87.0966
2.50475	87.0517
2.50354	87.2317
2.50233	87.1226
2.50113	86.9909
2.49992	87.0417
2.49872	87.162
2.49751	87.2228
2.49631	87.1737
2.49511	87.0384
2.49391	87.0038
2.49271	87.1632
2.49151	87.1739
2.49031	87.0805
2.48912	87.0349
2.48792	87.0414
2.48673	87.1047
2.48554	87.0208
2.48435	86.999
2.48316	87.0714
2.48197	87.098
2.48078	87.0696
2.4796	87.0335
2.47841	87.0255
2.47723	87.0796
2.47604	87.2088
2.47486	87.1748
2.47368	87.0318
2.4725	87.0314
2.47132	87.1387
2.47014	87.1985
2.46897	87.2183
2.46779	87.1092
2.46662	87.0619
2.46545	87.1293
2.46427	87.1202
2.4631	87.0905
2.46193	87.1333
2.46077	87.0751
2.4596	87.088
2.45843	87.1789
2.45727	87.2467
2.4561	87.1956
2.45494	87.2399
2.45378	87.3184
2.45262	87.3368
2.45146	87.3293
2.4503	87.1954
2.44914	87.1543
2.44799	87.1909
2.44683	87.2145
2.44568	87.1595
2.44452	87.1985
2.44337	87.4119
2.44222	87.3825
2.44107	87.2295
2.43992	87.1933
2.43877	87.1136
2.43763	87.0996
2.43648	87.2269
2.43534	87.3292
2.43419	87.348
2.43305	87.2071
2.43191	87.288
2.43077	87.5294
2.42963	87.4663
2.42849	87.3422
2.42736	87.3555
2.42622	87.4138
2.42509	87.5127
2.42395	87.5811
2.42282	87.4509
2.42169	87.3171
2.42056	87.4361
2.41943	87.4756
2.4183	87.5319
2.41717	87.795
2.41605	87.8385
2.41492	87.6537
2.4138	87.5995
2.41267	87.7139
2.41155	87.7491
2.41043	87.788
2.40931	87.7351
2.40819	87.7232
2.40707	87.7406
2.40595	87.8881
2.40484	87.9377
2.40372	87.8376
2.40261	87.786
2.4015	87.8365
2.40039	87.9037
2.39928	87.9422
2.39817	87.8966
2.39706	87.8849
2.39595	88.0334
2.39484	87.9927
2.39374	87.8791
2.39263	87.9119
2.39153	87.9155
2.39043	87.9523
2.38932	87.9771
2.38822	87.8561
2.38712	87.8078
2.38603	87.8634
2.38493	87.8915
2.38383	87.9062
2.38274	87.8629
2.38164	87.9016
2.38055	87.8646
2.37946	87.8292
2.37836	87.8595
2.37727	87.8664
2.37618	87.8693
2.3751	87.8556
2.37401	87.8369
2.37292	87.7488
2.37184	87.6552
2.37075	87.6509
2.36967	87.7218
2.36859	87.6816
2.3675	87.5941
2.36642	87.5476
2.36534	87.5303
2.36427	87.4362
2.36319	87.2647
2.36211	87.1979
2.36104	87.2041
2.35996	87.1606
2.35889	87.17
2.35781	87.2883
2.35674	87.2874
2.35567	87.2378
2.3546	87.1424
2.35353	87.2161
2.35247	87.3045
2.3514	87.2671
2.35033	87.3114
2.34927	87.4202
2.3482	87.4861
2.34714	87.4293
2.34608	87.299
2.34502	87.2777
2.34396	87.3604
2.3429	87.4424
2.34184	87.5245
2.34078	87.5516
2.33973	87.5411
2.33867	87.6672
2.33762	87.6874
2.33656	87.6702
2.33551	87.7459
2.33446	87.767
2.33341	87.7996
2.33236	87.7599
2.33131	87.7818
2.33026	87.9692
2.32922	88.0278
2.32817	87.9623
2.32712	88.0683
2.32608	88.1414
2.32504	88.0813
2.324	88.1496
2.32295	88.2686
2.32191	88.3078
2.32087	88.242
2.31984	88.1694
2.3188	88.2699
2.31776	88.4088
2.31673	88.4959
2.31569	88.5664
2.31466	88.576
2.31362	88.4058
2.31259	88.3123
2.31156	88.5085
2.31053	88.627
2.3095	88.6423
2.30847	88.6165
2.30745	88.5354
2.30642	88.4957
2.3054	88.3987
2.30437	88.3583
2.30335	88.4884
2.30232	88.6001
2.3013	88.5982
2.30028	88.6179
2.29926	88.694
2.29824	88.6934
2.29722	88.7252
2.29621	88.6842
2.29519	88.5837
2.29417	88.6494
2.29316	88.6932
2.29215	88.6644
2.29113	88.7157
2.29012	88.8566
2.28911	88.9465
2.2881	89.0175
2.28709	88.9324
2.28608	88.8194
2.28507	88.856
2.28407	88.8846
2.28306	88.8089
2.28206	88.8588
2.28105	88.7918
2.28005	88.7012
2.27905	88.7585
2.27805	88.7344
2.27705	88.6918
2.27605	88.7454
2.27505	88.8268
2.27405	88.8833
2.27305	88.9664
2.27206	89.0352
2.27106	88.9664
2.27007	88.864
2.26907	88.8295
2.26808	88.8242
2.26709	88.8691
2.2661	88.8807
2.26511	88.7826
2.26412	88.7236
2.26313	88.7493
2.26214	88.7031
2.26116	88.8137
2.26017	88.9245
2.25919	88.9453
2.2582	88.8488
2.25722	88.8349
2.25624	88.9029
2.25526	88.8667
2.25428	88.8372
2.2533	88.8565
2.25232	88.8768
2.25134	88.8722
2.25036	88.8194
2.24939	88.8757
2.24841	89.042
2.24744	89.1689
2.24646	89.0849
2.24549	89.0164
2.24452	88.9263
2.24355	88.8485
2.24257	88.8653
2.24161	88.8817
2.24064	88.8763
2.23967	88.9846
2.2387	89.0158
2.23774	88.9646
2.23677	88.9003
2.23581	88.9079
2.23484	88.9268
2.23388	88.9167
2.23292	89.0022
2.23196	88.9772
2.231	88.917
2.23004	88.8475
2.22908	88.8122
2.22812	88.7194
2.22716	88.7294
2.22621	88.7333
2.22525	88.7305
2.2243	88.7269
2.22334	88.8673
2.22239	88.9616
2.22144	89.0102
2.22049	88.904
2.21953	88.748
2.21859	88.7553
2.21764	88.6831
2.21669	88.7147
2.21574	88.7573
2.21479	88.8228
2.21385	88.7949
2.2129	88.6598
2.21196	88.5379
2.21102	88.5245
2.21007	88.5089
2.20913	88.3356
2.20819	88.2657
2.20725	88.3728
2.20631	88.3694
2.20537	88.2991
2.20444	88.2172
2.2035	88.1141
2.20256	88.029
2.20163	88.0813
2.20069	88.17
2.19976	88.0795
2.19883	87.8967
2.19789	87.9004
2.19696	88.0439
2.19603	88.061
2.1951	88.0822
2.19417	88.084
2.19325	88.0426
2.19232	88.1183
2.19139	88.126
2.19047	88.1981
2.18954	88.2023
2.18862	88.1919
2.18769	88.3889
2.18677	88.5314
2.18585	88.5305
2.18493	88.5359
2.18401	88.561
2.18309	88.574
2.18217	88.6683
2.18125	88.7999
2.18033	88.8593
2.17942	88.8208
2.1785	88.7631
2.17759	88.8917
2.17667	89.0061
2.17576	89.0481
2.17485	89.1685
2.17393	89.0989
2.17302	89.0168
2.17211	89.1213
2.1712	89.2891
2.17029	89.4601
2.16939	89.4571
2.16848	89.2686
2.16757	89.1852
2.16667	89.2557
2.16576	89.2857
2.16486	89.3151
2.16395	89.4472
2.16305	89.386
2.16215	89.4456
2.16125	89.6206
2.16035	89.587
2.15945	89.3151
2.15855	89.3129
2.15765	89.4986
2.15675	89.4961
2.15586	89.4812
2.15496	89.4514
2.15406	89.2705
2.15317	89.3189
2.15228	89.3889
2.15138	89.5501
2.15049	89.5962
2.1496	89.5937
2.14871	89.4646
2.14782	89.3247
2.14693	89.2757
2.14604	89.41
2.14515	89.5067
2.14427	89.4486
2.14338	89.3997
2.14249	89.4248
2.14161	89.4475
2.14072	89.5081
2.13984	89.5845
2.13896	89.5557
2.13808	89.5528
2.13719	89.6564
2.13631	89.6282
2.13543	89.4778
2.13455	89.4644
2.13368	89.4378
2.1328	89.4842
2.13192	89.5222
2.13105	89.5131
2.13017	89.5281
2.1293	89.5014
2.12842	89.5413
2.12755	89.6203
2.12668	89.4773
2.1258	89.3766
2.12493	89.5406
2.12406	89.5377
2.12319	89.5227
2.12232	89.6533
2.12145	89.6906
2.12059	89.5994
2.11972	89.6046
2.11885	89.6279
2.11799	89.5975
2.11712	89.513
2.11626	89.5986
2.1154	89.669
2.11453	89.6527
2.11367	89.7095
2.11281	89.6534
2.11195	89.3913
2.11109	89.4461
2.11023	89.5965
2.10937	89.5765
2.10851	89.4906
2.10766	89.5277
2.1068	89.6523
2.10594	89.7622
2.10509	89.7324
2.10423	89.6131
2.10338	89.4585
2.10253	89.4619
2.10168	89.669
2.10082	89.5531
2.09997	89.4171
2.09912	89.5743
2.09827	89.7275
2.09742	89.7852
2.09658	89.8678
2.09573	89.6947
2.09488	89.5362
2.09404	89.7606
2.09319	89.6653
2.09235	89.3704
2.0915	89.3868
2.09066	89.4724
2.08982	89.4427
2.08897	89.5697
2.08813	89.8313
2.08729	89.6788
2.08645	89.5032
2.08561	89.5784
2.08477	89.6426
2.08394	89.534
2.0831	89.5107
2.08226	89.6548
2.08143	89.6007
2.08059	89.4139
2.07976	89.2648
2.07892	89.3076
2.07809	89.3326
2.07726	89.3995
2.07643	89.8066
2.07559	90.0859
2.07476	89.8328
2.07393	89.6104
2.0731	89.5777
2.07228	90.0368
2.07145	90.1002
2.07062	89.7696
2.06979	89.6973
2.06897	89.5654
2.06814	89.5379
2.06732	89.4979
2.06649	89.4352
2.06567	89.428
2.06485	89.5963
2.06403	89.6551
2.0632	89.583
2.06238	89.5795
2.06156	89.6348
2.06074	89.5363
2.05993	89.5314
2.05911	89.5344
2.05829	89.3406
2.05747	89.3034
2.05666	89.3014
2.05584	89.4557
2.05503	89.6356
2.05421	89.5573
2.0534	89.5112
2.05259	89.487
2.05177	89.4054
2.05096	89.3748
2.05015	89.4794
2.04934	89.5678
2.04853	89.4775
2.04772	89.5017
2.04691	89.5302
2.04611	89.4445
2.0453	89.5316
2.04449	89.6072
2.04369	89.5243
2.04288	89.4625
2.04208	89.4321
2.04127	89.4354
2.04047	89.4824
2.03967	89.5948
2.03886	89.6096
2.03806	89.4366
2.03726	89.349
2.03646	89.368
2.03566	89.487
2.03486	89.6066
2.03407	89.5118
2.03327	89.5001
2.03247	89.6399
2.03167	89.3203
2.03088	89.1203
2.03008	89.3514
2.02929	89.5206
2.0285	89.4992
2.0277	89.3073
2.02691	89.3654
2.02612	89.3689
2.02533	89.1644
2.02453	89.1789
2.02374	89.5382
2.02295	89.5881
2.02217	89.6004
2.02138	89.5923
2.02059	89.4326
2.0198	89.3812
2.01902	89.3965
2.01823	89.4029
2.01744	89.3377
2.01666	89.1656
2.01588	89.3191
2.01509	89.3055
2.01431	89.2611
2.01353	89.3351
2.01275	89.1653
2.01196	89.3278
2.01118	89.4844
2.0104	89.4787
2.00963	89.4832
2.00885	89.3376
2.00807	89.1626
2.00729	88.9791
2.00651	88.8978
2.00574	89.0499
2.00496	89.2253
2.00419	89.258
2.00341	89.3421
2.00264	89.2784
2.00187	89.1166
2.00109	89.0658
2.00032	89.185
