Name: Magnesite MgCO_3
Type: Mineral
Class: Carbonates
Subclass: 
Particle Size: 0-45um
Sample No.: C-6A
Owner: JPL
Wavelength range: IR
Origin: USA, California, Riverside County
Collected by Ward's
Description: 





Measurement: Hemispherical reflectance
First Column: X
Second Column: Y
X Units:  Wavelength (micrometers)
Y Units:  Reflectance (percent)
First X Value: 15.3853
Last X Value: 2.00032
Number of X Values: 2256
Additional information: c06aa.txt
 
15.3853	2.00624
15.3397	1.92093
15.2945	2.13829
15.2495	2.47598
15.2048	2.43346
15.1603	2.30669
15.1161	2.46691
15.0722	2.50141
15.0285	2.60542
14.9851	2.82949
14.9419	2.74046
14.8989	2.91603
14.8563	3.4097
14.8138	3.35433
14.7716	3.26468
14.7296	3.51026
14.6879	3.55452
14.6464	3.41595
14.6052	3.34456
14.5641	3.28274
14.5233	3.33782
14.4828	3.40832
14.4424	3.3569
14.4023	3.35337
14.3624	3.3967
14.3227	3.61543
14.2833	3.85498
14.244	4.00971
14.205	4.16012
14.1662	4.46575
14.1276	4.56856
14.0892	4.50319
14.051	4.57341
14.0131	4.69053
13.9753	4.93432
13.9377	4.98284
13.9004	4.82952
13.8632	4.71336
13.8262	4.82001
13.7895	4.93206
13.7529	4.67017
13.7165	4.50813
13.6803	4.51543
13.6443	4.57376
13.6085	4.53111
13.5729	4.2232
13.5374	3.73349
13.5022	3.32644
13.4671	2.90716
13.4322	2.235
13.3975	1.70334
13.363	1.41994
13.3286	1.07627
13.2944	0.801656
13.2604	0.933897
13.2266	1.23412
13.193	1.77037
13.1595	2.65674
13.1262	3.46452
13.093	4.18815
13.06	4.8442
13.0272	5.4173
12.9946	5.80524
12.9621	6.02671
12.9298	6.1986
12.8976	6.45561
12.8656	6.69527
12.8337	6.95129
12.8021	7.05684
12.7705	7.29384
12.7391	7.58621
12.7079	7.59815
12.6769	7.67739
12.6459	7.87105
12.6152	7.9629
12.5845	8.1959
12.5541	8.5106
12.5238	8.7004
12.4936	8.88457
12.4635	9.1587
12.4337	9.59816
12.4039	9.9941
12.3743	10.1735
12.3448	10.2987
12.3155	10.3966
12.2863	10.5694
12.2573	10.728
12.2284	10.9263
12.1996	11.0554
12.171	11.1703
12.1425	11.3447
12.1141	11.4278
12.0859	11.4938
12.0578	11.6583
12.0298	11.8474
12.0019	11.9073
11.9742	11.9858
11.9466	12.1227
11.9192	12.3061
11.8918	12.4256
11.8646	12.4652
11.8375	12.5523
11.8106	12.4196
11.7837	12.368
11.757	12.3379
11.7304	11.6415
11.7039	9.02221
11.6776	7.33383
11.6513	9.74385
11.6252	11.8074
11.5992	12.135
11.5733	12.1171
11.5475	12.0199
11.5219	11.7506
11.4963	10.9392
11.4709	9.57166
11.4455	7.75793
11.4203	6.09126
11.3952	5.13784
11.3702	4.65155
11.3454	4.36866
11.3206	4.10246
11.2959	3.90631
11.2714	3.74934
11.2469	3.72489
11.2226	3.5879
11.1983	3.58962
11.1742	3.87867
11.1502	4.40747
11.1263	5.31475
11.1024	6.80075
11.0787	8.79354
11.0551	10.9408
11.0316	12.5166
11.0081	13.3056
10.9848	13.4028
10.9616	13.2305
10.9385	13.0556
10.9154	12.7507
10.8925	12.3573
10.8697	12.0213
10.8469	11.7262
10.8243	11.5364
10.8017	11.4032
10.7793	11.1091
10.7569	10.7705
10.7346	10.5673
10.7125	10.3678
10.6904	10.1527
10.6684	9.75652
10.6465	9.40321
10.6247	9.22126
10.6029	8.96853
10.5813	8.69351
10.5597	8.38606
10.5383	8.10746
10.5169	7.80038
10.4956	7.44118
10.4744	7.05289
10.4533	6.60561
10.4323	6.19734
10.4113	5.97643
10.3904	5.69066
10.3697	5.43808
10.349	5.28535
10.3284	5.00316
10.3078	4.7061
10.2874	4.66778
10.267	4.7111
10.2467	4.40581
10.2265	4.18266
10.2064	4.19276
10.1863	4.11586
10.1663	4.07448
10.1464	4.09854
10.1266	4.16157
10.1069	4.18015
10.0872	4.27029
10.0676	4.31602
10.0481	4.3457
10.0287	4.27098
10.0093	4.11032
9.99005	4.04974
9.97084	4.16822
9.95169	4.11797
9.93263	3.9068
9.91364	3.79403
9.89472	3.71664
9.87587	3.60633
9.8571	3.49736
9.83839	3.46218
9.81976	3.62092
9.80119	3.84286
9.78271	3.75346
9.76428	3.66834
9.74592	3.74436
9.72764	3.91973
9.70943	3.99824
9.69128	4.10719
9.6732	4.23094
9.65518	4.37142
9.63724	4.54084
9.61935	4.68238
9.60155	4.81197
9.5838	4.94092
9.56611	5.09574
9.5485	5.31224
9.53094	5.36195
9.51345	5.52745
9.49604	5.76738
9.47867	5.90228
9.46137	5.92077
9.44414	5.93371
9.42697	5.98735
9.40986	6.08705
9.39281	6.25906
9.37583	6.38463
9.35891	6.30313
9.34204	6.19226
9.32524	6.22553
9.3085	6.26284
9.29182	6.31619
9.27519	6.36444
9.25863	6.35403
9.24213	6.281
9.22568	6.39484
9.2093	6.68043
9.19297	6.88852
9.17669	7.04304
9.16048	7.29516
9.14433	7.55837
9.12823	7.89104
9.11218	8.0427
9.0962	8.0743
9.08027	8.23891
9.06439	8.54452
9.04858	8.84436
9.03281	8.94816
9.0171	9.0865
9.00145	9.47713
8.98585	9.88977
8.9703	10.3301
8.9548	10.7527
8.93937	11.0605
8.92398	11.3419
8.90865	11.7155
8.89337	12.088
8.87814	12.4178
8.86296	12.6056
8.84784	12.799
8.83277	13.0388
8.81774	13.3975
8.80277	13.6865
8.78786	13.9609
8.77298	14.36
8.75816	14.6329
8.7434	15.0313
8.72868	15.4019
8.714	15.7007
8.69938	16.0281
8.68481	16.2438
8.67029	16.4162
8.65581	16.6403
8.64139	16.8819
8.62701	17.1653
8.61268	17.3976
8.5984	17.4607
8.58416	17.6028
8.56997	17.8461
8.55583	17.9231
8.54174	17.9328
8.52769	17.8498
8.51368	17.6636
8.49973	17.4917
8.48582	17.3711
8.47195	17.3241
8.45813	17.2299
8.44436	17.1211
8.43062	17.0871
8.41693	16.9528
8.4033	17.0015
8.3897	17.2299
8.37614	17.2752
8.36264	17.2326
8.34917	17.3025
8.33574	17.4602
8.32236	17.6153
8.30903	17.5371
8.29573	17.4934
8.28248	17.5625
8.26927	17.6644
8.2561	17.8767
8.24298	17.9715
8.2299	17.9497
8.21685	17.9862
8.20385	17.9624
8.19089	17.6689
8.17797	17.3575
8.16509	17.2701
8.15225	17.5047
8.13946	17.9133
8.1267	18.3339
8.11398	18.6367
8.10131	18.779
8.08867	18.8019
8.07606	18.7159
8.0635	18.6361
8.05099	18.6226
8.0385	18.6237
8.02606	18.7961
8.01366	19.0734
8.00129	19.3972
7.98896	19.9162
7.97667	20.512
7.96442	21.0463
7.9522	21.5335
7.94002	22.053
7.92788	22.7262
7.91578	23.3941
7.90371	24.0457
7.89168	24.6546
7.87969	25.1457
7.86773	25.5155
7.85581	25.8603
7.84392	26.1527
7.83207	26.3681
7.82026	26.6
7.80849	26.7512
7.79674	26.8607
7.78503	26.9703
7.77337	27.0965
7.76173	27.2463
7.75012	27.2575
7.73856	27.179
7.72703	27.2006
7.71553	27.1777
7.70406	27.0366
7.69263	26.9052
7.68123	26.8539
7.66987	26.8517
7.65855	26.8007
7.64725	26.6257
7.63598	26.4659
7.62475	26.406
7.61356	26.3418
7.60239	26.2564
7.59126	26.1686
7.58017	25.96
7.5691	25.7352
7.55806	25.5808
7.54707	25.5031
7.5361	25.3865
7.52516	25.202
7.51425	25.0549
7.50338	24.9577
7.49253	24.7606
7.48172	24.4984
7.47094	24.2261
7.46019	23.8815
7.44947	23.4937
7.43879	23.0836
7.42813	22.6862
7.4175	22.3744
7.4069	22.0424
7.39634	21.7616
7.3858	21.4953
7.37529	21.2292
7.36482	21.0757
7.35437	20.9608
7.34396	20.6705
7.33357	20.2583
7.32321	19.7921
7.31288	19.4297
7.30258	19.0696
7.29231	18.6679
7.28207	18.2544
7.27185	17.8065
7.26167	17.3494
7.25152	16.8884
7.24139	16.225
7.23129	15.4252
7.22122	14.5522
7.21117	13.6833
7.20116	12.8541
7.19117	12.1013
7.18121	11.4084
7.17128	10.7602
7.16137	10.2345
7.1515	9.77678
7.14164	9.22008
7.13182	8.61041
7.12203	7.98033
7.11225	7.49006
7.10251	7.04518
7.0928	6.62213
7.08311	6.35608
7.07344	6.14909
7.06381	5.99203
7.0542	5.89167
7.04461	5.88005
7.03506	6.10238
7.02552	6.51212
7.01601	6.87681
7.00653	7.19025
6.99708	7.31639
6.98765	7.19098
6.97824	7.04346
6.96886	6.86256
6.95951	6.71895
6.95018	6.50684
6.94087	6.2376
6.9316	6.05553
6.92234	5.97729
6.91311	5.8085
6.90391	5.68459
6.89473	5.53103
6.88557	5.4164
6.87644	5.43352
6.86733	5.50488
6.85824	5.40091
6.84918	5.23931
6.84015	5.19437
6.83114	5.13883
6.82215	5.02453
6.81319	4.97512
6.80424	5.00216
6.79532	5.00315
6.78643	5.00192
6.77756	5.00423
6.76871	5.03541
6.75989	5.05737
6.75109	5.01293
6.74231	4.89312
6.73355	4.90131
6.72482	4.99687
6.71611	5.05196
6.70742	5.10527
6.69875	5.16704
6.69011	5.23732
6.68149	5.28835
6.67289	5.23233
6.66431	5.24821
6.65576	5.24853
6.64722	5.26237
6.63871	5.42742
6.63022	5.48842
6.62175	5.45845
6.61331	5.48315
6.60488	5.60213
6.59648	5.73563
6.5881	5.79804
6.57974	5.95392
6.5714	6.05649
6.56308	6.0975
6.55478	6.24107
6.54651	6.32822
6.53825	6.40501
6.53001	6.65936
6.5218	6.92342
6.51361	7.0077
6.50544	7.14803
6.49729	7.41074
6.48915	7.6189
6.48104	7.80298
6.47295	7.99911
6.46488	8.19159
6.45683	8.3332
6.4488	8.46585
6.44079	8.73658
6.4328	9.02088
6.42482	9.20344
6.41687	9.50273
6.40894	9.59
6.40103	9.62728
6.39314	9.87228
6.38526	10.1971
6.37741	10.4457
6.36957	10.6418
6.36176	10.7858
6.35396	11.1198
6.34618	11.6201
6.33843	11.995
6.33069	12.3419
6.32297	12.8751
6.31527	13.4748
6.30758	14.1128
6.29992	14.8658
6.29227	15.862
6.28465	16.8963
6.27704	17.6198
6.26945	17.6135
6.26188	17.1046
6.25432	16.3041
6.24679	15.4308
6.23927	14.421
6.23177	13.3281
6.22429	12.2638
6.21683	11.4227
6.20938	10.7732
6.20195	10.2202
6.19454	9.79149
6.18715	9.36461
6.17978	8.90798
6.17242	8.4929
6.16508	8.30755
6.15776	8.25801
6.15045	8.13225
6.14317	8.06755
6.1359	8.02034
6.12864	8.08883
6.12141	8.16904
6.11419	8.21314
6.10699	8.16903
6.0998	8.08172
6.09263	7.97241
6.08549	7.84857
6.07835	7.82413
6.07123	7.6715
6.06413	7.45761
6.05705	7.3863
6.04998	7.42747
6.04293	7.23412
6.0359	7.0191
6.02888	6.99487
6.02187	7.03357
6.01489	7.0429
6.00792	6.96999
6.00096	6.92583
5.99403	7.04998
5.98711	7.08776
5.9802	6.99756
5.97331	6.94495
5.96644	6.95126
5.95958	6.84481
5.95274	6.85517
5.94591	6.95108
5.9391	7.09014
5.9323	7.01979
5.92552	6.89872
5.91876	6.89515
5.91201	6.92163
5.90528	7.06003
5.89856	7.2718
5.89186	7.29799
5.88517	7.4192
5.8785	7.47313
5.87184	7.43742
5.8652	7.47731
5.85857	7.55439
5.85196	7.73269
5.84536	7.89335
5.83878	8.1658
5.83221	8.56182
5.82566	8.87805
5.81912	9.02438
5.81259	9.09665
5.80608	9.24883
5.79959	9.40595
5.79311	9.61241
5.78665	9.79291
5.78019	9.91388
5.77376	10.1088
5.76734	10.4405
5.76093	10.5314
5.75453	10.6322
5.74815	10.9296
5.74179	11.1608
5.73543	11.4166
5.7291	11.5743
5.72277	11.7341
5.71646	11.9627
5.71017	12.1716
5.70389	12.2267
5.69762	12.3659
5.69136	12.4734
5.68513	12.5799
5.6789	12.6866
5.67268	12.7233
5.66648	12.6735
5.6603	12.6984
5.65413	12.6577
5.64797	12.5698
5.64182	12.6301
5.63569	12.6254
5.62957	12.4987
5.62347	12.4904
5.61737	12.5693
5.61129	12.5679
5.60522	12.4662
5.59917	12.3531
5.59313	12.1911
5.5871	12.0185
5.58109	11.9207
5.57509	11.6409
5.5691	11.2223
5.56312	10.8652
5.55716	10.5148
5.55121	10.1315
5.54528	9.69487
5.53935	9.21695
5.53344	8.73695
5.52754	8.39646
5.52166	8.04111
5.51578	7.58025
5.50992	7.10893
5.50407	6.78117
5.49823	6.54794
5.49241	6.34339
5.4866	6.17121
5.4808	6.03327
5.47501	5.91883
5.46923	5.96869
5.46347	6.06128
5.45772	6.1614
5.45198	6.34209
5.44625	6.55996
5.44054	6.86691
5.43484	7.38627
5.42914	7.96985
5.42347	8.6988
5.4178	9.54185
5.41214	10.4263
5.4065	11.412
5.40087	12.5395
5.39525	13.7622
5.38964	15.0556
5.38404	16.411
5.37846	17.7335
5.37288	19.0249
5.36732	20.2518
5.36177	21.3871
5.35623	22.4345
5.35071	23.4556
5.34519	24.3942
5.33968	25.273
5.33419	26.1388
5.32871	26.9309
5.32324	27.682
5.31778	28.394
5.31233	29.0136
5.30689	29.6452
5.30147	30.2628
5.29605	30.8005
5.29065	31.2387
5.28525	31.5327
5.27987	31.7632
5.2745	31.9752
5.26914	32.2043
5.26379	32.3496
5.25845	32.4416
5.25312	32.5348
5.24781	32.8005
5.2425	33.0938
5.23721	33.4003
5.23192	33.8528
5.22665	34.443
5.22138	35.1352
5.21613	35.8902
5.21089	36.5451
5.20566	37.1547
5.20044	37.8419
5.19522	38.4377
5.19002	39.0019
5.18483	39.6103
5.17965	40.193
5.17448	40.7679
5.16933	41.2933
5.16418	41.7755
5.15904	42.2185
5.15391	42.686
5.14879	43.2395
5.14368	43.6221
5.13859	43.9057
5.1335	44.2108
5.12842	44.4426
5.12335	44.6896
5.1183	44.9685
5.11325	45.1664
5.10821	45.3036
5.10318	45.4743
5.09817	45.6053
5.09316	45.6734
5.08816	45.5836
5.08317	45.4457
5.07819	45.1589
5.07322	44.703
5.06826	44.2124
5.06331	43.8417
5.05837	43.7682
5.05344	44.0636
5.04852	44.6348
5.04361	45.3301
5.03871	46.0415
5.03382	46.7252
5.02894	47.3144
5.02406	47.7841
5.0192	48.189
5.01435	48.5776
5.0095	48.9271
5.00467	49.178
4.99984	49.424
4.99502	49.6658
4.99021	49.7985
4.98542	49.9177
4.98063	50.0881
4.97585	50.2199
4.97108	50.3402
4.96632	50.4889
4.96156	50.5661
4.95682	50.6516
4.95209	50.718
4.94736	50.7812
4.94264	50.8744
4.93794	50.967
4.93324	51.0202
4.92855	51.1091
4.92387	51.1484
4.9192	51.2407
4.91453	51.3082
4.90988	51.3725
4.90524	51.4367
4.9006	51.5508
4.89597	51.632
4.89135	51.6457
4.88674	51.6475
4.88214	51.6874
4.87755	51.6893
4.87296	51.7127
4.86839	51.82
4.86382	51.876
4.85926	51.8415
4.85471	51.9041
4.85017	51.9327
4.84564	51.9849
4.84111	52.0152
4.8366	52.0058
4.83209	51.9955
4.82759	52.0348
4.8231	52.0407
4.81862	52.0262
4.81415	52.0546
4.80968	52.0957
4.80522	52.1201
4.80077	52.0862
4.79633	52.0577
4.7919	52.0615
4.78747	51.9926
4.78306	51.985
4.77865	52.0162
4.77425	52.0278
4.76986	52.02
4.76547	51.9614
4.7611	51.9644
4.75673	51.939
4.75237	51.8316
4.74802	51.7626
4.74367	51.7419
4.73934	51.7446
4.73501	51.7151
4.73069	51.6521
4.72638	51.5611
4.72207	51.5345
4.71777	51.5001
4.71348	51.36
4.7092	51.2179
4.70493	51.1411
4.70066	51.0864
4.69641	51.0147
4.69216	50.8321
4.68791	50.673
4.68368	50.52
4.67945	50.3889
4.67523	50.192
4.67102	49.9915
4.66682	49.7624
4.66262	49.5119
4.65843	49.2541
4.65425	48.9678
4.65007	48.6502
4.64591	48.244
4.64175	47.7602
4.6376	47.3612
4.63345	46.9794
4.62932	46.5328
4.62519	45.9957
4.62106	45.4547
4.61695	44.9724
4.61284	44.4976
4.60874	44.0686
4.60465	43.7263
4.60056	43.3713
4.59648	43.1248
4.59241	42.9648
4.58835	42.8492
4.58429	42.7443
4.58024	42.6809
4.5762	42.7008
4.57216	42.8283
4.56814	42.9669
4.56411	43.1023
4.5601	43.2351
4.55609	43.381
4.55209	43.6161
4.5481	43.8604
4.54411	44.0927
4.54013	44.4394
4.53616	44.7924
4.5322	45.0928
4.52824	45.3228
4.52429	45.6019
4.52034	45.871
4.51641	46.0385
4.51247	46.2621
4.50855	46.5372
4.50463	46.715
4.50072	46.7832
4.49682	46.8898
4.49292	47.1364
4.48903	47.2994
4.48515	47.398
4.48127	47.4463
4.4774	47.5352
4.47354	47.6268
4.46968	47.6675
4.46584	47.717
4.46199	47.8309
4.45815	47.9017
4.45432	47.9336
4.4505	48.0152
4.44668	48.0772
4.44287	48.0552
4.43907	48.0634
4.43527	48.1023
4.43148	48.1841
4.4277	48.2394
4.42392	48.2489
4.42015	48.2406
4.41638	48.2914
4.41262	48.3439
4.40887	48.4061
4.40513	48.4743
4.40139	48.509
4.39765	48.5993
4.39393	48.6919
4.39021	48.7395
4.38649	48.8856
4.38278	48.9976
4.37908	49.0743
4.37539	49.1855
4.3717	49.2325
4.36801	49.3361
4.36434	49.455
4.36067	49.5575
4.357	49.726
4.35335	49.8239
4.34969	49.852
4.34605	49.979
4.34241	50.1104
4.33877	50.2118
4.33514	50.286
4.33152	50.3082
4.32791	50.2654
4.3243	50.1902
4.32069	50.244
4.3171	50.311
4.31351	50.3246
4.30992	50.4204
4.30634	50.5195
4.30277	50.5737
4.2992	50.604
4.29564	50.6258
4.29208	50.7222
4.28853	50.8437
4.28499	50.8851
4.28145	50.9251
4.27792	50.9355
4.27439	50.9035
4.27087	51.0151
4.26735	51.0592
4.26384	51.0159
4.26034	51.0413
4.25684	51.1313
4.25335	51.2114
4.24986	51.3664
4.24638	51.4805
4.24291	51.597
4.23944	51.7566
4.23598	51.8798
4.23252	52.0122
4.22906	52.1303
4.22562	52.2614
4.22218	52.2382
4.21874	52.1935
4.21531	52.2846
4.21189	52.441
4.20847	52.452
4.20506	52.3263
4.20165	52.4091
4.19825	52.4886
4.19485	52.47
4.19146	52.5211
4.18807	52.6243
4.18469	52.7504
4.18132	52.8029
4.17795	52.7447
4.17458	52.6874
4.17123	52.7481
4.16787	52.808
4.16453	52.7935
4.16118	52.8472
4.15785	52.9463
4.15451	52.9238
4.15119	52.9125
4.14787	52.9177
4.14455	52.928
4.14124	52.9525
4.13794	52.9723
4.13464	52.9868
4.13134	52.9686
4.12805	52.922
4.12477	52.9003
4.12149	52.9291
4.11822	52.9279
4.11495	52.9513
4.11168	52.9695
4.10843	52.9911
4.10517	53.0042
4.10192	52.9304
4.09868	52.8652
4.09545	52.8669
4.09221	52.928
4.08899	52.8863
4.08576	52.7526
4.08255	52.6829
4.07933	52.6179
4.07613	52.5411
4.07292	52.4367
4.06973	52.3735
4.06654	52.2491
4.06335	52.0881
4.06017	51.9091
4.05699	51.7579
4.05382	51.4877
4.05065	51.1615
4.04749	50.8207
4.04433	50.4557
4.04118	50.0917
4.03803	49.745
4.03489	49.3294
4.03175	48.8294
4.02862	48.2222
4.02549	47.507
4.02237	46.7784
4.01925	45.9326
4.01614	45.0167
4.01303	44.0347
4.00993	42.842
4.00683	41.558
4.00373	40.237
4.00064	38.8781
3.99756	37.4975
3.99448	36.0754
3.9914	34.5182
3.98833	32.9236
3.98527	31.3077
3.98221	29.4996
3.97915	27.6645
3.9761	25.8513
3.97305	23.903
3.97001	21.9491
3.96697	20.1768
3.96394	18.6836
3.96091	17.4486
3.95789	16.5588
3.95487	15.8743
3.95186	15.4609
3.94885	15.2457
3.94584	15.0141
3.94284	14.8819
3.93984	14.8827
3.93685	14.9259
3.93386	15.002
3.93088	15.2055
3.9279	15.4674
3.92493	15.6498
3.92196	15.893
3.919	16.1456
3.91604	16.2978
3.91308	16.5525
3.91013	16.8541
3.90718	17.1539
3.90424	17.5611
3.9013	18.0235
3.89837	18.5295
3.89544	19.0379
3.89252	19.6288
3.8896	20.3326
3.88668	21.0073
3.88377	21.7197
3.88086	22.55
3.87796	23.3888
3.87506	24.0758
3.87217	24.6704
3.86928	25.1232
3.86639	25.4166
3.86351	25.6991
3.86064	25.8467
3.85776	25.9218
3.8549	25.9637
3.85203	26.0975
3.84917	26.3022
3.84631	26.4953
3.84346	26.7314
3.84062	26.9799
3.83777	27.1449
3.83494	27.2926
3.8321	27.4475
3.82927	27.7041
3.82644	27.9203
3.82362	28.1109
3.82081	28.2893
3.81799	28.4401
3.81518	28.6358
3.81238	28.7772
3.80958	28.8656
3.80678	28.9798
3.80399	29.0345
3.8012	29.0958
3.79841	29.1865
3.79563	29.3048
3.79286	29.4313
3.79008	29.6237
3.78731	29.9286
3.78455	30.3253
3.78179	30.7238
3.77903	31.2107
3.77628	31.7601
3.77353	32.3889
3.77079	33.1259
3.76805	33.8645
3.76531	34.5224
3.76258	35.2133
3.75985	35.9107
3.75713	36.6697
3.7544	37.4333
3.75169	38.2041
3.74898	38.9628
3.74627	39.6499
3.74356	40.4474
3.74086	41.3288
3.73816	42.1422
3.73547	42.9598
3.73278	43.8259
3.7301	44.6381
3.72741	45.5269
3.72474	46.5259
3.72206	47.3967
3.71939	48.035
3.71673	48.6515
3.71406	49.2074
3.71141	49.7153
3.70875	50.1144
3.7061	50.3567
3.70345	50.482
3.70081	50.6148
3.69817	50.7486
3.69553	50.7993
3.6929	50.8165
3.69027	50.7541
3.68765	50.7011
3.68503	50.67
3.68241	50.6123
3.6798	50.6029
3.67719	50.511
3.67458	50.4487
3.67198	50.426
3.66938	50.3859
3.66678	50.3846
3.66419	50.2869
3.66161	50.164
3.65902	50.0925
3.65644	50.0123
3.65387	49.9548
3.65129	50.0048
3.64872	49.8811
3.64616	49.6912
3.64359	49.5559
3.64103	49.4439
3.63848	49.3677
3.63593	49.3398
3.63338	49.2011
3.63084	49.0021
3.6283	48.9193
3.62576	48.9317
3.62322	48.7775
3.62069	48.5559
3.61817	48.3124
3.61564	48.1588
3.61312	48.1354
3.61061	48.0986
3.6081	47.9561
3.60559	47.8858
3.60308	47.8948
3.60058	47.76
3.59808	47.5702
3.59558	47.4102
3.59309	47.3145
3.59061	47.1877
3.58812	47.072
3.58564	46.9357
3.58316	46.7666
3.58069	46.6752
3.57822	46.5428
3.57575	46.3508
3.57328	46.2475
3.57082	46.153
3.56836	46.0121
3.56591	45.9023
3.56346	45.7797
3.56101	45.5694
3.55857	45.3413
3.55613	45.1295
3.55369	44.9397
3.55126	44.7169
3.54883	44.4645
3.5464	44.2791
3.54397	44.0908
3.54155	43.8509
3.53914	43.5613
3.53672	43.2158
3.53431	42.7351
3.5319	42.2785
3.5295	41.9116
3.5271	41.7115
3.5247	41.6317
3.52231	41.5793
3.51991	41.4856
3.51753	41.2499
3.51514	41.0129
3.51276	40.7322
3.51038	40.3692
3.50801	39.9695
3.50563	39.4913
3.50327	38.9201
3.5009	38.3091
3.49854	37.6292
3.49618	36.9511
3.49382	36.1392
3.49147	35.1671
3.48912	34.0263
3.48677	32.9641
3.48443	32.1018
3.48209	31.2777
3.47975	30.4183
3.47742	29.7368
3.47509	29.3274
3.47276	28.9063
3.47044	28.4558
3.46812	28.0561
3.4658	27.5806
3.46348	27.0865
3.46117	26.5904
3.45886	26.1948
3.45656	25.9089
3.45425	25.5996
3.45195	25.2432
3.44966	24.8876
3.44736	24.4522
3.44507	24.0146
3.44279	23.5512
3.4405	23.1757
3.43822	23.0171
3.43594	22.7572
3.43367	22.54
3.43139	22.3567
3.42912	22.0614
3.42686	21.7811
3.42459	21.6265
3.42233	21.546
3.42007	21.4633
3.41782	21.4594
3.41557	21.637
3.41332	21.9542
3.41108	22.3017
3.40883	22.68
3.40659	23.2128
3.40435	23.7512
3.40212	24.1334
3.39989	24.5141
3.39766	24.8883
3.39544	25.0763
3.39322	25.1528
3.391	25.1972
3.38878	25.2653
3.38657	25.2657
3.38436	25.2754
3.38215	25.2781
3.37994	25.2872
3.37774	25.1838
3.37554	25.0653
3.37335	25.1092
3.37115	25.1687
3.36896	25.1241
3.36678	25.0591
3.36459	25.0281
3.36241	25.0417
3.36023	25.0382
3.35805	24.899
3.35588	24.831
3.35371	24.8475
3.35154	24.6217
3.34938	24.4599
3.34721	24.4545
3.34505	24.3808
3.3429	24.301
3.34074	24.2409
3.33859	24.1134
3.33644	23.896
3.3343	23.7657
3.33215	23.6699
3.33001	23.552
3.32788	23.3931
3.32574	23.2655
3.32361	23.0926
3.32148	22.9312
3.31936	22.8285
3.31723	22.8151
3.31511	22.8313
3.31299	22.7571
3.31088	22.6004
3.30876	22.5032
3.30665	22.5436
3.30455	22.4997
3.30244	22.4162
3.30034	22.3657
3.29824	22.235
3.29614	21.9701
3.29405	21.8692
3.29196	21.7382
3.28987	21.4278
3.28778	21.2314
3.2857	21.0521
3.28362	20.8461
3.28154	20.5911
3.27946	20.239
3.27739	20.1198
3.27532	20.0398
3.27325	19.8545
3.27119	19.8255
3.26913	19.9478
3.26707	20.0541
3.26501	20.2302
3.26295	20.5942
3.2609	21.125
3.25885	21.6781
3.2568	22.1148
3.25476	22.5431
3.25272	22.83
3.25068	22.8713
3.24864	22.8211
3.24661	22.7032
3.24458	22.5538
3.24255	22.4766
3.24052	22.3259
3.2385	22.1306
3.23648	22.0001
3.23446	21.8898
3.23244	21.7293
3.23043	21.5042
3.22841	21.4648
3.2264	21.4102
3.2244	21.2845
3.22239	21.1497
3.22039	20.9439
3.21839	20.815
3.2164	20.8014
3.2144	20.7319
3.21241	20.7934
3.21042	20.8223
3.20844	20.6423
3.20645	20.5576
3.20447	20.5199
3.20249	20.5073
3.20051	20.5193
3.19854	20.4278
3.19657	20.4034
3.1946	20.3926
3.19263	20.4176
3.19067	20.4482
3.1887	20.4954
3.18674	20.5145
3.18479	20.5202
3.18283	20.5322
3.18088	20.4568
3.17893	20.5518
3.17698	20.5886
3.17504	20.4737
3.17309	20.4653
3.17115	20.5367
3.16921	20.5159
3.16728	20.5135
3.16534	20.5409
3.16341	20.4959
3.16148	20.3711
3.15956	20.3299
3.15763	20.4001
3.15571	20.3892
3.15379	20.3385
3.15187	20.2766
3.14996	20.2599
3.14805	20.2487
3.14614	20.167
3.14423	20.0243
3.14232	19.944
3.14042	19.9736
3.13852	20.0043
3.13662	19.9673
3.13472	19.9122
3.13283	19.9482
3.13094	19.887
3.12905	19.7357
3.12716	19.7674
3.12528	19.8541
3.12339	19.8007
3.12151	19.6973
3.11964	19.7562
3.11776	19.6972
3.11589	19.6006
3.11401	19.6216
3.11214	19.6458
3.11028	19.7141
3.10841	19.7541
3.10655	19.799
3.10469	19.7605
3.10283	19.6773
3.10098	19.7174
3.09912	19.8323
3.09727	19.8959
3.09542	19.846
3.09358	19.8348
3.09173	19.854
3.08989	19.8268
3.08805	19.895
3.08621	19.9037
3.08437	19.9752
3.08254	20.0241
3.08071	19.9989
3.07888	20.0272
3.07705	20.0299
3.07523	19.9978
3.0734	20.0593
3.07158	20.1222
3.06977	20.1358
3.06795	20.1081
3.06613	20.1532
3.06432	20.2367
3.06251	20.1395
3.0607	20.1707
3.0589	20.2263
3.0571	20.2477
3.05529	20.3065
3.05349	20.3021
3.0517	20.3527
3.0499	20.3568
3.04811	20.2889
3.04632	20.1983
3.04453	20.1044
3.04274	20.1041
3.04096	20.1883
3.03918	20.2389
3.0374	20.2538
3.03562	20.0832
3.03384	19.9121
3.03207	19.9048
3.03029	19.81
3.02852	19.6602
3.02676	19.737
3.02499	19.7873
3.02323	19.5063
3.02146	19.3662
3.0197	19.3182
3.01795	19.152
3.01619	19.0869
3.01444	19.0218
3.01269	18.8995
3.01094	18.8358
3.00919	18.6983
3.00744	18.6071
3.0057	18.4289
3.00396	18.3605
3.00222	18.2952
3.00048	18.2385
2.99875	18.1945
2.99701	18.1082
2.99528	17.9979
2.99355	17.8537
2.99183	17.8223
2.9901	17.7838
2.98838	17.8497
2.98666	17.8823
2.98494	17.8663
2.98322	17.8708
2.9815	17.8216
2.97979	17.8411
2.97808	17.9382
2.97637	17.9135
2.97466	17.8862
2.97295	17.9649
2.97125	17.9819
2.96955	18.1838
2.96785	18.3225
2.96615	18.3915
2.96446	18.4738
2.96276	18.6139
2.96107	18.7615
2.95938	18.8525
2.95769	18.9292
2.95601	19.0248
2.95432	19.2505
2.95264	19.4644
2.95096	19.6844
2.94928	19.8978
2.9476	20.0592
2.94593	20.1866
2.94425	20.3873
2.94258	20.5665
2.94092	20.7485
2.93925	20.8621
2.93758	20.9688
2.93592	21.1971
2.93426	21.3506
2.9326	21.5453
2.93094	21.7835
2.92928	22.0972
2.92763	22.2652
2.92598	22.3431
2.92433	22.502
2.92268	22.7307
2.92103	22.9444
2.91939	23.1189
2.91775	23.1728
2.9161	23.2495
2.91447	23.4215
2.91283	23.6468
2.91119	23.7485
2.90956	23.8931
2.90793	24.2489
2.9063	24.5677
2.90467	24.8528
2.90304	25.07
2.90142	25.0832
2.89979	25.1878
2.89817	25.2927
2.89656	25.432
2.89494	25.7192
2.89332	26.0968
2.89171	26.2488
2.8901	26.2978
2.88849	26.4279
2.88688	26.6485
2.88527	26.8153
2.88367	26.9433
2.88206	27.2099
2.88046	27.4413
2.87886	27.536
2.87727	27.5388
2.87567	27.6954
2.87408	27.8955
2.87248	28.0484
2.87089	28.2549
2.8693	28.4672
2.86772	28.6726
2.86613	28.6789
2.86455	28.7444
2.86297	28.9534
2.86139	29.084
2.85981	29.3259
2.85823	29.5198
2.85666	29.695
2.85508	29.9989
2.85351	30.1207
2.85194	30.195
2.85038	30.2899
2.84881	30.3375
2.84724	30.4742
2.84568	30.6783
2.84412	30.7552
2.84256	30.802
2.841	30.8903
2.83945	30.9869
2.83789	31.1866
2.83634	31.3421
2.83479	31.4389
2.83324	31.4194
2.83169	31.4774
2.83015	31.6146
2.82861	31.7328
2.82706	31.7424
2.82552	31.6967
2.82398	31.7313
2.82245	31.9209
2.82091	32.0295
2.81938	31.9152
2.81784	31.9368
2.81631	32.0006
2.81479	32.0054
2.81326	32.2549
2.81173	32.5862
2.81021	32.721
2.80869	32.9645
2.80716	33.1183
2.80565	33.2944
2.80413	33.7657
2.80261	34.1123
2.8011	34.1869
2.79959	34.2741
2.79808	34.5292
2.79657	34.7726
2.79506	35.1001
2.79355	35.3472
2.79205	35.4705
2.79055	35.6229
2.78904	35.9767
2.78754	36.4211
2.78605	36.5029
2.78455	36.5267
2.78306	36.7588
2.78156	37.0778
2.78007	37.5121
2.77858	37.7518
2.77709	37.7973
2.77561	37.9062
2.77412	38.0534
2.77264	38.3378
2.77116	38.7854
2.76968	38.9082
2.7682	39.0373
2.76672	39.2924
2.76524	39.6426
2.76377	39.9798
2.7623	40.1676
2.76083	40.3732
2.75936	40.6888
2.75789	41.0038
2.75642	41.6942
2.75496	42.2759
2.7535	42.4112
2.75203	42.7024
2.75057	43.1743
2.74912	43.6761
2.74766	44.2161
2.7462	44.8094
2.74475	45.4451
2.7433	46.2947
2.74185	47.3928
2.7404	48.4666
2.73895	49.0977
2.7375	49.3404
2.73606	50.0218
2.73462	50.9772
2.73318	51.5363
2.73174	51.9899
2.7303	52.4135
2.72886	52.6706
2.72742	53.0054
2.72599	53.4477
2.72456	53.5784
2.72313	52.867
2.7217	51.8881
2.72027	50.495
2.71884	48.5855
2.71742	47.1407
2.71599	46.8165
2.71457	48.1327
2.71315	50.6206
2.71173	53.7181
2.71032	56.2968
2.7089	58.0557
2.70748	59.4602
2.70607	60.7116
2.70466	61.8339
2.70325	62.841
2.70184	63.8588
2.70043	64.6754
2.69903	65.3516
2.69762	66.1288
2.69622	66.9307
2.69482	67.6132
2.69342	67.8678
2.69202	67.0797
2.69062	65.3107
2.68923	63.4707
2.68783	64.6935
2.68644	68.2889
2.68505	70.6438
2.68366	71.7643
2.68227	72.22
2.68089	72.6856
2.6795	73.3933
2.67812	73.7691
2.67673	74.275
2.67535	74.4557
2.67397	74.4922
2.6726	74.795
2.67122	75.8111
2.66984	76.2512
2.66847	75.9991
2.6671	76.5826
2.66572	76.8865
2.66435	76.7464
2.66299	76.4269
2.66162	76.5793
2.66025	76.8733
2.65889	77.1014
2.65753	77.0313
2.65616	77.2552
2.65481	77.5096
2.65345	77.6718
2.65209	77.7653
2.65073	77.7216
2.64938	77.8181
2.64803	78.0312
2.64667	78.2695
2.64532	78.4571
2.64397	78.503
2.64263	78.6195
2.64128	78.6144
2.63994	78.6554
2.63859	78.7566
2.63725	78.9653
2.63591	79.1717
2.63457	79.3104
2.63323	79.3592
2.6319	79.5983
2.63056	80.1068
2.62923	79.9361
2.62789	79.9047
2.62656	80.0821
2.62523	79.7567
2.6239	79.7394
2.62258	79.8839
2.62125	80.3773
2.61993	80.508
2.6186	80.2256
2.61728	80.6702
2.61596	80.725
2.61464	80.4018
2.61332	80.3704
2.61201	80.2832
2.61069	80.4491
2.60938	80.7048
2.60807	80.7073
2.60675	80.9178
2.60544	81.2655
2.60414	81.1007
2.60283	80.7939
2.60152	80.6981
2.60022	80.7332
2.59891	80.746
2.59761	80.9991
2.59631	81.6045
2.59501	82.3259
2.59371	81.9046
2.59242	81.2035
2.59112	81.0981
2.58983	81.2567
2.58853	81.4552
2.58724	81.508
2.58595	81.3723
2.58466	81.6116
2.58338	81.6693
2.58209	81.4643
2.5808	81.4119
2.57952	81.264
2.57824	81.3943
2.57695	81.478
2.57567	81.2833
2.5744	81.4684
2.57312	81.6074
2.57184	81.2387
2.57057	81.334
2.56929	81.4527
2.56802	81.3047
2.56675	81.264
2.56548	81.4469
2.56421	81.5669
2.56294	81.6245
2.56168	81.637
2.56041	81.3183
2.55915	81.0962
2.55789	81.017
2.55662	80.9317
2.55536	80.8639
2.5541	80.8438
2.55285	81.0017
2.55159	81.0909
2.55034	80.9796
2.54908	80.8818
2.54783	80.7425
2.54658	80.632
2.54533	80.5559
2.54408	80.5265
2.54283	80.5963
2.54159	80.5166
2.54034	80.3742
2.5391	80.2041
2.53785	80.0645
2.53661	80.0159
2.53537	79.748
2.53413	79.5618
2.53289	79.345
2.53166	79.1426
2.53042	79.0121
2.52919	78.8183
2.52795	78.5474
2.52672	78.2005
2.52549	77.961
2.52426	77.8428
2.52303	77.5903
2.52181	77.3965
2.52058	77.1678
2.51936	76.9594
2.51813	76.748
2.51691	76.4661
2.51569	76.3214
2.51447	76.2401
2.51325	76.0722
2.51203	75.9727
2.51082	75.892
2.5096	75.899
2.50839	75.8363
2.50717	75.6802
2.50596	75.5686
2.50475	75.6339
2.50354	75.5947
2.50233	75.5261
2.50113	75.4899
2.49992	75.6508
2.49872	75.6775
2.49751	75.5589
2.49631	75.6568
2.49511	75.7451
2.49391	75.7184
2.49271	75.7534
2.49151	75.8851
2.49031	75.9468
2.48912	75.8796
2.48792	75.9665
2.48673	76.1666
2.48554	76.2553
2.48435	76.3492
2.48316	76.4735
2.48197	76.52
2.48078	76.4319
2.4796	76.3835
2.47841	76.3906
2.47723	76.4677
2.47604	76.5941
2.47486	76.724
2.47368	76.8342
2.4725	76.8415
2.47132	76.9073
2.47014	77.1056
2.46897	77.1765
2.46779	77.162
2.46662	77.3209
2.46545	77.3607
2.46427	77.3629
2.4631	77.3603
2.46193	77.3188
2.46077	77.3557
2.4596	77.5022
2.45843	77.6443
2.45727	77.6719
2.4561	77.7347
2.45494	77.882
2.45378	78.074
2.45262	78.1279
2.45146	78.1342
2.4503	78.3059
2.44914	78.4625
2.44799	78.5145
2.44683	78.5659
2.44568	78.5995
2.44452	78.7966
2.44337	79.0003
2.44222	79.0133
2.44107	79.1378
2.43992	79.4191
2.43877	79.525
2.43763	79.5132
2.43648	79.6507
2.43534	79.7997
2.43419	79.8616
2.43305	80.0475
2.43191	80.2536
2.43077	80.3948
2.42963	80.4321
2.42849	80.4045
2.42736	80.5353
2.42622	80.7573
2.42509	80.9602
2.42395	81.0747
2.42282	81.1715
2.42169	81.1862
2.42056	81.2654
2.41943	81.466
2.4183	81.6398
2.41717	81.7276
2.41605	81.656
2.41492	81.647
2.4138	81.8368
2.41267	82.0027
2.41155	82.1014
2.41043	82.2424
2.40931	82.4384
2.40819	82.431
2.40707	82.2755
2.40595	82.2352
2.40484	82.4267
2.40372	82.5734
2.40261	82.714
2.4015	82.8568
2.40039	82.8834
2.39928	82.7659
2.39817	82.7914
2.39706	82.9184
2.39595	82.9469
2.39484	82.991
2.39374	83.0465
2.39263	83.0988
2.39153	82.9943
2.39043	82.9688
2.38932	83.1949
2.38822	83.3325
2.38712	83.4158
2.38603	83.4769
2.38493	83.5596
2.38383	83.6938
2.38274	83.8011
2.38164	83.9997
2.38055	84.268
2.37946	84.3865
2.37836	84.2845
2.37727	84.2953
2.37618	84.4986
2.3751	84.7026
2.37401	84.7481
2.37292	84.7205
2.37184	84.7223
2.37075	84.9444
2.36967	85.117
2.36859	84.9938
2.3675	84.8781
2.36642	85.0116
2.36534	85.2275
2.36427	85.3469
2.36319	85.3158
2.36211	85.3042
2.36104	85.4013
2.35996	85.3929
2.35889	85.3834
2.35781	85.5097
2.35674	85.6798
2.35567	85.6635
2.3546	85.6534
2.35353	85.722
2.35247	85.827
2.3514	85.8151
2.35033	85.8516
2.34927	85.935
2.3482	85.8872
2.34714	85.878
2.34608	85.97
2.34502	86.0324
2.34396	86.0048
2.3429	85.9414
2.34184	85.9554
2.34078	85.8936
2.33973	85.7285
2.33867	85.6948
2.33762	85.669
2.33656	85.6131
2.33551	85.6428
2.33446	85.6804
2.33341	85.6404
2.33236	85.6283
2.33131	85.5742
2.33026	85.4664
2.32922	85.2746
2.32817	85.1223
2.32712	85.0988
2.32608	84.9405
2.32504	84.7541
2.324	84.689
2.32295	84.6229
2.32191	84.508
2.32087	84.436
2.31984	84.1753
2.3188	83.863
2.31776	83.6201
2.31673	83.4642
2.31569	83.2934
2.31466	83.0722
2.31362	82.978
2.31259	82.9378
2.31156	82.8327
2.31053	82.8104
2.3095	82.7617
2.30847	82.9044
2.30745	83.2092
2.30642	83.3027
2.3054	83.2368
2.30437	83.3876
2.30335	83.5889
2.30232	83.4772
2.3013	83.4082
2.30028	83.4949
2.29926	83.5705
2.29824	83.7547
2.29722	83.7434
2.29621	83.6727
2.29519	83.7039
2.29417	83.7282
2.29316	83.7818
2.29215	83.9151
2.29113	84.034
2.29012	84.0882
2.28911	84.1051
2.2881	84.0839
2.28709	84.1453
2.28608	84.3122
2.28507	84.5653
2.28407	84.5915
2.28306	84.6273
2.28206	84.7592
2.28105	84.7182
2.28005	84.8125
2.27905	84.9961
2.27805	85.0487
2.27705	85.1556
2.27605	85.1794
2.27505	85.1162
2.27405	85.0151
2.27305	85.0356
2.27206	85.1734
2.27106	85.2891
2.27007	85.3784
2.26907	85.3358
2.26808	85.3111
2.26709	85.3543
2.2661	85.3735
2.26511	85.5
2.26412	85.7152
2.26313	85.7516
2.26214	85.8473
2.26116	85.9629
2.26017	85.8543
2.25919	85.8518
2.2582	85.945
2.25722	86.0327
2.25624	86.1007
2.25526	86.1812
2.25428	86.2348
2.2533	86.1403
2.25232	86.1794
2.25134	86.3373
2.25036	86.3705
2.24939	86.4587
2.24841	86.5776
2.24744	86.7146
2.24646	86.8685
2.24549	86.8382
2.24452	86.7731
2.24355	86.9048
2.24257	87.0651
2.24161	87.1941
2.24064	87.1629
2.23967	87.2297
2.2387	87.368
2.23774	87.6147
2.23677	87.7639
2.23581	87.661
2.23484	87.645
2.23388	87.8021
2.23292	87.7905
2.23196	87.7674
2.231	87.9731
2.23004	88.1281
2.22908	87.9878
2.22812	87.9034
2.22716	87.9692
2.22621	88.0718
2.22525	88.2024
2.2243	88.1873
2.22334	88.3039
2.22239	88.3789
2.22144	88.3541
2.22049	88.3391
2.21953	88.4158
2.21859	88.5499
2.21764	88.5572
2.21669	88.5624
2.21574	88.6755
2.21479	88.7814
2.21385	88.6995
2.2129	88.5333
2.21196	88.6124
2.21102	88.8011
2.21007	88.8846
2.20913	88.885
2.20819	89.0223
2.20725	88.8982
2.20631	88.7086
2.20537	88.7545
2.20444	88.8761
2.2035	88.927
2.20256	88.9026
2.20163	88.8708
2.20069	88.9478
2.19976	89.1025
2.19883	89.0932
2.19789	88.9139
2.19696	88.8331
2.19603	88.8233
2.1951	88.8572
2.19417	88.7732
2.19325	88.7882
2.19232	88.8888
2.19139	88.9226
2.19047	88.9407
2.18954	88.945
2.18862	89.0258
2.18769	88.9279
2.18677	88.7399
2.18585	88.7667
2.18493	88.9097
2.18401	88.8181
2.18309	88.7947
2.18217	88.9499
2.18125	89.037
2.18033	89.102
2.17942	89.1496
2.1785	89.1447
2.17759	89.0127
2.17667	88.952
2.17576	89.078
2.17485	89.0524
2.17393	88.9768
2.17302	88.8796
2.17211	88.8423
2.1712	88.9079
2.17029	88.9703
2.16939	89.0373
2.16848	89.0723
2.16757	88.956
2.16667	88.8418
2.16576	88.9941
2.16486	89.1494
2.16395	89.1577
2.16305	88.993
2.16215	89.0375
2.16125	89.0762
2.16035	88.9411
2.15945	88.9937
2.15855	89.0753
2.15765	89.0786
2.15675	89.071
2.15586	89.0213
2.15496	88.9542
2.15406	88.8258
2.15317	88.7896
2.15228	88.8521
2.15138	88.8127
2.15049	88.62
2.1496	88.5244
2.14871	88.4654
2.14782	88.5053
2.14693	88.7345
2.14604	88.8112
2.14515	88.7985
2.14427	88.7083
2.14338	88.5043
2.14249	88.4292
2.14161	88.3168
2.14072	88.3442
2.13984	88.2906
2.13896	88.2391
2.13808	88.234
2.13719	88.3332
2.13631	88.4579
2.13543	88.5354
2.13455	88.4417
2.13368	88.241
2.1328	88.1158
2.13192	88.1524
2.13105	88.193
2.13017	88.2027
2.1293	88.1578
2.12842	88.2006
2.12755	88.3546
2.12668	88.3436
2.1258	88.2679
2.12493	88.2077
2.12406	88.0963
2.12319	88.0339
2.12232	87.9459
2.12145	88.0026
2.12059	88.0327
2.11972	87.8983
2.11885	87.8041
2.11799	87.8916
2.11712	87.9306
2.11626	88.0397
2.1154	88.0746
2.11453	87.9478
2.11367	87.7464
2.11281	87.859
2.11195	87.8096
2.11109	87.654
2.11023	87.8001
2.10937	87.9601
2.10851	87.8261
2.10766	87.777
2.1068	87.8526
2.10594	87.7806
2.10509	87.7323
2.10423	87.57
2.10338	87.4918
2.10253	87.6313
2.10168	87.6914
2.10082	87.5872
2.09997	87.5781
2.09912	87.5075
2.09827	87.4502
2.09742	87.4607
2.09658	87.5994
2.09573	87.6071
2.09488	87.5774
2.09404	87.5871
2.09319	87.3408
2.09235	87.3004
2.0915	87.4707
2.09066	87.4586
2.08982	87.5278
2.08897	87.4965
2.08813	87.5574
2.08729	87.6055
2.08645	87.3699
2.08561	87.3128
2.08477	87.3847
2.08394	87.423
2.0831	87.4968
2.08226	87.5764
2.08143	87.5813
2.08059	87.396
2.07976	87.2463
2.07892	87.3257
2.07809	87.3609
2.07726	87.4475
2.07643	87.4948
2.07559	87.5585
2.07476	87.4762
2.07393	87.3644
2.0731	87.3535
2.07228	87.1359
2.07145	86.9322
2.07062	86.9095
2.06979	87.127
2.06897	87.1085
2.06814	86.939
2.06732	87.0283
2.06649	87.2014
2.06567	87.2213
2.06485	87.1688
2.06403	87.1865
2.0632	87.1683
2.06238	87.2364
2.06156	87.2466
2.06074	87.1552
2.05993	87.1382
2.05911	87.0652
2.05829	86.8736
2.05747	86.8243
2.05666	86.9416
2.05584	86.8642
2.05503	86.8987
2.05421	86.6604
2.0534	86.534
2.05259	86.8782
2.05177	87.1388
2.05096	87.359
2.05015	87.4814
2.04934	87.1747
2.04853	86.7701
2.04772	86.5448
2.04691	86.2586
2.04611	86.5294
2.0453	86.8573
2.04449	86.901
2.04369	87.0771
2.04288	87.1396
2.04208	87.0206
2.04127	86.8994
2.04047	86.7784
2.03967	86.7576
2.03886	86.7159
2.03806	86.6931
2.03726	86.8591
2.03646	86.9317
2.03566	86.9555
2.03486	86.9546
2.03407	87.0795
2.03327	87.1762
2.03247	86.9099
2.03167	86.7895
2.03088	86.6198
2.03008	86.5818
2.02929	86.609
2.0285	86.5997
2.0277	86.6485
2.02691	86.6967
2.02612	86.9518
2.02533	87.18
2.02453	87.1346
2.02374	87.1146
2.02295	86.9005
2.02217	86.9476
2.02138	87.0873
2.02059	87.1955
2.0198	87.2136
2.01902	87.045
2.01823	86.9291
2.01744	86.7792
2.01666	86.4623
2.01588	86.3472
2.01509	86.5569
2.01431	86.8512
2.01353	86.8609
2.01275	86.4131
2.01196	86.2402
2.01118	86.246
2.0104	86.5301
2.00963	87.1287
2.00885	87.4308
2.00807	87.2277
2.00729	87.3316
2.00651	87.264
2.00574	87.0517
2.00496	86.757
2.00419	86.5051
2.00341	86.5479
2.00264	86.7703
2.00187	86.741
2.00109	86.6103
2.00032	86.6046
