Name: Brass plate
Type: Manmade materials
Class: Reflectance target
Subclass: 
Particle Size: Solid
Sample No.: SN: ILF-17464-2-1
Owner: JPL
Wavelength range: IR
Origin: Labsphere, P.O. Box 70, Shaker Street, North Sutton, NH 03260
(603) 927-4266
Description: Measurement made at bottom right. Field Brass 2.
Measured Oct. 30th 1997 to Nov. 2nd 1997.




Measurement: Hemispherical Reflectance
First Column: X
Second Column: Y
X Units: Wavelength (micrometers)
Y Units: Reflectence (percent)
First X Value: 15.3853
Last X Value: 2.00032
Number of X Values: 2256
Additional information: None.
 
15.3853	89.0751
15.3397	88.7697
15.2945	88.6788
15.2495	88.9006
15.2048	89.0289
15.1603	89.0554
15.1161	89.0427
15.0722	89.0714
15.0285	89.1711
14.9851	89.3007
14.9419	89.3763
14.8989	89.2154
14.8563	88.9414
14.8138	88.8542
14.7716	89.0107
14.7296	89.014
14.6879	88.9302
14.6464	89.0103
14.6052	89.1366
14.5641	89.0696
14.5233	88.9637
14.4828	89.0439
14.4424	89.0428
14.4023	89.1031
14.3624	89.1
14.3227	89.0355
14.2833	88.9644
14.244	89.07
14.205	89.0156
14.1662	88.9133
14.1276	89.0936
14.0892	89.1985
14.051	89.0822
14.0131	89.0044
13.9753	88.8951
13.9377	88.9344
13.9004	89.0567
13.8632	88.9887
13.8262	88.8562
13.7895	88.8622
13.7529	88.9146
13.7165	88.892
13.6803	88.8333
13.6443	88.8127
13.6085	88.8624
13.5729	88.8266
13.5374	88.8393
13.5022	88.8431
13.4671	88.8413
13.4322	88.7677
13.3975	88.6927
13.363	88.7293
13.3286	88.8496
13.2944	88.8268
13.2604	88.852
13.2266	88.8698
13.193	88.8338
13.1595	88.862
13.1262	88.8159
13.093	88.7493
13.06	88.7679
13.0272	88.8734
12.9946	88.8882
12.9621	88.8067
12.9298	88.6909
12.8976	88.7054
12.8656	88.759
12.8337	88.604
12.8021	88.4954
12.7705	88.4962
12.7391	88.5179
12.7079	88.5696
12.6769	88.5793
12.6459	88.4861
12.6152	88.4162
12.5845	88.3492
12.5541	88.4056
12.5238	88.4747
12.4936	88.5039
12.4635	88.4265
12.4337	88.3605
12.4039	88.4363
12.3743	88.4562
12.3448	88.3645
12.3155	88.3213
12.2863	88.3683
12.2573	88.4809
12.2284	88.5241
12.1996	88.5076
12.171	88.4015
12.1425	88.3462
12.1141	88.4294
12.0859	88.5188
12.0578	88.5361
12.0298	88.4366
12.0019	88.4391
11.9742	88.5329
11.9466	88.5164
11.9192	88.4528
11.8918	88.5223
11.8646	88.5562
11.8375	88.4765
11.8106	88.4111
11.7837	88.5143
11.757	88.5947
11.7304	88.5065
11.7039	88.5167
11.6776	88.513
11.6513	88.5386
11.6252	88.5419
11.5992	88.5176
11.5733	88.4865
11.5475	88.5534
11.5219	88.595
11.4963	88.5211
11.4709	88.5234
11.4455	88.5083
11.4203	88.4533
11.3952	88.4789
11.3702	88.4985
11.3454	88.5226
11.3206	88.4546
11.2959	88.334
11.2714	88.2201
11.2469	88.2247
11.2226	88.2591
11.1983	88.2863
11.1742	88.3412
11.1502	88.3502
11.1263	88.3544
11.1024	88.3628
11.0787	88.3135
11.0551	88.2592
11.0316	88.1794
11.0081	88.12
10.9848	88.2357
10.9616	88.3062
10.9385	88.207
10.9154	88.1264
10.8925	88.0738
10.8697	88.1587
10.8469	88.1757
10.8243	88.1069
10.8017	88.117
10.7793	88.186
10.7569	88.2263
10.7346	88.1587
10.7125	88.1285
10.6904	88.1492
10.6684	88.1344
10.6465	88.2031
10.6247	88.2148
10.6029	88.1777
10.5813	88.1407
10.5597	88.1276
10.5383	88.0508
10.5169	88.018
10.4956	88.0348
10.4744	88.0565
10.4533	88.0587
10.4323	88.0802
10.4113	88.1687
10.3904	88.2343
10.3697	88.1376
10.349	88.047
10.3284	87.9781
10.3078	87.9885
10.2874	88.098
10.267	88.1521
10.2467	88.1472
10.2265	88.0506
10.2064	88.0201
10.1863	88.0149
10.1663	87.9441
10.1464	87.957
10.1266	88.0711
10.1069	88.1443
10.0872	88.1156
10.0676	88.0803
10.0481	88.0644
10.0287	87.992
10.0093	87.86
9.99005	87.9253
9.97084	87.9665
9.95169	87.9039
9.93263	87.8741
9.91364	87.8984
9.89472	87.8885
9.87587	87.8429
9.8571	87.8209
9.83839	87.8109
9.81976	87.7875
9.80119	87.8054
9.78271	87.7443
9.76428	87.6985
9.74592	87.7061
9.72764	87.745
9.70943	87.7935
9.69128	87.6949
9.6732	87.6353
9.65518	87.6675
9.63724	87.6806
9.61935	87.7526
9.60155	87.712
9.5838	87.6635
9.56611	87.6316
9.5485	87.7147
9.53094	87.8375
9.51345	87.8312
9.49604	87.7109
9.47867	87.7095
9.46137	87.7768
9.44414	87.7405
9.42697	87.7475
9.40986	87.776
9.39281	87.6687
9.37583	87.6902
9.35891	87.7827
9.34204	87.751
9.32524	87.788
9.3085	87.9184
9.29182	87.9561
9.27519	87.9349
9.25863	87.8765
9.24213	87.8504
9.22568	87.8721
9.2093	87.9557
9.19297	88.0214
9.17669	87.988
9.16048	87.9451
9.14433	87.9366
9.12823	87.9669
9.11218	87.9519
9.0962	87.9284
9.08027	88.0712
9.06439	88.2189
9.04858	88.2545
9.03281	88.1941
9.0171	88.2139
9.00145	88.2719
8.98585	88.2377
8.9703	88.2007
8.9548	88.1028
8.93937	88.0334
8.92398	88.1029
8.90865	88.149
8.89337	88.1895
8.87814	88.2121
8.86296	88.1493
8.84784	88.1038
8.83277	88.1026
8.81774	88.0587
8.80277	88.0489
8.78786	88.0514
8.77298	88.0555
8.75816	88.063
8.7434	88.0783
8.72868	88.0139
8.714	87.9935
8.69938	88.0677
8.68481	88.0991
8.67029	87.9894
8.65581	87.9454
8.64139	87.9429
8.62701	87.9893
8.61268	88.0496
8.5984	88.0573
8.58416	88.0316
8.56997	88.0422
8.55583	88.0456
8.54174	87.9765
8.52769	87.8813
8.51368	87.9975
8.49973	88.1117
8.48582	88.1954
8.47195	88.1393
8.45813	88.0509
8.44436	88.0231
8.43062	88.103
8.41693	88.0965
8.4033	88.0404
8.3897	88.1154
8.37614	88.185
8.36264	88.0958
8.34917	88.0504
8.33574	88.0707
8.32236	87.9815
8.30903	87.9659
8.29573	88.0318
8.28248	88.0756
8.26927	88.0845
8.2561	88.1281
8.24298	88.1321
8.2299	88.066
8.21685	88.0759
8.20385	88.1335
8.19089	88.1518
8.17797	88.1249
8.16509	88.1295
8.15225	88.1461
8.13946	88.1412
8.1267	88.141
8.11398	88.2045
8.10131	88.2454
8.08867	88.1496
8.07606	88.0605
8.0635	88.1502
8.05099	88.1962
8.0385	88.1916
8.02606	88.2339
8.01366	88.2604
8.00129	88.2774
7.98896	88.3596
7.97667	88.4087
7.96442	88.4179
7.9522	88.4584
7.94002	88.5264
7.92788	88.5946
7.91578	88.6872
7.90371	88.7669
7.89168	88.7967
7.87969	88.7959
7.86773	88.856
7.85581	88.8564
7.84392	88.8501
7.83207	88.9418
7.82026	89.0608
7.80849	89.091
7.79674	89.0743
7.78503	89.0684
7.77337	89.1965
7.76173	89.2927
7.75012	89.3211
7.73856	89.2623
7.72703	89.2005
7.71553	89.2254
7.70406	89.2258
7.69263	89.2278
7.68123	89.2472
7.66987	89.2029
7.65855	89.2368
7.64725	89.2871
7.63598	89.3045
7.62475	89.3524
7.61356	89.4197
7.60239	89.424
7.59126	89.4546
7.58017	89.4868
7.5691	89.4373
7.55806	89.4509
7.54707	89.5067
7.5361	89.4505
7.52516	89.3926
7.51425	89.4128
7.50338	89.4779
7.49253	89.506
7.48172	89.5193
7.47094	89.5714
7.46019	89.6145
7.44947	89.525
7.43879	89.4382
7.42813	89.4491
7.4175	89.5192
7.4069	89.5532
7.39634	89.5039
7.3858	89.5006
7.37529	89.5511
7.36482	89.5735
7.35437	89.6056
7.34396	89.7132
7.33357	89.687
7.32321	89.4873
7.31288	89.4073
7.30258	89.4554
7.29231	89.4845
7.28207	89.6015
7.27185	89.6472
7.26167	89.5004
7.25152	89.4553
7.24139	89.4449
7.23129	89.4297
7.22122	89.4548
7.21117	89.6362
7.20116	89.5621
7.19117	89.3991
7.18121	89.5227
7.17128	89.7742
7.16137	89.7322
7.1515	89.6429
7.14164	89.5708
7.13182	89.4797
7.12203	89.4368
7.11225	89.4129
7.10251	89.426
7.0928	89.4916
7.08311	89.4495
7.07344	89.4426
7.06381	89.4766
7.0542	89.7563
7.04461	89.988
7.03506	89.6707
7.02552	89.5299
7.01601	89.5428
7.00653	89.5119
6.99708	89.5872
6.98765	89.5959
6.97824	89.5513
6.96886	89.8155
6.95951	90.0167
6.95018	89.6331
6.94087	89.4962
6.9316	89.5781
6.92234	89.6532
6.91311	89.7565
6.90391	89.7368
6.89473	89.5692
6.88557	89.6451
6.87644	89.8643
6.86733	90.4526
6.85824	90.3941
6.84918	89.808
6.84015	89.6391
6.83114	89.848
6.82215	89.85
6.81319	89.6376
6.80424	89.661
6.79532	90.0585
6.78643	90.2157
6.77756	89.9219
6.76871	89.726
6.75989	89.6003
6.75109	89.6162
6.74231	89.5801
6.73355	89.5782
6.72482	89.7354
6.71611	89.9141
6.70742	89.8965
6.69875	89.6472
6.69011	89.7991
6.68149	90.0998
6.67289	89.9401
6.66431	89.6512
6.65576	89.6094
6.64722	90.1245
6.63871	90.7796
6.63022	90.4365
6.62175	89.9097
6.61331	89.7874
6.60488	89.7577
6.59648	89.9465
6.5881	89.9711
6.57974	90.1414
6.5714	90.4126
6.56308	90.112
6.55478	90.0063
6.54651	89.8402
6.53825	89.6383
6.53001	89.7362
6.5218	90.0128
6.51361	89.84
6.50544	89.9076
6.49729	90.6225
6.48915	90.7184
6.48104	90.3166
6.47295	89.977
6.46488	89.6734
6.45683	89.5951
6.4488	89.5338
6.44079	89.6191
6.4328	89.859
6.42482	90.148
6.41687	90.8699
6.40894	90.6108
6.40103	89.6849
6.39314	89.4107
6.38526	89.3718
6.37741	89.5113
6.36957	89.6403
6.36176	89.3667
6.35396	89.4519
6.34618	89.9601
6.33843	89.6898
6.33069	89.2734
6.32297	89.216
6.31527	89.1973
6.30758	89.2564
6.29992	89.2214
6.29227	89.1755
6.28465	89.1268
6.27704	89.1292
6.26945	89.1523
6.26188	89.147
6.25432	89.1728
6.24679	89.1866
6.23927	89.1376
6.23177	89.101
6.22429	89.0547
6.21683	89.065
6.20938	89.1032
6.20195	89.0836
6.19454	89.2037
6.18715	89.7126
6.17978	89.5375
6.17242	89.1654
6.16508	89.2745
6.15776	89.3655
6.15045	89.2469
6.14317	89.2048
6.1359	89.2082
6.12864	89.225
6.12141	89.5069
6.11419	89.962
6.10699	89.6961
6.0998	89.3874
6.09263	89.3731
6.08549	89.4261
6.07835	89.8177
6.07123	90.0238
6.06413	89.7656
6.05705	90.1751
6.04998	91.1252
6.04293	90.513
6.0359	89.6366
6.02888	89.4427
6.02187	89.5639
6.01489	89.7603
6.00792	89.6266
6.00096	89.5425
5.99403	89.8262
5.98711	89.9138
5.9802	89.7208
5.97331	89.85
5.96644	89.8717
5.95958	89.5722
5.95274	89.6383
5.94591	89.8911
5.9391	90.4525
5.9323	90.2487
5.92552	89.7128
5.91876	89.6277
5.91201	89.5527
5.90528	89.6909
5.89856	90.2884
5.89186	90.2983
5.88517	90.4917
5.8785	90.535
5.87184	89.821
5.8652	89.792
5.85857	89.6926
5.85196	89.5344
5.84536	89.5035
5.83878	89.6226
5.83221	89.8876
5.82566	90.2737
5.81912	90.2214
5.81259	89.691
5.80608	89.4913
5.79959	89.5187
5.79311	89.4742
5.78665	89.4923
5.78019	89.5428
5.77376	89.8431
5.76734	90.3627
5.76093	89.9755
5.75453	89.6329
5.74815	89.7815
5.74179	89.6677
5.73543	89.5796
5.7291	89.5458
5.72277	89.6425
5.71646	89.7875
5.71017	89.8794
5.70389	89.6403
5.69762	89.5088
5.69136	89.5519
5.68513	89.4918
5.6789	89.5442
5.67268	89.5482
5.66648	89.4087
5.6603	89.4761
5.65413	89.5969
5.64797	89.7216
5.64182	89.9208
5.63569	89.6538
5.62957	89.3804
5.62347	89.3557
5.61737	89.4464
5.61129	89.5024
5.60522	89.5045
5.59917	89.4485
5.59313	89.3715
5.5871	89.4567
5.58109	89.7129
5.57509	89.6538
5.5691	89.4548
5.56312	89.4631
5.55716	89.5009
5.55121	89.5034
5.54528	89.4232
5.53935	89.3563
5.53344	89.2897
5.52754	89.3499
5.52166	89.3813
5.51578	89.3497
5.50992	89.3443
5.50407	89.3557
5.49823	89.3128
5.49241	89.3042
5.4866	89.293
5.4808	89.3862
5.47501	89.3977
5.46923	89.4137
5.46347	89.4513
5.45772	89.3223
5.45198	89.2469
5.44625	89.2569
5.44054	89.2617
5.43484	89.2845
5.42914	89.3509
5.42347	89.5698
5.4178	89.4527
5.41214	89.262
5.4065	89.2579
5.40087	89.2691
5.39525	89.3008
5.38964	89.2882
5.38404	89.2125
5.37846	89.1746
5.37288	89.1774
5.36732	89.2017
5.36177	89.2183
5.35623	89.3332
5.35071	89.4549
5.34519	89.3356
5.33968	89.2272
5.33419	89.2401
5.32871	89.2661
5.32324	89.258
5.31778	89.255
5.31233	89.2446
5.30689	89.2545
5.30147	89.2656
5.29605	89.2726
5.29065	89.2713
5.28525	89.189
5.27987	89.2528
5.2745	89.3017
5.26914	89.2371
5.26379	89.2049
5.25845	89.2667
5.25312	89.2679
5.24781	89.2083
5.2425	89.248
5.23721	89.3149
5.23192	89.2975
5.22665	89.2697
5.22138	89.2633
5.21613	89.3784
5.21089	89.3786
5.20566	89.2893
5.20044	89.304
5.19522	89.2789
5.19002	89.2492
5.18483	89.2146
5.17965	89.2419
5.17448	89.2407
5.16933	89.2293
5.16418	89.2494
5.15904	89.2384
5.15391	89.2858
5.14879	89.328
5.14368	89.2823
5.13859	89.2504
5.1335	89.2119
5.12842	89.2401
5.12335	89.243
5.1183	89.2231
5.11325	89.2626
5.10821	89.2401
5.10318	89.2193
5.09817	89.2373
5.09316	89.2804
5.08816	89.2997
5.08317	89.2791
5.07819	89.2441
5.07322	89.276
5.06826	89.3157
5.06331	89.309
5.05837	89.3101
5.05344	89.278
5.04852	89.1694
5.04361	89.1678
5.03871	89.2119
5.03382	89.299
5.02894	89.3707
5.02406	89.351
5.0192	89.2786
5.01435	89.2457
5.0095	89.2826
5.00467	89.3095
4.99984	89.2686
4.99502	89.2163
4.99021	89.2208
4.98542	89.2312
4.98063	89.1891
4.97585	89.2133
4.97108	89.2901
4.96632	89.3242
4.96156	89.2935
4.95682	89.2864
4.95209	89.2635
4.94736	89.2474
4.94264	89.2626
4.93794	89.2794
4.93324	89.2879
4.92855	89.2751
4.92387	89.2402
4.9192	89.2307
4.91453	89.2393
4.90988	89.2851
4.90524	89.3013
4.9006	89.2951
4.89597	89.2602
4.89135	89.2559
4.88674	89.2198
4.88214	89.2138
4.87755	89.2671
4.87296	89.2711
4.86839	89.2786
4.86382	89.2805
4.85926	89.2381
4.85471	89.2404
4.85017	89.266
4.84564	89.2517
4.84111	89.2672
4.8366	89.3409
4.83209	89.3425
4.82759	89.297
4.8231	89.2803
4.81862	89.3283
4.81415	89.2943
4.80968	89.2275
4.80522	89.2198
4.80077	89.2678
4.79633	89.272
4.7919	89.2577
4.78747	89.2783
4.78306	89.257
4.77865	89.2918
4.77425	89.3268
4.76986	89.2752
4.76547	89.2567
4.7611	89.3259
4.75673	89.2691
4.75237	89.2381
4.74802	89.3157
4.74367	89.3337
4.73934	89.2687
4.73501	89.2257
4.73069	89.1965
4.72638	89.251
4.72207	89.2972
4.71777	89.3224
4.71348	89.3143
4.7092	89.3221
4.70493	89.3268
4.70066	89.2707
4.69641	89.2583
4.69216	89.2724
4.68791	89.2569
4.68368	89.2352
4.67945	89.2099
4.67523	89.1842
4.67102	89.2019
4.66682	89.2562
4.66262	89.273
4.65843	89.239
4.65425	89.2013
4.65007	89.2129
4.64591	89.2494
4.64175	89.277
4.6376	89.3156
4.63345	89.2937
4.62932	89.2217
4.62519	89.2271
4.62106	89.3066
4.61695	89.3191
4.61284	89.2859
4.60874	89.324
4.60465	89.3353
4.60056	89.3099
4.59648	89.2572
4.59241	89.1777
4.58835	89.2103
4.58429	89.229
4.58024	89.2145
4.5762	89.2652
4.57216	89.2797
4.56814	89.2474
4.56411	89.2294
4.5601	89.2374
4.55609	89.275
4.55209	89.2803
4.5481	89.2372
4.54411	89.2065
4.54013	89.2187
4.53616	89.2607
4.5322	89.2766
4.52824	89.266
4.52429	89.2804
4.52034	89.274
4.51641	89.2338
4.51247	89.1679
4.50855	89.1661
4.50463	89.1819
4.50072	89.2216
4.49682	89.2408
4.49292	89.2496
4.48903	89.2146
4.48515	89.2079
4.48127	89.2033
4.4774	89.2026
4.47354	89.2134
4.46968	89.2163
4.46584	89.2055
4.46199	89.1725
4.45815	89.2066
4.45432	89.293
4.4505	89.2788
4.44668	89.2294
4.44287	89.1991
4.43907	89.1949
4.43527	89.2319
4.43148	89.237
4.4277	89.256
4.42392	89.2375
4.42015	89.2186
4.41638	89.1983
4.41262	89.2287
4.40887	89.2587
4.40513	89.2261
4.40139	89.2402
4.39765	89.2282
4.39393	89.1967
4.39021	89.2049
4.38649	89.25
4.38278	89.255
4.37908	89.2091
4.37539	89.1424
4.3717	89.1285
4.36801	89.1038
4.36434	89.1289
4.36067	89.1901
4.357	89.2194
4.35335	89.252
4.34969	89.2516
4.34605	89.1952
4.34241	89.195
4.33877	89.2127
4.33514	89.162
4.33152	89.1454
4.32791	89.2146
4.3243	89.2446
4.32069	89.2298
4.3171	89.2667
4.31351	89.2957
4.30992	89.2352
4.30634	89.2127
4.30277	89.1972
4.2992	89.2189
4.29564	89.2569
4.29208	89.2501
4.28853	89.2233
4.28499	89.2677
4.28145	89.2901
4.27792	89.2702
4.27439	89.2533
4.27087	89.2632
4.26735	89.2829
4.26384	89.2914
4.26034	89.2559
4.25684	89.219
4.25335	89.2431
4.24986	89.2666
4.24638	89.2733
4.24291	89.2498
4.23944	89.2345
4.23598	89.2501
4.23252	89.2785
4.22906	89.3384
4.22562	89.3376
4.22218	89.3018
4.21874	89.2973
4.21531	89.288
4.21189	89.2606
4.20847	89.228
4.20506	89.2146
4.20165	89.1951
4.19825	89.1842
4.19485	89.1808
4.19146	89.1877
4.18807	89.1753
4.18469	89.0918
4.18132	89.0785
4.17795	89.063
4.17458	89.1069
4.17123	89.1626
4.16787	89.1507
4.16453	89.1086
4.16118	89.0677
4.15785	89.0722
4.15451	89.0772
4.15119	89.1268
4.14787	89.1794
4.14455	89.1562
4.14124	89.1616
4.13794	89.1742
4.13464	89.1864
4.13134	89.1858
4.12805	89.0986
4.12477	89.0807
4.12149	89.1653
4.11822	89.1455
4.11495	89.1021
4.11168	89.0651
4.10843	89.0466
4.10517	89.0523
4.10192	89.0551
4.09868	89.1063
4.09545	89.1397
4.09221	89.1014
4.08899	89.0758
4.08576	89.1053
4.08255	89.0972
4.07933	89.0812
4.07613	89.1367
4.07292	89.1427
4.06973	89.0798
4.06654	89.0876
4.06335	89.1454
4.06017	89.1402
4.05699	89.1203
4.05382	89.0925
4.05065	89.0547
4.04749	89.1011
4.04433	89.1413
4.04118	89.1273
4.03803	89.0743
4.03489	89.0774
4.03175	89.1128
4.02862	89.1197
4.02549	89.1519
4.02237	89.1643
4.01925	89.1679
4.01614	89.0998
4.01303	89.0722
4.00993	89.1948
4.00683	89.2477
4.00373	89.1623
4.00064	89.0413
3.99756	89.0603
3.99448	89.0983
3.9914	89.0723
3.98833	89.0206
3.98527	89.0238
3.98221	89.0655
3.97915	89.0849
3.9761	89.0948
3.97305	89.0943
3.97001	89.1334
3.96697	89.0896
3.96394	89.0627
3.96091	89.0494
3.95789	89.0251
3.95487	89.0599
3.95186	89.0689
3.94885	89.0441
3.94584	89.0054
3.94284	89.0195
3.93984	89.0643
3.93685	89.0559
3.93386	89.1027
3.93088	89.1001
3.9279	89.0911
3.92493	89.101
3.92196	89.0834
3.919	89.1017
3.91604	89.0968
3.91308	89.0721
3.91013	89.0069
3.90718	89.0256
3.90424	89.0775
3.9013	89.1322
3.89837	89.1191
3.89544	89.0601
3.89252	89.0233
3.8896	89.0202
3.88668	89.0411
3.88377	89.1569
3.88086	89.1207
3.87796	89.0045
3.87506	89.0009
3.87217	89.0449
3.86928	89.0636
3.86639	88.9944
3.86351	89.0033
3.86064	89.0455
3.85776	89.0406
3.8549	89.0219
3.85203	89.0044
3.84917	89.0533
3.84631	89.0655
3.84346	89.0407
3.84062	89.0406
3.83777	89.0786
3.83494	89.0177
3.8321	88.9431
3.82927	88.931
3.82644	89.002
3.82362	89.0208
3.82081	88.9784
3.81799	89.0058
3.81518	89.0005
3.81238	89.0241
3.80958	89.0362
3.80678	89.04
3.80399	89.0201
3.8012	89.0229
3.79841	89.0147
3.79563	89.0314
3.79286	88.9828
3.79008	88.9671
3.78731	89.0075
3.78455	89.0324
3.78179	89.0154
3.77903	88.9951
3.77628	89.0285
3.77353	89.0894
3.77079	89.0487
3.76805	89.0082
3.76531	88.9869
3.76258	88.948
3.75985	88.9359
3.75713	88.9354
3.7544	88.9068
3.75169	88.9432
3.74898	89.0254
3.74627	89.0447
3.74356	89.024
3.74086	89.0199
3.73816	89.0655
3.73547	89.0316
3.73278	88.9952
3.7301	88.9436
3.72741	88.936
3.72474	88.9261
3.72206	88.9376
3.71939	89.0008
3.71673	88.9397
3.71406	88.9152
3.71141	88.9449
3.70875	88.9396
3.7061	88.9789
3.70345	89.021
3.70081	89.0257
3.69817	89.0306
3.69553	88.9948
3.6929	88.9726
3.69027	89.0156
3.68765	89.0196
3.68503	89.0176
3.68241	89.0365
3.6798	89.0008
3.67719	89.0105
3.67458	89.0176
3.67198	89.0256
3.66938	88.9962
3.66678	88.9272
3.66419	88.8977
3.66161	88.9483
3.65902	88.9975
3.65644	89.0199
3.65387	89.0412
3.65129	89.0382
3.64872	88.9593
3.64616	88.9778
3.64359	89.0272
3.64103	89.0159
3.63848	88.9837
3.63593	88.9417
3.63338	88.9329
3.63084	89.0061
3.6283	88.9915
3.62576	88.9456
3.62322	88.9538
3.62069	88.9593
3.61817	88.9997
3.61564	88.9896
3.61312	88.9382
3.61061	88.9446
3.6081	88.9468
3.60559	88.9155
3.60308	88.9329
3.60058	88.9595
3.59808	88.9275
3.59558	88.9294
3.59309	88.9657
3.59061	88.96
3.58812	89.002
3.58564	89.0451
3.58316	88.9573
3.58069	88.9338
3.57822	88.9471
3.57575	88.9389
3.57328	88.8962
3.57082	88.9523
3.56836	88.9997
3.56591	88.9963
3.56346	88.9186
3.56101	88.8326
3.55857	88.851
3.55613	88.9476
3.55369	88.9766
3.55126	88.9723
3.54883	88.9752
3.5464	88.9089
3.54397	88.9206
3.54155	88.9539
3.53914	88.9742
3.53672	89.0109
3.53431	88.9714
3.5319	88.939
3.5295	88.9199
3.5271	88.9325
3.5247	88.8676
3.52231	88.8195
3.51991	88.8763
3.51753	88.9534
3.51514	89.0415
3.51276	89.118
3.51038	89.0885
3.50801	89.0831
3.50563	89.0675
3.50327	89.0035
3.5009	89.0272
3.49854	89.0073
3.49618	89.0042
3.49382	89.0101
3.49147	88.9664
3.48912	88.9326
3.48677	88.9569
3.48443	88.9732
3.48209	88.975
3.47975	89.0182
3.47742	88.9509
3.47509	88.8821
3.47276	88.9621
3.47044	88.9897
3.46812	89.0165
3.4658	89.0475
3.46348	89.0371
3.46117	89.0416
3.45886	89.0083
3.45656	88.9831
3.45425	88.9972
3.45195	88.9977
3.44966	88.9497
3.44736	88.962
3.44507	89.0104
3.44279	89.0021
3.4405	88.997
3.43822	89.0079
3.43594	88.9905
3.43367	89.0158
3.43139	89.042
3.42912	89.0609
3.42686	89.0917
3.42459	89.0741
3.42233	89.0307
3.42007	88.9979
3.41782	88.9944
3.41557	88.9089
3.41332	88.9311
3.41108	89.0417
3.40883	89.0522
3.40659	88.9532
3.40435	88.9233
3.40212	88.9832
3.39989	88.9298
3.39766	88.8356
3.39544	88.9027
3.39322	88.9832
3.391	88.9022
3.38878	88.864
3.38657	88.9313
3.38436	88.9234
3.38215	88.8881
3.37994	88.8999
3.37774	88.9365
3.37554	88.9401
3.37335	88.8702
3.37115	88.8885
3.36896	88.875
3.36678	88.8753
3.36459	88.9492
3.36241	88.9934
3.36023	88.9945
3.35805	89.0015
3.35588	88.9463
3.35371	88.9131
3.35154	88.9137
3.34938	88.8584
3.34721	88.8863
3.34505	88.9015
3.3429	88.8653
3.34074	88.835
3.33859	88.8684
3.33644	88.8813
3.3343	88.8485
3.33215	88.8497
3.33001	88.8934
3.32788	88.8876
3.32574	88.8459
3.32361	88.9177
3.32148	88.9146
3.31936	88.7991
3.31723	88.8506
3.31511	88.9409
3.31299	88.9335
3.31088	88.9596
3.30876	88.9855
3.30665	88.9466
3.30455	88.9409
3.30244	88.8994
3.30034	88.8903
3.29824	88.9435
3.29614	88.9336
3.29405	88.9377
3.29196	88.903
3.28987	88.8285
3.28778	88.8759
3.2857	88.8908
3.28362	88.8464
3.28154	88.8591
3.27946	88.8329
3.27739	88.7892
3.27532	88.8202
3.27325	88.9038
3.27119	88.8956
3.26913	88.9535
3.26707	88.9124
3.26501	88.8108
3.26295	88.8449
3.2609	88.9044
3.25885	88.873
3.2568	88.8007
3.25476	88.8129
3.25272	88.8358
3.25068	88.8201
3.24864	88.8041
3.24661	88.869
3.24458	88.9434
3.24255	88.9715
3.24052	88.896
3.2385	88.8181
3.23648	88.881
3.23446	88.8847
3.23244	88.7918
3.23043	88.8271
3.22841	88.8815
3.2264	88.9427
3.2244	88.8873
3.22239	88.818
3.22039	88.8216
3.21839	88.8856
3.2164	88.8854
3.2144	88.8313
3.21241	88.7567
3.21042	88.7564
3.20844	88.8029
3.20645	88.8174
3.20447	88.8123
3.20249	88.8083
3.20051	88.8595
3.19854	88.8585
3.19657	88.8782
3.1946	88.9218
3.19263	88.9108
3.19067	88.8371
3.1887	88.777
3.18674	88.8178
3.18479	88.813
3.18283	88.7349
3.18088	88.7224
3.17893	88.83
3.17698	88.9002
3.17504	88.9136
3.17309	88.8959
3.17115	88.9077
3.16921	88.9143
3.16728	88.9001
3.16534	88.8467
3.16341	88.8229
3.16148	88.8374
3.15956	88.8784
3.15763	88.8524
3.15571	88.902
3.15379	88.9191
3.15187	88.8609
3.14996	88.8989
3.14805	88.8402
3.14614	88.8264
3.14423	88.8386
3.14232	88.8572
3.14042	88.7842
3.13852	88.7599
3.13662	88.8263
3.13472	88.7998
3.13283	88.7792
3.13094	88.8312
3.12905	88.8489
3.12716	88.8806
3.12528	88.9031
3.12339	88.8232
3.12151	88.8332
3.11964	88.837
3.11776	88.784
3.11589	88.7847
3.11401	88.8069
3.11214	88.8736
3.11028	88.9207
3.10841	88.8783
3.10655	88.8441
3.10469	88.8412
3.10283	88.8053
3.10098	88.828
3.09912	88.8626
3.09727	88.8255
3.09542	88.8397
3.09358	88.8538
3.09173	88.888
3.08989	88.7868
3.08805	88.7298
3.08621	88.8463
3.08437	88.9582
3.08254	89.0206
3.08071	88.9597
3.07888	88.8342
3.07705	88.8007
3.07523	88.8124
3.0734	88.8428
3.07158	88.835
3.06977	88.8798
3.06795	88.8532
3.06613	88.831
3.06432	88.8644
3.06251	88.8502
3.0607	88.8239
3.0589	88.8345
3.0571	88.7825
3.05529	88.7913
3.05349	88.7953
3.0517	88.8475
3.0499	88.8542
3.04811	88.8502
3.04632	88.8622
3.04453	88.7992
3.04274	88.7882
3.04096	88.7854
3.03918	88.7371
3.0374	88.766
3.03562	88.808
3.03384	88.8036
3.03207	88.7967
3.03029	88.8444
3.02852	88.8602
3.02676	88.8495
3.02499	88.8278
3.02323	88.7798
3.02146	88.8242
3.0197	88.8709
3.01795	88.8642
3.01619	88.855
3.01444	88.8255
3.01269	88.7918
3.01094	88.742
3.00919	88.826
3.00744	88.8484
3.0057	88.8631
3.00396	88.8669
3.00222	88.8131
3.00048	88.7031
2.99875	88.683
2.99701	88.691
2.99528	88.7714
2.99355	88.9344
2.99183	88.9056
2.9901	88.8179
2.98838	88.7939
2.98666	88.7554
2.98494	88.7613
2.98322	88.7192
2.9815	88.6947
2.97979	88.6915
2.97808	88.7181
2.97637	88.7705
2.97466	88.82
2.97295	88.8074
2.97125	88.8523
2.96955	88.88
2.96785	88.8647
2.96615	88.8488
2.96446	88.6928
2.96276	88.6128
2.96107	88.774
2.95938	88.9229
2.95769	88.8898
2.95601	88.7742
2.95432	88.7066
2.95264	88.6658
2.95096	88.745
2.94928	88.792
2.9476	88.7801
2.94593	88.7927
2.94425	88.821
2.94258	88.7824
2.94092	88.7311
2.93925	88.786
2.93758	88.877
2.93592	88.8645
2.93426	88.7628
2.9326	88.6695
2.93094	88.7065
2.92928	88.7295
2.92763	88.7211
2.92598	88.8094
2.92433	88.8705
2.92268	88.7977
2.92103	88.7654
2.91939	88.764
2.91775	88.7485
2.9161	88.7267
2.91447	88.7943
2.91283	88.7429
2.91119	88.6848
2.90956	88.7222
2.90793	88.786
2.9063	88.7769
2.90467	88.8198
2.90304	88.8432
2.90142	88.8473
2.89979	88.7942
2.89817	88.7028
2.89656	88.6867
2.89494	88.7359
2.89332	88.7063
2.89171	88.6778
2.8901	88.7269
2.88849	88.8077
2.88688	88.729
2.88527	88.5842
2.88367	88.6283
2.88206	88.7039
2.88046	88.76
2.87886	88.8405
2.87727	88.8057
2.87567	88.7658
2.87408	88.7527
2.87248	88.7203
2.87089	88.7359
2.8693	88.7821
2.86772	88.8143
2.86613	88.7588
2.86455	88.7148
2.86297	88.7244
2.86139	88.6524
2.85981	88.7209
2.85823	88.7843
2.85666	88.7333
2.85508	88.6754
2.85351	88.7481
2.85194	88.7786
2.85038	88.7309
2.84881	88.7186
2.84724	88.6827
2.84568	88.6622
2.84412	88.7315
2.84256	88.9228
2.841	88.8703
2.83945	88.7395
2.83789	88.7212
2.83634	88.8032
2.83479	88.849
2.83324	88.7862
2.83169	88.7041
2.83015	88.7972
2.82861	88.782
2.82706	88.5935
2.82552	88.5684
2.82398	88.7391
2.82245	88.8223
2.82091	88.8007
2.81938	88.7643
2.81784	88.7936
2.81631	88.7272
2.81479	88.7216
2.81326	88.7494
2.81173	88.6657
2.81021	88.7291
2.80869	88.8175
2.80716	88.7637
2.80565	88.619
2.80413	88.7811
2.80261	88.9886
2.8011	88.8436
2.79959	88.5824
2.79808	88.5102
2.79657	88.6907
2.79506	88.7704
2.79355	88.6674
2.79205	88.5957
2.79055	88.6779
2.78904	88.7882
2.78754	88.93
2.78605	88.7026
2.78455	88.2959
2.78306	88.2926
2.78156	88.4424
2.78007	88.528
2.77858	88.4849
2.77709	88.5688
2.77561	88.7904
2.77412	88.7975
2.77264	88.5878
2.77116	88.7038
2.76968	88.6985
2.7682	88.7119
2.76672	88.7665
2.76524	88.7542
2.76377	88.8222
2.7623	88.9114
2.76083	88.7843
2.75936	88.565
2.75789	88.625
2.75642	89.1092
2.75496	89.3024
2.7535	88.8697
2.75203	88.8009
2.75057	88.7883
2.74912	88.7394
2.74766	88.6657
2.7462	88.5173
2.74475	88.465
2.7433	88.5642
2.74185	88.9285
2.7404	89.2958
2.73895	89.1279
2.7375	88.6841
2.73606	88.6819
2.73462	88.8267
2.73318	88.712
2.73174	88.6596
2.7303	88.5757
2.72886	88.4783
2.72742	88.5592
2.72599	88.9081
2.72456	89.1935
2.72313	89.0599
2.7217	89.209
2.72027	89.4415
2.71884	88.9164
2.71742	88.6221
2.71599	88.4939
2.71457	88.4965
2.71315	88.5365
2.71173	88.9627
2.71032	89.1231
2.7089	88.8536
2.70748	88.6128
2.70607	88.4708
2.70466	88.4105
2.70325	88.4794
2.70184	88.6145
2.70043	88.6672
2.69903	88.6392
2.69762	88.6579
2.69622	88.7758
2.69482	89.0007
2.69342	88.9946
2.69202	88.6443
2.69062	88.5327
2.68923	88.652
2.68783	88.6516
2.68644	88.7272
2.68505	88.7379
2.68366	88.767
2.68227	88.6885
2.68089	88.6439
2.6795	88.8883
2.67812	89.0781
2.67673	89.2083
2.67535	88.8676
2.67397	88.5318
2.6726	88.6144
2.67122	89.2616
2.66984	89.3964
2.66847	88.939
2.6671	89.2083
2.66572	89.3788
2.66435	89.1918
2.66299	88.6766
2.66162	88.5417
2.66025	88.6499
2.65889	88.6627
2.65753	88.4268
2.65616	88.4469
2.65481	88.5417
2.65345	88.6953
2.65209	88.6558
2.65073	88.4903
2.64938	88.4151
2.64803	88.4388
2.64667	88.5545
2.64532	88.6097
2.64397	88.5279
2.64263	88.4812
2.64128	88.4123
2.63994	88.4697
2.63859	88.4086
2.63725	88.306
2.63591	88.3179
2.63457	88.5217
2.63323	88.6386
2.6319	88.7844
2.63056	89.0927
2.62923	88.9129
2.62789	88.7457
2.62656	88.9117
2.62523	88.6575
2.6239	88.5204
2.62258	88.5082
2.62125	88.8352
2.61993	89.0548
2.6186	88.8462
2.61728	88.952
2.61596	88.7181
2.61464	88.335
2.61332	88.3537
2.61201	88.3952
2.61069	88.5506
2.60938	88.6443
2.60807	88.6451
2.60675	88.8741
2.60544	89.1324
2.60414	88.89
2.60283	88.6082
2.60152	88.5714
2.60022	88.4755
2.59891	88.359
2.59761	88.4885
2.59631	88.972
2.59501	89.6869
2.59371	89.2491
2.59242	88.4915
2.59112	88.34
2.58983	88.4727
2.58853	88.5797
2.58724	88.6555
2.58595	88.5499
2.58466	88.7744
2.58338	88.8392
2.58209	88.5232
2.5808	88.4672
2.57952	88.3549
2.57824	88.3576
2.57695	88.4613
2.57567	88.4592
2.5744	88.6663
2.57312	88.7803
2.57184	88.4837
2.57057	88.6391
2.56929	88.669
2.56802	88.4448
2.56675	88.3447
2.56548	88.3234
2.56421	88.3814
2.56294	88.5728
2.56168	88.665
2.56041	88.5692
2.55915	88.527
2.55789	88.4141
2.55662	88.2814
2.55536	88.3857
2.5541	88.4776
2.55285	88.4501
2.55159	88.4836
2.55034	88.5539
2.54908	88.4629
2.54783	88.3407
2.54658	88.2578
2.54533	88.2705
2.54408	88.3602
2.54283	88.4053
2.54159	88.2843
2.54034	88.2783
2.5391	88.2836
2.53785	88.1731
2.53661	88.2921
2.53537	88.3009
2.53413	88.324
2.53289	88.4482
2.53166	88.5171
2.53042	88.4742
2.52919	88.4291
2.52795	88.3266
2.52672	88.2696
2.52549	88.2883
2.52426	88.3711
2.52303	88.4157
2.52181	88.3641
2.52058	88.3418
2.51936	88.2801
2.51813	88.2378
2.51691	88.2379
2.51569	88.197
2.51447	88.144
2.51325	88.1339
2.51203	88.1117
2.51082	88.0986
2.5096	88.1463
2.50839	88.2776
2.50717	88.4128
2.50596	88.3448
2.50475	88.1797
2.50354	88.2383
2.50233	88.3112
2.50113	88.3171
2.49992	88.2923
2.49872	88.2651
2.49751	88.2335
2.49631	88.2931
2.49511	88.3717
2.49391	88.3811
2.49271	88.3476
2.49151	88.3406
2.49031	88.3113
2.48912	88.2289
2.48792	88.2023
2.48673	88.2582
2.48554	88.2869
2.48435	88.2502
2.48316	88.2927
2.48197	88.3146
2.48078	88.2107
2.4796	88.1664
2.47841	88.2626
2.47723	88.2885
2.47604	88.1896
2.47486	88.2159
2.47368	88.2472
2.4725	88.2705
2.47132	88.195
2.47014	88.1578
2.46897	88.2443
2.46779	88.1789
2.46662	88.1593
2.46545	88.2966
2.46427	88.2667
2.4631	88.2725
2.46193	88.2218
2.46077	88.1504
2.4596	88.1641
2.45843	88.2221
2.45727	88.2868
2.4561	88.2196
2.45494	88.16
2.45378	88.2635
2.45262	88.2883
2.45146	88.2287
2.4503	88.166
2.44914	88.0726
2.44799	88.0585
2.44683	88.1129
2.44568	88.161
2.44452	88.2288
2.44337	88.2062
2.44222	88.1983
2.44107	88.2422
2.43992	88.1752
2.43877	88.087
2.43763	88.1406
2.43648	88.2409
2.43534	88.2832
2.43419	88.2444
2.43305	88.2307
2.43191	88.1769
2.43077	88.1597
2.42963	88.1918
2.42849	88.1607
2.42736	87.9673
2.42622	87.9122
2.42509	88.2063
2.42395	88.1802
2.42282	88.0473
2.42169	88.1301
2.42056	88.2713
2.41943	88.3081
2.4183	88.2396
2.41717	88.1668
2.41605	88.1867
2.41492	88.1411
2.4138	88.1534
2.41267	88.1479
2.41155	88.1652
2.41043	88.134
2.40931	88.1339
2.40819	88.103
2.40707	88.0628
2.40595	88.1453
2.40484	88.2397
2.40372	88.1941
2.40261	88.2392
2.4015	88.2451
2.40039	88.2028
2.39928	88.2826
2.39817	88.3371
2.39706	88.2306
2.39595	88.096
2.39484	88.1468
2.39374	88.2756
2.39263	88.2397
2.39153	88.1312
2.39043	88.0211
2.38932	87.9963
2.38822	88.0044
2.38712	88.1053
2.38603	88.1675
2.38493	88.1751
2.38383	88.1204
2.38274	88.1319
2.38164	88.2618
2.38055	88.3206
2.37946	88.1896
2.37836	88.0495
2.37727	87.9311
2.37618	87.9719
2.3751	87.9809
2.37401	87.8974
2.37292	87.9569
2.37184	88.063
2.37075	88.0965
2.36967	88.0905
2.36859	88.1804
2.3675	88.2316
2.36642	88.1336
2.36534	88.0957
2.36427	88.0668
2.36319	88.0671
2.36211	88.0073
2.36104	88.1161
2.35996	88.2432
2.35889	88.2724
2.35781	88.2292
2.35674	88.102
2.35567	88.0454
2.3546	88.088
2.35353	88.1817
2.35247	88.1784
2.3514	88.0255
2.35033	87.9611
2.34927	88.0098
2.3482	88.0106
2.34714	88.0361
2.34608	88.1052
2.34502	88.0664
2.34396	88.1513
2.3429	88.156
2.34184	88.1043
2.34078	87.9845
2.33973	87.999
2.33867	88.0616
2.33762	87.9879
2.33656	88.0484
2.33551	88.0439
2.33446	87.8817
2.33341	88.0221
2.33236	88.1449
2.33131	88.0768
2.33026	88.0466
2.32922	88.1
2.32817	88.0721
2.32712	88.0076
2.32608	87.9965
2.32504	88.0751
2.324	88.1468
2.32295	88.1419
2.32191	88.0784
2.32087	88.0997
2.31984	87.9862
2.3188	87.8678
2.31776	87.9324
2.31673	88.1827
2.31569	88.2366
2.31466	88.0982
2.31362	88.0455
2.31259	88.0277
2.31156	87.934
2.31053	87.8896
2.3095	87.9406
2.30847	87.9696
2.30745	87.8977
2.30642	87.951
2.3054	88.0829
2.30437	88.1188
2.30335	88.0699
2.30232	88.0515
2.3013	88.0894
2.30028	87.9592
2.29926	87.9127
2.29824	88.0038
2.29722	88.1012
2.29621	88.0191
2.29519	87.9947
2.29417	88.1026
2.29316	88.0534
2.29215	87.9677
2.29113	87.889
2.29012	87.917
2.28911	87.8193
2.2881	87.8577
2.28709	87.9584
2.28608	88.0823
2.28507	88.1026
2.28407	88.0204
2.28306	87.9588
2.28206	88.0142
2.28105	88.0455
2.28005	87.9703
2.27905	87.9925
2.27805	88.0018
2.27705	87.9669
2.27605	87.9576
2.27505	87.9578
2.27405	88.1053
2.27305	88.1061
2.27206	87.9633
2.27106	87.8484
2.27007	87.7236
2.26907	87.7485
2.26808	87.8634
2.26709	87.9341
2.2661	87.8787
2.26511	87.9664
2.26412	87.8811
2.26313	87.8347
2.26214	87.8169
2.26116	87.9614
2.26017	88.2074
2.25919	88.1177
2.2582	87.8859
2.25722	87.9608
2.25624	88.1278
2.25526	87.9288
2.25428	87.8858
2.2533	88.0213
2.25232	88.0384
2.25134	87.952
2.25036	87.8283
2.24939	87.7902
2.24841	87.9399
2.24744	88.0431
2.24646	88.0723
2.24549	88.0022
2.24452	87.8735
2.24355	87.7706
2.24257	87.8565
2.24161	87.9171
2.24064	87.8391
2.23967	87.7501
2.2387	87.85
2.23774	88.0099
2.23677	87.9607
2.23581	87.8557
2.23484	88.0102
2.23388	88.0996
2.23292	87.9665
2.23196	87.9236
2.231	87.9044
2.23004	87.9456
2.22908	88.0684
2.22812	87.9576
2.22716	87.9477
2.22621	88.034
2.22525	87.9558
2.2243	87.8158
2.22334	87.8733
2.22239	87.8893
2.22144	87.7495
2.22049	87.7903
2.21953	87.7828
2.21859	87.7013
2.21764	87.8317
2.21669	87.9484
2.21574	87.8421
2.21479	87.8128
2.21385	87.8851
2.2129	87.9718
2.21196	87.9809
2.21102	87.9733
2.21007	87.9202
2.20913	87.8336
2.20819	87.8583
2.20725	87.8895
2.20631	87.8007
2.20537	87.8128
2.20444	87.9167
2.2035	87.9672
2.20256	87.9741
2.20163	87.8314
2.20069	87.7162
2.19976	87.9129
2.19883	88.0196
2.19789	87.9507
2.19696	87.8741
2.19603	87.821
2.1951	87.7111
2.19417	87.7187
2.19325	87.778
2.19232	87.789
2.19139	87.7829
2.19047	87.8583
2.18954	88.0475
2.18862	88.0022
2.18769	87.8623
2.18677	87.9655
2.18585	88.0192
2.18493	87.9597
2.18401	87.9277
2.18309	87.8651
2.18217	87.8041
2.18125	87.7819
2.18033	87.7678
2.17942	87.8252
2.1785	87.9179
2.17759	87.9326
2.17667	87.8339
2.17576	87.7041
2.17485	87.7007
2.17393	87.7437
2.17302	87.8
2.17211	87.7706
2.1712	87.7392
2.17029	87.7384
2.16939	87.7494
2.16848	87.7733
2.16757	87.7691
2.16667	87.7927
2.16576	87.847
2.16486	87.77
2.16395	87.6933
2.16305	87.7526
2.16215	87.8683
2.16125	87.9512
2.16035	87.8924
2.15945	87.7534
2.15855	87.7153
2.15765	87.6685
2.15675	87.7439
2.15586	87.8266
2.15496	87.7838
2.15406	87.7658
2.15317	87.7415
2.15228	87.7052
2.15138	87.7224
2.15049	87.7657
2.1496	87.7439
2.14871	87.7982
2.14782	87.7096
2.14693	87.7621
2.14604	87.8639
2.14515	87.6967
2.14427	87.7741
2.14338	87.9645
2.14249	87.9139
2.14161	87.8034
2.14072	87.7251
2.13984	87.6926
2.13896	87.7073
2.13808	87.6181
2.13719	87.5546
2.13631	87.6949
2.13543	87.8313
2.13455	87.8612
2.13368	87.7966
2.1328	87.7539
2.13192	87.7725
2.13105	87.7979
2.13017	87.7585
2.1293	87.7314
2.12842	87.722
2.12755	87.8397
2.12668	87.9282
2.1258	88.0257
2.12493	87.8887
2.12406	87.6061
2.12319	87.7076
2.12232	87.8304
2.12145	87.7947
2.12059	87.7792
2.11972	87.6787
2.11885	87.7149
2.11799	87.7622
2.11712	87.7038
2.11626	87.8134
2.1154	87.8524
2.11453	87.6921
2.11367	87.6173
2.11281	87.6619
2.11195	87.8089
2.11109	87.7662
2.11023	87.5968
2.10937	87.6505
2.10851	87.8445
2.10766	87.7764
2.1068	87.6484
2.10594	87.5141
2.10509	87.5561
2.10423	87.7813
2.10338	87.6857
2.10253	87.4696
2.10168	87.4975
2.10082	87.56
2.09997	87.7553
2.09912	87.8374
2.09827	87.692
2.09742	87.6416
2.09658	87.6784
2.09573	87.6831
2.09488	87.655
2.09404	87.713
2.09319	87.727
2.09235	87.6639
2.0915	87.6888
2.09066	87.5389
2.08982	87.4143
2.08897	87.3864
2.08813	87.3584
2.08729	87.6242
2.08645	87.7849
2.08561	87.7931
2.08477	87.6186
2.08394	87.5022
2.0831	87.5791
2.08226	87.6654
2.08143	87.5841
2.08059	87.7221
2.07976	87.6546
2.07892	87.4736
2.07809	87.5617
2.07726	87.8172
2.07643	87.8301
2.07559	87.6979
2.07476	87.7902
2.07393	87.5525
2.0731	87.5042
2.07228	87.7201
2.07145	87.7325
2.07062	87.7743
2.06979	87.7548
2.06897	87.5717
2.06814	87.6636
2.06732	87.7521
2.06649	87.6333
2.06567	87.566
2.06485	87.7063
2.06403	87.73
2.0632	87.4378
2.06238	87.4036
2.06156	87.2802
2.06074	87.277
2.05993	87.49
2.05911	87.7057
2.05829	87.8339
2.05747	87.7903
2.05666	87.7548
2.05584	87.8816
2.05503	87.8034
2.05421	87.7242
2.0534	87.7411
2.05259	87.5343
2.05177	87.4935
2.05096	87.5434
2.05015	87.5218
2.04934	87.6796
2.04853	87.6261
2.04772	87.4664
2.04691	87.5335
2.04611	87.5825
2.0453	87.657
2.04449	87.7578
2.04369	87.9006
2.04288	87.8512
2.04208	87.6941
2.04127	87.6402
2.04047	87.5723
2.03967	87.4254
2.03886	87.4408
2.03806	87.4396
2.03726	87.4451
2.03646	87.4921
2.03566	87.5437
2.03486	87.4714
2.03407	87.4731
2.03327	87.6143
2.03247	87.5936
2.03167	87.703
2.03088	87.7814
2.03008	87.4103
2.02929	87.4014
2.0285	87.5828
2.0277	87.5663
2.02691	87.4967
2.02612	87.428
2.02533	87.3617
2.02453	87.4998
2.02374	87.7448
2.02295	87.7415
2.02217	87.4722
2.02138	87.2026
2.02059	87.3318
2.0198	87.5049
2.01902	87.5437
2.01823	87.4446
2.01744	87.5071
2.01666	87.6014
2.01588	87.6324
2.01509	87.5877
2.01431	87.6952
2.01353	87.4796
2.01275	87.3594
2.01196	87.4647
2.01118	87.3153
2.0104	87.324
2.00963	87.3718
2.00885	87.3394
2.00807	87.5765
2.00729	87.5734
2.00651	87.3987
2.00574	87.6729
2.00496	87.6534
2.00419	87.4253
2.00341	87.3728
2.00264	87.5909
2.00187	87.5735
2.00109	87.4614
2.00032	87.4486
