Name: Andesine (Feldspar) (NaSi,CaAl)AlSi_2O_8
Type: Mineral
Class: Silicates
Subclass: Tectosilicates
Particle Size: 45-125um
Sample No.: TS-4A
Owner: JPL
Wavelength range: IR
Origin: 
Collected by JPL
Description:   





Measurement: Hemispherical reflectance
First Column: X
Second Column: Y
X Units:  Wavelength (micrometers)
Y Units:  Reflectance (percent)
First X Value: 15.3853
Last X Value: 2.00032
Number of X Values: 2256
Additional information: ts04aa.txt
 
15.3853	4.29473
15.3397	3.96184
15.2945	3.31327
15.2495	2.75471
15.2048	2.29133
15.1603	2.07796
15.1161	1.96188
15.0722	1.68504
15.0285	1.42745
14.9851	1.66485
14.9419	1.5824
14.8989	1.48669
14.8563	1.38118
14.8138	1.55021
14.7716	1.82635
14.7296	1.9301
14.6879	1.86429
14.6464	2.02376
14.6052	1.96624
14.5641	1.82763
14.5233	1.8167
14.4828	2.00766
14.4424	2.28107
14.4023	2.26208
14.3624	2.16412
14.3227	2.33895
14.2833	2.52326
14.244	2.59269
14.205	2.6284
14.1662	2.53561
14.1276	2.46633
14.0892	2.51259
14.051	2.35293
14.0131	2.29386
13.9753	2.48667
13.9377	2.53775
13.9004	2.64331
13.8632	2.90921
13.8262	2.99682
13.7895	2.85219
13.7529	2.6897
13.7165	2.78793
13.6803	2.84197
13.6443	2.74859
13.6085	2.71697
13.5729	2.67293
13.5374	2.67795
13.5022	2.6632
13.4671	2.74178
13.4322	2.89359
13.3975	3.0099
13.363	2.9607
13.3286	2.87786
13.2944	2.80523
13.2604	2.74897
13.2266	2.80415
13.193	2.87431
13.1595	2.88087
13.1262	2.78931
13.093	2.70766
13.06	2.62762
13.0272	2.65254
12.9946	2.61134
12.9621	2.52431
12.9298	2.49301
12.8976	2.52349
12.8656	2.48414
12.8337	2.52382
12.8021	2.49184
12.7705	2.48121
12.7391	2.49594
12.7079	2.34347
12.6769	2.25947
12.6459	2.33808
12.6152	2.28222
12.5845	2.15221
12.5541	2.11458
12.5238	2.14204
12.4936	2.10558
12.4635	2.21802
12.4337	2.46275
12.4039	2.43582
12.3743	2.42053
12.3448	2.54071
12.3155	2.51816
12.2863	2.55864
12.2573	2.89665
12.2284	3.11528
12.1996	3.19271
12.171	3.41956
12.1425	3.6469
12.1141	3.71135
12.0859	3.80632
12.0578	3.98993
12.0298	4.03334
12.0019	4.19524
11.9742	4.21467
11.9466	4.0382
11.9192	3.98751
11.8918	4.11324
11.8646	4.29369
11.8375	4.27229
11.8106	4.16409
11.7837	4.18086
11.757	4.19458
11.7304	4.19021
11.7039	4.23233
11.6776	4.22499
11.6513	4.31593
11.6252	4.46173
11.5992	4.36196
11.5733	4.22554
11.5475	4.25743
11.5219	4.29684
11.4963	4.37247
11.4709	4.48989
11.4455	4.61781
11.4203	4.81959
11.3952	4.81333
11.3702	4.7956
11.3454	4.91744
11.3206	4.96856
11.2959	4.92343
11.2714	4.92779
11.2469	5.06732
11.2226	5.22576
11.1983	5.25202
11.1742	5.26558
11.1502	5.35358
11.1263	5.53311
11.1024	5.63883
11.0787	5.6621
11.0551	5.82952
11.0316	5.98709
11.0081	5.9569
10.9848	6.0621
10.9616	6.3027
10.9385	6.40823
10.9154	6.29501
10.8925	6.38053
10.8697	6.67537
10.8469	6.81729
10.8243	6.87161
10.8017	6.94489
10.7793	7.15734
10.7569	7.43615
10.7346	7.51818
10.7125	7.5286
10.6904	7.63228
10.6684	7.77246
10.6465	7.84448
10.6247	7.90452
10.6029	7.95266
10.5813	7.99392
10.5597	8.02751
10.5383	8.097
10.5169	8.21172
10.4956	8.41099
10.4744	8.57736
10.4533	8.69431
10.4323	8.86758
10.4113	8.98677
10.3904	8.99976
10.3697	9.12046
10.349	9.46435
10.3284	9.73041
10.3078	9.87769
10.2874	10.0039
10.267	10.1498
10.2467	10.383
10.2265	10.6915
10.2064	11.0345
10.1863	11.4234
10.1663	11.7189
10.1464	11.866
10.1266	12.0388
10.1069	12.2241
10.0872	12.4906
10.0676	12.7863
10.0481	13.0038
10.0287	13.2248
10.0093	13.4675
9.99005	13.7707
9.97084	14.0248
9.95169	14.1684
9.93263	14.2863
9.91364	14.4068
9.89472	14.6031
9.87587	14.7409
9.8571	14.6958
9.83839	14.6124
9.81976	14.5993
9.80119	14.5373
9.78271	14.3968
9.76428	14.3426
9.74592	14.282
9.72764	14.2369
9.70943	14.2211
9.69128	14.2342
9.6732	14.226
9.65518	14.0681
9.63724	13.9058
9.61935	13.7388
9.60155	13.4295
9.5838	13.0804
9.56611	12.6612
9.5485	12.1527
9.53094	11.6659
9.51345	11.329
9.49604	10.8837
9.47867	10.465
9.46137	10.0568
9.44414	9.67939
9.42697	9.43061
9.40986	9.16176
9.39281	8.86197
9.37583	8.60471
9.35891	8.48819
9.34204	8.35103
9.32524	8.30454
9.3085	8.21465
9.29182	8.07163
9.27519	8.14598
9.25863	8.13246
9.24213	8.06291
9.22568	8.30822
9.2093	8.40606
9.19297	8.34112
9.17669	8.34103
9.16048	8.36858
9.14433	8.35296
9.12823	8.36751
9.11218	8.61335
9.0962	8.89195
9.08027	8.83377
9.06439	8.78384
9.04858	8.93329
9.03281	8.99513
9.0171	9.1372
9.00145	9.35774
8.98585	9.41143
8.9703	9.38443
8.9548	9.47314
8.93937	9.6683
8.92398	9.78913
8.90865	9.81534
8.89337	9.9437
8.87814	10.1325
8.86296	10.3325
8.84784	10.5696
8.83277	10.5159
8.81774	10.6052
8.80277	10.7276
8.78786	10.8154
8.77298	10.9129
8.75816	11.0385
8.7434	11.1246
8.72868	11.2132
8.714	11.3413
8.69938	11.2633
8.68481	11.1012
8.67029	11.1961
8.65581	11.2038
8.64139	11.1739
8.62701	11.1972
8.61268	11.1635
8.5984	11.2695
8.58416	11.2871
8.56997	11.1225
8.55583	11.0848
8.54174	11.1653
8.52769	11.1463
8.51368	11.1362
8.49973	11.1066
8.48582	11.0959
8.47195	10.9946
8.45813	11.0654
8.44436	11.2305
8.43062	11.1512
8.41693	11.0271
8.4033	10.9529
8.3897	10.74
8.37614	10.5476
8.36264	10.5016
8.34917	10.3101
8.33574	10.0106
8.32236	9.67623
8.30903	9.34424
8.29573	9.03427
8.28248	8.56346
8.26927	8.01404
8.2561	7.30462
8.24298	6.59282
8.2299	5.90957
8.21685	5.33853
8.20385	4.67052
8.19089	3.8998
8.17797	3.23775
8.16509	3.03506
8.15225	2.83097
8.13946	2.41572
8.1267	2.10349
8.11398	1.81019
8.10131	1.42123
8.08867	1.16739
8.07606	1.07747
8.0635	1.02955
8.05099	0.874754
8.0385	0.692945
8.02606	0.626932
8.01366	0.531772
8.00129	0.396565
7.98896	0.284127
7.97667	0.256914
7.96442	0.212352
7.9522	0.20561
7.94002	0.291391
7.92788	0.237375
7.91578	0.174027
7.90371	0.107181
7.89168	0.126919
7.87969	0.222508
7.86773	0.22071
7.85581	0.224794
7.84392	0.246022
7.83207	0.233118
7.82026	0.200149
7.80849	0.199113
7.79674	0.239171
7.78503	0.166802
7.77337	0.10299
7.76173	0.15002
7.75012	0.172379
7.73856	0.188325
7.72703	0.102472
7.71553	0.112952
7.70406	0.200785
7.69263	0.248701
7.68123	0.285935
7.66987	0.269105
7.65855	0.304929
7.64725	0.352767
7.63598	0.392047
7.62475	0.345863
7.61356	0.274593
7.60239	0.32394
7.59126	0.429736
7.58017	0.498352
7.5691	0.520544
7.55806	0.442711
7.54707	0.443606
7.5361	0.592726
7.52516	0.587179
7.51425	0.537774
7.50338	0.556246
7.49253	0.589136
7.48172	0.650432
7.47094	0.682336
7.46019	0.727192
7.44947	0.745468
7.43879	0.764401
7.42813	0.730684
7.4175	0.761518
7.4069	0.858722
7.39634	0.889875
7.3858	0.947392
7.37529	0.985622
7.36482	1.11528
7.35437	1.18905
7.34396	1.13294
7.33357	1.052
7.32321	1.10198
7.31288	1.11219
7.30258	1.10785
7.29231	1.17446
7.28207	1.34277
7.27185	1.45852
7.26167	1.50015
7.25152	1.47757
7.24139	1.47282
7.23129	1.49157
7.22122	1.55542
7.21117	1.66748
7.20116	1.76494
7.19117	1.8358
7.18121	1.81334
7.17128	1.78503
7.16137	1.78858
7.1515	1.8698
7.14164	1.96677
7.13182	2.02675
7.12203	2.06675
7.11225	2.08305
7.10251	2.14445
7.0928	2.25343
7.08311	2.32264
7.07344	2.34875
7.06381	2.37829
7.0542	2.43552
7.04461	2.46356
7.03506	2.48504
7.02552	2.58674
7.01601	2.65112
7.00653	2.6343
6.99708	2.59022
6.98765	2.61091
6.97824	2.76484
6.96886	2.85773
6.95951	2.81663
6.95018	2.81664
6.94087	2.89583
6.9316	2.96813
6.92234	2.93444
6.91311	2.93755
6.90391	3.02566
6.89473	3.04982
6.88557	3.12879
6.87644	3.21494
6.86733	3.18922
6.85824	3.19694
6.84918	3.15936
6.84015	3.15904
6.83114	3.27604
6.82215	3.37452
6.81319	3.35382
6.80424	3.34852
6.79532	3.40529
6.78643	3.44478
6.77756	3.51064
6.76871	3.58056
6.75989	3.60208
6.75109	3.55896
6.74231	3.55823
6.73355	3.63919
6.72482	3.74459
6.71611	3.75653
6.70742	3.6931
6.69875	3.60202
6.69011	3.62132
6.68149	3.72198
6.67289	3.83195
6.66431	3.88351
6.65576	3.86084
6.64722	3.85873
6.63871	3.88368
6.63022	3.93371
6.62175	4.01539
6.61331	4.0473
6.60488	4.0033
6.59648	4.00053
6.5881	4.03871
6.57974	4.03276
6.5714	4.11644
6.56308	4.15956
6.55478	4.08478
6.54651	4.00835
6.53825	4.07251
6.53001	4.16962
6.5218	4.21497
6.51361	4.29459
6.50544	4.36459
6.49729	4.35825
6.48915	4.37731
6.48104	4.38233
6.47295	4.28739
6.46488	4.28981
6.45683	4.38884
6.4488	4.38981
6.44079	4.43103
6.4328	4.44519
6.42482	4.41875
6.41687	4.50419
6.40894	4.52437
6.40103	4.39282
6.39314	4.28406
6.38526	4.30481
6.37741	4.31476
6.36957	4.34884
6.36176	4.30514
6.35396	4.26074
6.34618	4.31378
6.33843	4.29388
6.33069	4.24588
6.32297	4.20951
6.31527	4.17212
6.30758	4.15535
6.29992	4.15446
6.29227	4.0997
6.28465	4.11544
6.27704	4.15812
6.26945	4.16136
6.26188	4.14214
6.25432	4.11201
6.24679	4.13971
6.23927	4.19344
6.23177	4.24947
6.22429	4.15257
6.21683	4.14597
6.20938	4.20163
6.20195	4.1657
6.19454	4.10389
6.18715	4.12324
6.17978	4.26077
6.17242	4.34994
6.16508	4.31072
6.15776	4.29907
6.15045	4.37228
6.14317	4.48786
6.1359	4.52534
6.12864	4.49645
6.12141	4.55699
6.11419	4.62998
6.10699	4.66795
6.0998	4.74459
6.09263	4.66023
6.08549	4.5969
6.07835	4.64465
6.07123	4.70877
6.06413	4.77038
6.05705	4.87938
6.04998	4.91904
6.04293	4.78692
6.0359	4.79233
6.02888	4.85132
6.02187	4.82354
6.01489	4.82946
6.00792	4.85907
6.00096	4.83086
5.99403	4.87542
5.98711	4.93334
5.9802	4.94184
5.97331	4.96548
5.96644	4.99209
5.95958	4.91051
5.95274	4.88992
5.94591	4.9137
5.9391	4.97301
5.9323	4.96583
5.92552	4.90514
5.91876	4.90411
5.91201	4.89362
5.90528	4.89364
5.89856	4.97381
5.89186	5.03712
5.88517	5.03157
5.8785	4.97014
5.87184	4.92788
5.8652	4.92231
5.85857	4.9574
5.85196	5.0062
5.84536	4.93656
5.83878	4.93081
5.83221	4.99413
5.82566	5.10702
5.81912	5.0977
5.81259	5.02093
5.80608	4.98932
5.79959	5.02757
5.79311	5.09285
5.78665	5.05957
5.78019	5.02098
5.77376	5.07417
5.76734	5.14012
5.76093	5.14934
5.75453	5.16206
5.74815	5.16024
5.74179	5.0824
5.73543	5.05828
5.7291	5.1155
5.72277	5.18333
5.71646	5.16054
5.71017	5.11362
5.70389	5.07976
5.69762	5.09389
5.69136	5.18261
5.68513	5.26138
5.6789	5.26521
5.67268	5.30141
5.66648	5.35552
5.6603	5.30971
5.65413	5.31544
5.64797	5.38019
5.64182	5.33238
5.63569	5.22045
5.62957	5.31423
5.62347	5.42413
5.61737	5.46254
5.61129	5.55299
5.60522	5.62033
5.59917	5.61475
5.59313	5.61027
5.5871	5.68226
5.58109	5.79508
5.57509	5.87396
5.5691	5.98337
5.56312	6.0856
5.55716	6.09285
5.55121	6.08609
5.54528	6.10821
5.53935	6.2175
5.53344	6.37763
5.52754	6.49185
5.52166	6.59456
5.51578	6.6448
5.50992	6.79112
5.50407	6.97271
5.49823	7.07719
5.49241	7.16952
5.4866	7.30164
5.4808	7.44962
5.47501	7.53686
5.46923	7.6418
5.46347	7.69832
5.45772	7.86542
5.45198	8.02536
5.44625	8.15158
5.44054	8.2636
5.43484	8.35962
5.42914	8.44789
5.42347	8.6296
5.4178	8.74958
5.41214	8.83881
5.4065	9.03494
5.40087	9.21683
5.39525	9.33532
5.38964	9.42517
5.38404	9.56961
5.37846	9.65982
5.37288	9.67826
5.36732	9.75152
5.36177	9.86902
5.35623	10.0124
5.35071	10.1665
5.34519	10.3029
5.33968	10.3442
5.33419	10.3685
5.32871	10.4365
5.32324	10.4726
5.31778	10.5379
5.31233	10.7232
5.30689	10.8333
5.30147	10.9054
5.29605	10.9431
5.29065	11.0083
5.28525	11.0718
5.27987	11.0792
5.2745	11.095
5.26914	11.1377
5.26379	11.2178
5.25845	11.3205
5.25312	11.3826
5.24781	11.5339
5.2425	11.5962
5.23721	11.6056
5.23192	11.663
5.22665	11.8228
5.22138	11.943
5.21613	12.1508
5.21089	12.3546
5.20566	12.4325
5.20044	12.5505
5.19522	12.705
5.19002	12.8647
5.18483	13.0784
5.17965	13.2574
5.17448	13.4187
5.16933	13.5667
5.16418	13.7307
5.15904	13.8913
5.15391	14.0562
5.14879	14.1943
5.14368	14.4201
5.13859	14.6596
5.1335	14.8726
5.12842	15.0326
5.12335	15.1818
5.1183	15.3973
5.11325	15.6556
5.10821	15.8872
5.10318	16.1118
5.09817	16.3111
5.09316	16.5186
5.08816	16.7973
5.08317	17.0315
5.07819	17.229
5.07322	17.4836
5.06826	17.7469
5.06331	17.9826
5.05837	18.2449
5.05344	18.5237
5.04852	18.7794
5.04361	19.0064
5.03871	19.2861
5.03382	19.5353
5.02894	19.723
5.02406	19.9141
5.0192	20.1196
5.01435	20.2996
5.0095	20.478
5.00467	20.6277
4.99984	20.827
4.99502	21.0866
4.99021	21.266
4.98542	21.3967
4.98063	21.6116
4.97585	21.7532
4.97108	21.8578
4.96632	22.118
4.96156	22.3568
4.95682	22.4742
4.95209	22.5821
4.94736	22.695
4.94264	22.7784
4.93794	22.9615
4.93324	23.0999
4.92855	23.1533
4.92387	23.23
4.9192	23.2946
4.91453	23.3209
4.90988	23.4878
4.90524	23.6451
4.9006	23.6913
4.89597	23.7354
4.89135	23.8333
4.88674	23.9115
4.88214	23.9906
4.87755	24.0582
4.87296	24.1729
4.86839	24.2776
4.86382	24.4279
4.85926	24.6021
4.85471	24.6678
4.85017	24.7264
4.84564	24.847
4.84111	24.9511
4.8366	25.0476
4.83209	25.0982
4.82759	25.1675
4.8231	25.3082
4.81862	25.3949
4.81415	25.403
4.80968	25.4883
4.80522	25.5757
4.80077	25.634
4.79633	25.6734
4.7919	25.7375
4.78747	25.7486
4.78306	25.8192
4.77865	25.8697
4.77425	25.9165
4.76986	26.0465
4.76547	26.0839
4.7611	26.1064
4.75673	26.2226
4.75237	26.3471
4.74802	26.4983
4.74367	26.6446
4.73934	26.7503
4.73501	26.9283
4.73069	27.0306
4.72638	27.1482
4.72207	27.3223
4.71777	27.4975
4.71348	27.7124
4.7092	27.8468
4.70493	27.9393
4.70066	28.1097
4.69641	28.3081
4.69216	28.4476
4.68791	28.6272
4.68368	28.8692
4.67945	29.0816
4.67523	29.2238
4.67102	29.4739
4.66682	29.7343
4.66262	29.9123
4.65843	30.0908
4.65425	30.2987
4.65007	30.5529
4.64591	30.9243
4.64175	31.2417
4.6376	31.531
4.63345	31.8218
4.62932	32.0993
4.62519	32.3544
4.62106	32.6159
4.61695	32.9434
4.61284	33.2689
4.60874	33.5445
4.60465	33.8463
4.60056	34.1551
4.59648	34.4477
4.59241	34.7059
4.58835	34.9451
4.58429	35.2531
4.58024	35.6179
4.5762	35.9291
4.57216	36.1812
4.56814	36.4558
4.56411	36.755
4.5601	37.0979
4.55609	37.5232
4.55209	37.9168
4.5481	38.2822
4.54411	38.5536
4.54013	38.8311
4.53616	39.1017
4.5322	39.4253
4.52824	39.7722
4.52429	40.0889
4.52034	40.4293
4.51641	40.8047
4.51247	41.1772
4.50855	41.4965
4.50463	41.8147
4.50072	42.1103
4.49682	42.4434
4.49292	42.7904
4.48903	43.0874
4.48515	43.4446
4.48127	43.864
4.4774	44.1583
4.47354	44.4044
4.46968	44.7875
4.46584	45.1569
4.46199	45.4489
4.45815	45.7561
4.45432	46.0809
4.4505	46.3921
4.44668	46.6683
4.44287	46.9581
4.43907	47.3042
4.43527	47.5782
4.43148	47.8343
4.4277	48.0793
4.42392	48.3357
4.42015	48.6849
4.41638	49.0662
4.41262	49.4087
4.40887	49.6876
4.40513	49.9267
4.40139	50.248
4.39765	50.5686
4.39393	50.8834
4.39021	51.1665
4.38649	51.4095
4.38278	51.6972
4.37908	52.0642
4.37539	52.4131
4.3717	52.7807
4.36801	53.13
4.36434	53.383
4.36067	53.6769
4.357	54.0507
4.35335	54.3822
4.34969	54.6629
4.34605	54.9797
4.34241	55.2997
4.33877	55.6795
4.33514	56.0546
4.33152	56.3612
4.32791	56.7247
4.3243	57.0362
4.32069	57.3005
4.3171	57.6316
4.31351	57.985
4.30992	58.2849
4.30634	58.5845
4.30277	58.8655
4.2992	59.1824
4.29564	59.4986
4.29208	59.768
4.28853	60.0513
4.28499	60.4294
4.28145	60.7653
4.27792	60.9941
4.27439	61.2682
4.27087	61.564
4.26735	61.7955
4.26384	62.1552
4.26034	62.5291
4.25684	62.751
4.25335	62.9941
4.24986	63.2822
4.24638	63.518
4.24291	63.7676
4.23944	64.0964
4.23598	64.3562
4.23252	64.6143
4.22906	64.8594
4.22562	65.0921
4.22218	65.325
4.21874	65.6101
4.21531	65.856
4.21189	66.0788
4.20847	66.3674
4.20506	66.6772
4.20165	66.8687
4.19825	67.0154
4.19485	67.2251
4.19146	67.4171
4.18807	67.6099
4.18469	67.7792
4.18132	67.9423
4.17795	68.0856
4.17458	68.2047
4.17123	68.3466
4.16787	68.5138
4.16453	68.6928
4.16118	68.8022
4.15785	68.8996
4.15451	69.0211
4.15119	69.1664
4.14787	69.2574
4.14455	69.3524
4.14124	69.4485
4.13794	69.4851
4.13464	69.6422
4.13134	69.7737
4.12805	69.8009
4.12477	69.8491
4.12149	69.9459
4.11822	70.0601
4.11495	70.1227
4.11168	70.1693
4.10843	70.2324
4.10517	70.2692
4.10192	70.3424
4.09868	70.3618
4.09545	70.3646
4.09221	70.3751
4.08899	70.4632
4.08576	70.523
4.08255	70.51
4.07933	70.5359
4.07613	70.6462
4.07292	70.7221
4.06973	70.7169
4.06654	70.7205
4.06335	70.7827
4.06017	70.8054
4.05699	70.834
4.05382	70.8993
4.05065	70.8696
4.04749	70.8595
4.04433	70.9141
4.04118	70.9113
4.03803	70.841
4.03489	70.7773
4.03175	70.7811
4.02862	70.7536
4.02549	70.7584
4.02237	70.7723
4.01925	70.734
4.01614	70.6851
4.01303	70.6819
4.00993	70.7037
4.00683	70.6301
4.00373	70.5176
4.00064	70.3936
3.99756	70.2432
3.99448	70.1933
3.9914	70.189
3.98833	70.1432
3.98527	70.0705
3.98221	70.0583
3.97915	70.0793
3.9761	70.0713
3.97305	70.1506
3.97001	70.2948
3.96697	70.4157
3.96394	70.4212
3.96091	70.5453
3.95789	70.7317
3.95487	70.8928
3.95186	71.0634
3.94885	71.1813
3.94584	71.2868
3.94284	71.4631
3.93984	71.6048
3.93685	71.6905
3.93386	71.768
3.93088	71.8648
3.9279	71.9062
3.92493	71.9552
3.92196	72.0195
3.919	72.0532
3.91604	72.1515
3.91308	72.297
3.91013	72.3535
3.90718	72.4585
3.90424	72.4919
3.9013	72.4088
3.89837	72.4921
3.89544	72.5554
3.89252	72.5909
3.8896	72.6921
3.88668	72.7488
3.88377	72.7807
3.88086	72.8556
3.87796	72.968
3.87506	72.9894
3.87217	72.9969
3.86928	73.0684
3.86639	73.1546
3.86351	73.2058
3.86064	73.2536
3.85776	73.3169
3.8549	73.3339
3.85203	73.4002
3.84917	73.5081
3.84631	73.6157
3.84346	73.686
3.84062	73.7091
3.83777	73.7376
3.83494	73.8141
3.8321	73.9501
3.82927	74.061
3.82644	74.1278
3.82362	74.1836
3.82081	74.2465
3.81799	74.3477
3.81518	74.46
3.81238	74.5725
3.80958	74.6564
3.80678	74.7541
3.80399	74.8027
3.8012	74.8689
3.79841	74.9842
3.79563	75.0754
3.79286	75.1387
3.79008	75.1488
3.78731	75.2012
3.78455	75.2851
3.78179	75.3668
3.77903	75.454
3.77628	75.5139
3.77353	75.5805
3.77079	75.5938
3.76805	75.5653
3.76531	75.5583
3.76258	75.625
3.75985	75.7048
3.75713	75.822
3.7544	75.8413
3.75169	75.8293
3.74898	75.8288
3.74627	75.8657
3.74356	75.9856
3.74086	76.0049
3.73816	76.0145
3.73547	76.0752
3.73278	76.1055
3.7301	76.0967
3.72741	76.0856
3.72474	76.0957
3.72206	76.2017
3.71939	76.258
3.71673	76.2898
3.71406	76.2927
3.71141	76.2766
3.70875	76.2882
3.7061	76.3093
3.70345	76.293
3.70081	76.3309
3.69817	76.3907
3.69553	76.417
3.6929	76.3845
3.69027	76.3525
3.68765	76.3546
3.68503	76.4516
3.68241	76.4518
3.6798	76.4498
3.67719	76.4825
3.67458	76.4175
3.67198	76.4216
3.66938	76.4596
3.66678	76.4637
3.66419	76.4464
3.66161	76.5119
3.65902	76.5251
3.65644	76.4668
3.65387	76.4757
3.65129	76.5354
3.64872	76.5278
3.64616	76.4948
3.64359	76.5422
3.64103	76.5734
3.63848	76.5693
3.63593	76.5178
3.63338	76.4503
3.63084	76.4115
3.6283	76.4047
3.62576	76.4572
3.62322	76.4198
3.62069	76.3637
3.61817	76.4032
3.61564	76.413
3.61312	76.3206
3.61061	76.2105
3.6081	76.2126
3.60559	76.2503
3.60308	76.2406
3.60058	76.1989
3.59808	76.1511
3.59558	76.1191
3.59309	76.1198
3.59061	76.0689
3.58812	76.0051
3.58564	75.9303
3.58316	75.8814
3.58069	75.8223
3.57822	75.7657
3.57575	75.6885
3.57328	75.6119
3.57082	75.5783
3.56836	75.5444
3.56591	75.5091
3.56346	75.5116
3.56101	75.5279
3.55857	75.4341
3.55613	75.3251
3.55369	75.1711
3.55126	75.0757
3.54883	75.0396
3.5464	74.9475
3.54397	74.8835
3.54155	74.8141
3.53914	74.7089
3.53672	74.6314
3.53431	74.5742
3.5319	74.4754
3.5295	74.3587
3.5271	74.2682
3.5247	74.1123
3.52231	73.8929
3.51991	73.7273
3.51753	73.505
3.51514	73.249
3.51276	73.0413
3.51038	72.8718
3.50801	72.7066
3.50563	72.418
3.50327	72.1547
3.5009	72.0979
3.49854	72.0775
3.49618	71.9492
3.49382	71.8448
3.49147	71.7985
3.48912	71.8008
3.48677	71.7577
3.48443	71.706
3.48209	71.6051
3.47975	71.4868
3.47742	71.4004
3.47509	71.4206
3.47276	71.5
3.47044	71.6377
3.46812	71.6802
3.4658	71.731
3.46348	71.7697
3.46117	71.7673
3.45886	71.7784
3.45656	71.6993
3.45425	71.562
3.45195	71.4001
3.44966	71.3083
3.44736	71.2643
3.44507	71.1678
3.44279	71.0303
3.4405	70.9033
3.43822	70.7771
3.43594	70.6262
3.43367	70.4491
3.43139	70.301
3.42912	70.1002
3.42686	69.9282
3.42459	69.7253
3.42233	69.4913
3.42007	69.3106
3.41782	69.1618
3.41557	68.9616
3.41332	68.829
3.41108	68.8082
3.40883	68.7947
3.40659	68.8269
3.40435	68.8158
3.40212	68.8138
3.39989	68.837
3.39766	68.8931
3.39544	68.9758
3.39322	68.969
3.391	68.8443
3.38878	68.7277
3.38657	68.6483
3.38436	68.4896
3.38215	68.3305
3.37994	68.2294
3.37774	68.1641
3.37554	68.107
3.37335	68.0187
3.37115	67.9711
3.36896	67.9407
3.36678	67.9111
3.36459	67.9066
3.36241	68.0123
3.36023	68.043
3.35805	67.9694
3.35588	67.8804
3.35371	67.8378
3.35154	67.822
3.34938	67.7536
3.34721	67.7336
3.34505	67.8361
3.3429	67.8959
3.34074	67.8794
3.33859	67.8971
3.33644	67.8802
3.3343	67.8683
3.33215	67.878
3.33001	67.8297
3.32788	67.8226
3.32574	67.7708
3.32361	67.6108
3.32148	67.4898
3.31936	67.474
3.31723	67.4684
3.31511	67.4419
3.31299	67.3648
3.31088	67.2075
3.30876	67.0682
3.30665	66.917
3.30455	66.7977
3.30244	66.7848
3.30034	66.7198
3.29824	66.5814
3.29614	66.4788
3.29405	66.4551
3.29196	66.4406
3.28987	66.296
3.28778	66.1538
3.2857	66.0974
3.28362	66.0594
3.28154	65.9487
3.27946	65.7836
3.27739	65.6302
3.27532	65.5024
3.27325	65.3704
3.27119	65.2554
3.26913	65.1559
3.26707	65.0031
3.26501	64.8837
3.26295	64.7905
3.2609	64.6845
3.25885	64.6211
3.2568	64.5259
3.25476	64.3888
3.25272	64.3061
3.25068	64.1706
3.24864	64.0435
3.24661	63.9072
3.24458	63.7754
3.24255	63.7094
3.24052	63.5845
3.2385	63.3796
3.23648	63.2659
3.23446	63.1609
3.23244	63.045
3.23043	63.0023
3.22841	62.9958
3.2264	62.8889
3.2244	62.8295
3.22239	62.7074
3.22039	62.4629
3.21839	62.2924
3.2164	62.2002
3.2144	62.0628
3.21241	61.9207
3.21042	61.7732
3.20844	61.6572
3.20645	61.6159
3.20447	61.4975
3.20249	61.3308
3.20051	61.1526
3.19854	61.0484
3.19657	60.9518
3.1946	60.8846
3.19263	60.7399
3.19067	60.5742
3.1887	60.4265
3.18674	60.2733
3.18479	60.1139
3.18283	59.9382
3.18088	59.777
3.17893	59.6723
3.17698	59.5783
3.17504	59.3905
3.17309	59.1342
3.17115	59.0248
3.16921	58.9206
3.16728	58.7577
3.16534	58.6066
3.16341	58.4592
3.16148	58.3024
3.15956	58.1274
3.15763	58.0102
3.15571	57.9611
3.15379	57.7796
3.15187	57.5474
3.14996	57.4305
3.14805	57.2728
3.14614	57.1267
3.14423	57.0045
3.14232	56.8481
3.14042	56.6842
3.13852	56.5138
3.13662	56.4193
3.13472	56.3644
3.13283	56.1882
3.13094	55.9614
3.12905	55.8249
3.12716	55.7438
3.12528	55.6624
3.12339	55.4909
3.12151	55.3121
3.11964	55.1487
3.11776	54.9864
3.11589	54.9168
3.11401	54.8131
3.11214	54.6141
3.11028	54.4417
3.10841	54.3609
3.10655	54.2965
3.10469	54.1835
3.10283	54.071
3.10098	53.9748
3.09912	53.9019
3.09727	53.779
3.09542	53.5947
3.09358	53.4963
3.09173	53.4298
3.08989	53.3103
3.08805	53.1302
3.08621	53.0524
3.08437	53.019
3.08254	52.8973
3.08071	52.7974
3.07888	52.6253
3.07705	52.4564
3.07523	52.3508
3.0734	52.2863
3.07158	52.2801
3.06977	52.2549
3.06795	52.1762
3.06613	52.0701
3.06432	51.9495
3.06251	51.9041
3.0607	51.8699
3.0589	51.7526
3.0571	51.6595
3.05529	51.52
3.05349	51.4349
3.0517	51.4606
3.0499	51.4015
3.04811	51.2479
3.04632	51.1225
3.04453	51.0563
3.04274	51.0372
3.04096	51.0077
3.03918	50.8704
3.0374	50.7874
3.03562	50.749
3.03384	50.6616
3.03207	50.4673
3.03029	50.4591
3.02852	50.4606
3.02676	50.3219
3.02499	50.2171
3.02323	50.1873
3.02146	50.1236
3.0197	49.9866
3.01795	49.8793
3.01619	49.7865
3.01444	49.7172
3.01269	49.6707
3.01094	49.5794
3.00919	49.4443
3.00744	49.322
3.0057	49.1929
3.00396	49.1946
3.00222	49.2099
3.00048	49.0672
2.99875	49.0477
2.99701	48.9872
2.99528	48.8395
2.99355	48.8208
2.99183	48.7423
2.9901	48.5781
2.98838	48.4463
2.98666	48.3107
2.98494	48.245
2.98322	48.2271
2.9815	48.2388
2.97979	48.1027
2.97808	47.9073
2.97637	47.8791
2.97466	47.9642
2.97295	47.8617
2.97125	47.6376
2.96955	47.5395
2.96785	47.5629
2.96615	47.7082
2.96446	47.7383
2.96276	47.6741
2.96107	47.5476
2.95938	47.3221
2.95769	47.1642
2.95601	47.2776
2.95432	47.2457
2.95264	47.1326
2.95096	47.0742
2.94928	47.0272
2.9476	47.0608
2.94593	47.0878
2.94425	47.0187
2.94258	46.9595
2.94092	47.0172
2.93925	46.921
2.93758	46.7694
2.93592	46.7432
2.93426	46.754
2.9326	46.7728
2.93094	46.7121
2.92928	46.6627
2.92763	46.7149
2.92598	46.6836
2.92433	46.6611
2.92268	46.765
2.92103	46.7945
2.91939	46.7397
2.91775	46.7305
2.9161	46.6888
2.91447	46.5442
2.91283	46.6032
2.91119	46.7884
2.90956	46.6939
2.90793	46.6692
2.9063	46.7292
2.90467	46.773
2.90304	46.7399
2.90142	46.7088
2.89979	46.7051
2.89817	46.6984
2.89656	46.7267
2.89494	46.751
2.89332	46.784
2.89171	46.7829
2.8901	46.8709
2.88849	46.9664
2.88688	46.9304
2.88527	46.9087
2.88367	46.9401
2.88206	46.8996
2.88046	47.0337
2.87886	47.0703
2.87727	47.0088
2.87567	47.0668
2.87408	47.1778
2.87248	47.1848
2.87089	47.1
2.8693	47.0736
2.86772	47.151
2.86613	47.2424
2.86455	47.2982
2.86297	47.2648
2.86139	47.3401
2.85981	47.3167
2.85823	47.2825
2.85666	47.2265
2.85508	47.139
2.85351	47.1997
2.85194	47.2703
2.85038	47.2932
2.84881	47.3339
2.84724	47.2825
2.84568	47.1053
2.84412	47.1031
2.84256	47.2277
2.841	47.2859
2.83945	47.2847
2.83789	47.3766
2.83634	47.49
2.83479	47.4846
2.83324	47.31
2.83169	47.2003
2.83015	47.255
2.82861	47.3325
2.82706	47.3465
2.82552	47.3017
2.82398	47.3296
2.82245	47.389
2.82091	47.4141
2.81938	47.3393
2.81784	47.3009
2.81631	47.3207
2.81479	47.2957
2.81326	47.2497
2.81173	47.1663
2.81021	47.1157
2.80869	47.1522
2.80716	47.1076
2.80565	47.0017
2.80413	46.9677
2.80261	46.8954
2.8011	46.7369
2.79959	46.6415
2.79808	46.4443
2.79657	46.1774
2.79506	45.9346
2.79355	45.7206
2.79205	45.374
2.79055	45.0652
2.78904	44.8649
2.78754	44.6678
2.78605	44.1638
2.78455	43.5025
2.78306	43.0944
2.78156	42.8393
2.78007	42.3548
2.77858	41.786
2.77709	41.1991
2.77561	40.4764
2.77412	39.9853
2.77264	39.7181
2.77116	39.1834
2.76968	38.5976
2.7682	38.3023
2.76672	37.8808
2.76524	37.3405
2.76377	36.9168
2.7623	36.6059
2.76083	36.1811
2.75936	36.0142
2.75789	36.0881
2.75642	36.1618
2.75496	36.2518
2.7535	36.287
2.75203	36.5943
2.75057	36.8419
2.74912	37.0552
2.74766	37.4284
2.7462	37.5713
2.74475	37.678
2.7433	38.0962
2.74185	38.6161
2.7404	39.1013
2.73895	39.4367
2.7375	39.4926
2.73606	39.9034
2.73462	40.5244
2.73318	40.9055
2.73174	41.3455
2.7303	41.9741
2.72886	42.6221
2.72742	43.3334
2.72599	44.3489
2.72456	45.5608
2.72313	46.5481
2.7217	47.7423
2.72027	49.158
2.71884	50.1448
2.71742	51.327
2.71599	52.6579
2.71457	54.1114
2.71315	55.6612
2.71173	57.276
2.71032	58.7638
2.7089	59.8762
2.70748	60.8234
2.70607	61.8027
2.70466	62.8452
2.70325	63.9795
2.70184	65.19
2.70043	66.2176
2.69903	67.2166
2.69762	68.3749
2.69622	69.6388
2.69482	70.8159
2.69342	71.9279
2.69202	72.8103
2.69062	73.7125
2.68923	74.6061
2.68783	75.4629
2.68644	76.275
2.68505	76.9394
2.68366	77.4033
2.68227	77.7058
2.68089	78.0496
2.6795	78.5464
2.67812	78.9981
2.67673	79.4174
2.67535	79.473
2.67397	79.5077
2.6726	79.7994
2.67122	80.4559
2.66984	80.6847
2.66847	80.4799
2.6671	80.8414
2.66572	81.1125
2.66435	81.09
2.66299	80.8895
2.66162	80.9153
2.66025	80.9761
2.65889	81.0288
2.65753	81.0956
2.65616	81.2593
2.65481	81.2102
2.65345	81.3622
2.65209	81.6504
2.65073	81.5385
2.64938	81.3899
2.64803	81.469
2.64667	81.5831
2.64532	81.6539
2.64397	81.7035
2.64263	81.8765
2.64128	81.856
2.63994	81.8004
2.63859	81.9105
2.63725	81.9091
2.63591	81.7788
2.63457	81.9837
2.63323	82.1054
2.6319	82.1801
2.63056	82.4802
2.62923	82.3314
2.62789	82.2399
2.62656	82.4065
2.62523	82.1666
2.6239	82.0622
2.62258	82.0706
2.62125	82.3705
2.61993	82.5115
2.6186	82.3322
2.61728	82.5821
2.61596	82.5546
2.61464	82.2698
2.61332	82.1878
2.61201	82.1724
2.61069	82.3565
2.60938	82.4991
2.60807	82.4099
2.60675	82.4806
2.60544	82.5915
2.60414	82.5225
2.60283	82.5856
2.60152	82.521
2.60022	82.3875
2.59891	82.4814
2.59761	82.7516
2.59631	83.0582
2.59501	83.5035
2.59371	83.2157
2.59242	82.689
2.59112	82.6122
2.58983	82.7015
2.58853	82.7573
2.58724	82.8739
2.58595	82.8415
2.58466	82.9848
2.58338	82.9546
2.58209	82.8312
2.5808	82.8463
2.57952	82.692
2.57824	82.7852
2.57695	82.9192
2.57567	82.914
2.5744	83.0654
2.57312	83.0712
2.57184	82.8403
2.57057	82.9265
2.56929	82.9948
2.56802	82.7815
2.56675	82.7035
2.56548	82.9377
2.56421	83.1712
2.56294	83.2757
2.56168	83.253
2.56041	83.0572
2.55915	82.9532
2.55789	82.9433
2.55662	82.8645
2.55536	82.9111
2.5541	82.9562
2.55285	83.0014
2.55159	83.0911
2.55034	83.1657
2.54908	83.0835
2.54783	83.0975
2.54658	83.0152
2.54533	82.9859
2.54408	83.0236
2.54283	83.0634
2.54159	82.9597
2.54034	82.9217
2.5391	82.9492
2.53785	82.9773
2.53661	83.1063
2.53537	83.1001
2.53413	83.0083
2.53289	82.9672
2.53166	82.9327
2.53042	82.9792
2.52919	82.9751
2.52795	82.9601
2.52672	82.9668
2.52549	82.9362
2.52426	83.0114
2.52303	83.061
2.52181	82.9536
2.52058	82.9288
2.51936	82.941
2.51813	82.9099
2.51691	82.965
2.51569	83.0118
2.51447	82.8465
2.51325	82.7789
2.51203	82.8574
2.51082	82.8847
2.5096	82.9121
2.50839	82.9661
2.50717	82.9689
2.50596	82.9624
2.50475	82.9856
2.50354	83.017
2.50233	82.8185
2.50113	82.6424
2.49992	82.7125
2.49872	82.7859
2.49751	82.8388
2.49631	82.8589
2.49511	82.8608
2.49391	82.8584
2.49271	82.9289
2.49151	82.8962
2.49031	82.8217
2.48912	82.7243
2.48792	82.736
2.48673	82.7649
2.48554	82.6892
2.48435	82.7305
2.48316	82.7794
2.48197	82.8264
2.48078	82.9246
2.4796	82.8668
2.47841	82.6917
2.47723	82.7278
2.47604	82.8432
2.47486	82.9078
2.47368	82.9431
2.4725	83.013
2.47132	82.9498
2.47014	82.9108
2.46897	82.9085
2.46779	82.846
2.46662	82.7796
2.46545	82.739
2.46427	82.7456
2.4631	82.672
2.46193	82.6902
2.46077	82.7072
2.4596	82.6959
2.45843	82.7456
2.45727	82.8286
2.4561	82.8912
2.45494	82.8616
2.45378	82.7224
2.45262	82.6945
2.45146	82.7262
2.4503	82.6752
2.44914	82.6275
2.44799	82.625
2.44683	82.5523
2.44568	82.6604
2.44452	82.7869
2.44337	82.784
2.44222	82.6476
2.44107	82.6014
2.43992	82.7632
2.43877	82.7465
2.43763	82.5118
2.43648	82.4895
2.43534	82.6209
2.43419	82.6071
2.43305	82.5902
2.43191	82.709
2.43077	82.8275
2.42963	82.7997
2.42849	82.7949
2.42736	82.9192
2.42622	82.9777
2.42509	83.0129
2.42395	83.092
2.42282	83.1067
2.42169	83.1076
2.42056	83.1344
2.41943	83.0456
2.4183	83.0701
2.41717	83.3639
2.41605	83.4046
2.41492	83.2608
2.4138	83.3082
2.41267	83.4262
2.41155	83.4001
2.41043	83.4425
2.40931	83.5164
2.40819	83.5774
2.40707	83.5107
2.40595	83.5953
2.40484	83.6276
2.40372	83.6622
2.40261	83.7331
2.4015	83.7018
2.40039	83.7404
2.39928	83.7353
2.39817	83.7221
2.39706	83.7194
2.39595	83.8044
2.39484	83.8373
2.39374	83.6539
2.39263	83.6274
2.39153	83.7134
2.39043	83.7577
2.38932	83.8401
2.38822	83.7729
2.38712	83.6782
2.38603	83.67
2.38493	83.7511
2.38383	83.8428
2.38274	83.8569
2.38164	83.8536
2.38055	83.8089
2.37946	83.7734
2.37836	83.7411
2.37727	83.8409
2.37618	83.8975
2.3751	83.8461
2.37401	83.8494
2.37292	83.7459
2.37184	83.6944
2.37075	83.7332
2.36967	83.7661
2.36859	83.7167
2.3675	83.7511
2.36642	83.8377
2.36534	83.8528
2.36427	83.819
2.36319	83.7459
2.36211	83.7514
2.36104	83.8259
2.35996	83.7997
2.35889	83.6703
2.35781	83.6876
2.35674	83.7455
2.35567	83.683
2.3546	83.5226
2.35353	83.484
2.35247	83.6815
2.3514	83.7331
2.35033	83.5603
2.34927	83.5055
2.3482	83.5457
2.34714	83.6259
2.34608	83.6464
2.34502	83.631
2.34396	83.6238
2.3429	83.6232
2.34184	83.6464
2.34078	83.6976
2.33973	83.778
2.33867	83.8339
2.33762	83.7781
2.33656	83.6296
2.33551	83.6235
2.33446	83.7374
2.33341	83.8207
2.33236	83.7227
2.33131	83.7811
2.33026	83.9865
2.32922	84.0338
2.32817	84.0482
2.32712	84.1447
2.32608	84.1584
2.32504	84.2432
2.324	84.2675
2.32295	84.2425
2.32191	84.2955
2.32087	84.3316
2.31984	84.3301
2.3188	84.4959
2.31776	84.5205
2.31673	84.4055
2.31569	84.4599
2.31466	84.483
2.31362	84.3742
2.31259	84.4097
2.31156	84.6269
2.31053	84.725
2.3095	84.6942
2.30847	84.5751
2.30745	84.5566
2.30642	84.7173
2.3054	84.6915
2.30437	84.6935
2.30335	84.8034
2.30232	84.8474
2.3013	84.8245
2.30028	84.8827
2.29926	85.0111
2.29824	85.0677
2.29722	85.0281
2.29621	84.8346
2.29519	84.7787
2.29417	84.8627
2.29316	84.8222
2.29215	84.7953
2.29113	84.827
2.29012	84.9221
2.28911	85.0404
2.2881	85.0431
2.28709	84.9873
2.28608	85.009
2.28507	85.1189
2.28407	85.2389
2.28306	85.1675
2.28206	85.1423
2.28105	85.0753
2.28005	84.9676
2.27905	84.9209
2.27805	84.8934
2.27705	84.8143
2.27605	84.8418
2.27505	84.973
2.27405	85.0694
2.27305	85.0559
2.27206	85.02
2.27106	84.9785
2.27007	85.0201
2.26907	85.0329
2.26808	85.0428
2.26709	85.0196
2.2661	85.0103
2.26511	85.0369
2.26412	85.0136
2.26313	84.9402
2.26214	84.8758
2.26116	84.9051
2.26017	84.9772
2.25919	85.0018
2.2582	84.9066
2.25722	84.9257
2.25624	84.8663
2.25526	84.8379
2.25428	84.8856
2.2533	84.887
2.25232	84.9108
2.25134	84.8134
2.25036	84.6946
2.24939	84.8184
2.24841	84.9177
2.24744	84.8589
2.24646	84.8298
2.24549	84.8017
2.24452	84.8437
2.24355	84.8888
2.24257	84.7985
2.24161	84.825
2.24064	84.7551
2.23967	84.7612
2.2387	84.8742
2.23774	84.8619
2.23677	84.7893
2.23581	84.7996
2.23484	84.7929
2.23388	84.7477
2.23292	84.725
2.23196	84.6819
2.231	84.7185
2.23004	84.6836
2.22908	84.606
2.22812	84.5736
2.22716	84.4772
2.22621	84.4403
2.22525	84.4728
2.2243	84.4011
2.22334	84.3261
2.22239	84.303
2.22144	84.3575
2.22049	84.3176
2.21953	84.2581
2.21859	84.1263
2.21764	83.997
2.21669	84.0861
2.21574	84.1916
2.21479	84.1724
2.21385	84.0651
2.2129	83.8843
2.21196	83.7398
2.21102	83.7888
2.21007	83.9062
2.20913	83.7437
2.20819	83.4987
2.20725	83.4235
2.20631	83.2983
2.20537	83.3122
2.20444	83.3093
2.2035	83.2888
2.20256	83.3207
2.20163	83.3417
2.20069	83.152
2.19976	83.0913
2.19883	83.1869
2.19789	83.0682
2.19696	82.9995
2.19603	83.0456
2.1951	83.1515
2.19417	83.3395
2.19325	83.2963
2.19232	83.3058
2.19139	83.3773
2.19047	83.2866
2.18954	83.3158
2.18862	83.3952
2.18769	83.5208
2.18677	83.6826
2.18585	83.9373
2.18493	84.0521
2.18401	84.1453
2.18309	84.194
2.18217	84.2098
2.18125	84.3028
2.18033	84.294
2.17942	84.2837
2.1785	84.3711
2.17759	84.4765
2.17667	84.4248
2.17576	84.4416
2.17485	84.7657
2.17393	84.9103
2.17302	84.7277
2.17211	84.5978
2.1712	84.9092
2.17029	85.0311
2.16939	84.9336
2.16848	84.8948
2.16757	84.9584
2.16667	84.9829
2.16576	85.0287
2.16486	85.128
2.16395	85.0773
2.16305	84.8776
2.16215	85.02
2.16125	85.208
2.16035	85.06
2.15945	85.1017
2.15855	85.2899
2.15765	85.4276
2.15675	85.4123
2.15586	85.4051
2.15496	85.3336
2.15406	85.1776
2.15317	85.373
2.15228	85.3352
2.15138	85.2421
2.15049	85.4073
2.1496	85.3997
2.14871	85.3331
2.14782	85.4113
2.14693	85.3966
2.14604	85.4279
2.14515	85.4411
2.14427	85.3363
2.14338	85.2942
2.14249	85.3559
2.14161	85.471
2.14072	85.4783
2.13984	85.4354
2.13896	85.511
2.13808	85.6724
2.13719	85.6654
2.13631	85.4705
2.13543	85.4144
2.13455	85.5153
2.13368	85.5308
2.1328	85.4335
2.13192	85.4483
2.13105	85.4329
2.13017	85.4962
2.1293	85.5084
2.12842	85.4565
2.12755	85.5577
2.12668	85.497
2.1258	85.4374
2.12493	85.5311
2.12406	85.4921
2.12319	85.371
2.12232	85.4284
2.12145	85.5815
2.12059	85.6974
2.11972	85.6098
2.11885	85.4456
2.11799	85.3419
2.11712	85.2478
2.11626	85.4921
2.1154	85.6722
2.11453	85.5766
2.11367	85.3431
2.11281	85.2855
2.11195	85.2776
2.11109	85.5597
2.11023	85.667
2.10937	85.5455
2.10851	85.6503
2.10766	85.507
2.1068	85.3359
2.10594	85.5283
2.10509	85.6179
2.10423	85.7006
2.10338	85.5213
2.10253	85.3867
2.10168	85.4118
2.10082	85.2962
2.09997	85.2306
2.09912	85.2308
2.09827	85.499
2.09742	85.684
2.09658	85.6032
2.09573	85.5017
2.09488	85.4188
2.09404	85.423
2.09319	85.5127
2.09235	85.3427
2.0915	85.2847
2.09066	85.4461
2.08982	85.6092
2.08897	85.5779
2.08813	85.6335
2.08729	85.5746
2.08645	85.3825
2.08561	85.3067
2.08477	85.3278
2.08394	85.2625
2.0831	85.3716
2.08226	85.5397
2.08143	85.5086
2.08059	85.5413
2.07976	85.5199
2.07892	85.4473
2.07809	85.4529
2.07726	85.6551
2.07643	85.9717
2.07559	85.9286
2.07476	85.7577
2.07393	85.4061
2.0731	85.2934
2.07228	85.6448
2.07145	85.5507
2.07062	85.2946
2.06979	85.2583
2.06897	85.4564
2.06814	85.5329
2.06732	85.6094
2.06649	85.6064
2.06567	85.5442
2.06485	85.6964
2.06403	85.7275
2.0632	85.577
2.06238	85.463
2.06156	85.3695
2.06074	85.293
2.05993	85.3402
2.05911	85.4162
2.05829	85.473
2.05747	85.7272
2.05666	85.5549
2.05584	85.2863
2.05503	85.38
2.05421	85.3367
2.0534	85.1641
2.05259	85.0872
2.05177	85.1611
2.05096	85.3167
2.05015	85.4317
2.04934	85.4578
2.04853	85.3374
2.04772	85.3193
2.04691	85.2631
2.04611	85.216
2.0453	85.3878
2.04449	85.5591
2.04369	85.4741
2.04288	85.335
2.04208	85.2868
2.04127	85.2473
2.04047	85.2253
2.03967	85.3245
2.03886	85.4562
2.03806	85.4816
2.03726	85.4101
2.03646	85.3715
2.03566	85.4421
2.03486	85.4612
2.03407	85.3054
2.03327	85.106
2.03247	85.231
2.03167	85.2202
2.03088	85.2096
2.03008	85.4668
2.02929	85.5464
2.0285	85.119
2.0277	84.9644
2.02691	85.1472
2.02612	85.4125
2.02533	85.4135
2.02453	85.0965
2.02374	85.0878
2.02295	85.1849
2.02217	85.2299
2.02138	85.2121
2.02059	85.2726
2.0198	85.1278
2.01902	85.0454
2.01823	85.0371
2.01744	85.0168
2.01666	85.0783
2.01588	85.155
2.01509	85.0257
2.01431	85.1336
2.01353	85.1603
2.01275	85.0407
2.01196	85.1152
2.01118	85.0583
2.0104	85.0883
2.00963	85.3021
2.00885	85.2083
2.00807	85.1958
2.00729	85.1815
2.00651	85.0145
2.00574	84.9771
2.00496	84.9845
2.00419	85.0326
2.00341	85.1365
2.00264	85.0662
2.00187	85.1089
2.00109	85.1028
2.00032	84.8838
