Name: Labradorite (Feldspar) (NaSi,CaAl)AlSi_2O_8
Type: Mineral
Class: Silicates
Subclass: Tectosilicates
Particle Size: 0-45um
Sample No.: TS-2B
Owner: JPL
Wavelength range: IR
Origin: Canada, Quebec, Lake St. John
Collected by Ward's
Description:   





Measurement: Hemispherical reflectance
First Column: X
Second Column: Y
X Units:  Wavelength (micrometers)
Y Units:  Reflectance (percent)
First X Value: 15.3853
Last X Value: 2.00032
Number of X Values: 2256
Additional information: ts02ba.txt
 
15.3853	3.6472
15.3397	3.64869
15.2945	3.0607
15.2495	2.74626
15.2048	2.76513
15.1603	2.69839
15.1161	2.61811
15.0722	2.37162
15.0285	2.42304
14.9851	2.57697
14.9419	2.36928
14.8989	2.3392
14.8563	2.5353
14.8138	2.63946
14.7716	2.65674
14.7296	2.60495
14.6879	2.70225
14.6464	2.84156
14.6052	2.83257
14.5641	2.81413
14.5233	2.67101
14.4828	2.55951
14.4424	2.74379
14.4023	2.92134
14.3624	2.91945
14.3227	2.74552
14.2833	2.81514
14.244	2.96814
14.205	3.0356
14.1662	3.20588
14.1276	3.22635
14.0892	3.11246
14.051	2.92442
14.0131	2.93956
13.9753	3.1897
13.9377	3.26571
13.9004	3.20614
13.8632	3.18854
13.8262	3.13108
13.7895	3.02301
13.7529	3.09946
13.7165	3.09888
13.6803	3.03648
13.6443	3.03044
13.6085	3.14978
13.5729	3.09341
13.5374	2.97049
13.5022	3.2603
13.4671	3.38631
13.4322	3.31374
13.3975	3.24964
13.363	3.19075
13.3286	3.14817
13.2944	3.04852
13.2604	2.94123
13.2266	2.89732
13.193	2.97061
13.1595	2.99875
13.1262	3.07014
13.093	2.95915
13.06	3.00779
13.0272	3.18787
12.9946	3.14649
12.9621	3.06042
12.9298	3.05149
12.8976	3.31764
12.8656	3.39513
12.8337	3.21151
12.8021	3.24578
12.7705	3.50077
12.7391	3.53484
12.7079	3.53265
12.6769	3.67465
12.6459	3.91893
12.6152	4.16847
12.5845	4.40375
12.5541	4.60417
12.5238	4.79598
12.4936	5.25705
12.4635	5.75734
12.4337	6.22947
12.4039	6.69308
12.3743	7.34495
12.3448	8.11604
12.3155	8.61641
12.2863	9.10298
12.2573	9.65414
12.2284	10.2818
12.1996	10.8602
12.171	11.2544
12.1425	11.4513
12.1141	11.5625
12.0859	11.6076
12.0578	11.7668
12.0298	11.7328
12.0019	11.6363
11.9742	11.5779
11.9466	11.3477
11.9192	11.2468
11.8918	11.1824
11.8646	10.9124
11.8375	10.7628
11.8106	10.61
11.7837	10.5018
11.757	10.3585
11.7304	10.0474
11.7039	9.96996
11.6776	10.0546
11.6513	9.94507
11.6252	9.77054
11.5992	9.81311
11.5733	9.7471
11.5475	9.67725
11.5219	9.65714
11.4963	9.48298
11.4709	9.32341
11.4455	9.1602
11.4203	9.06131
11.3952	8.87058
11.3702	8.66011
11.3454	8.42786
11.3206	8.23528
11.2959	8.09394
11.2714	7.72188
11.2469	7.35973
11.2226	7.20794
11.1983	7.01234
11.1742	6.81059
11.1502	6.58732
11.1263	6.37435
11.1024	6.29204
11.0787	6.09692
11.0551	5.96316
11.0316	5.95148
11.0081	5.97201
10.9848	6.00687
10.9616	6.12798
10.9385	6.21392
10.9154	6.20383
10.8925	6.03948
10.8697	5.9244
10.8469	5.87004
10.8243	5.96824
10.8017	6.08899
10.7793	6.09789
10.7569	6.06311
10.7346	6.05415
10.7125	5.96871
10.6904	6.013
10.6684	6.13069
10.6465	6.1274
10.6247	6.08842
10.6029	6.13791
10.5813	6.08779
10.5597	5.94881
10.5383	5.92593
10.5169	6.00854
10.4956	5.97537
10.4744	5.9297
10.4533	5.93587
10.4323	5.87405
10.4113	5.87379
10.3904	5.93819
10.3697	5.96475
10.349	5.83378
10.3284	5.69361
10.3078	5.60539
10.2874	5.51404
10.267	5.5859
10.2467	5.73396
10.2265	5.78876
10.2064	5.79861
10.1863	5.76455
10.1663	5.74871
10.1464	5.75737
10.1266	5.82157
10.1069	5.83172
10.0872	5.80405
10.0676	5.9091
10.0481	6.1259
10.0287	6.1705
10.0093	6.08969
9.99005	5.97465
9.97084	6.0193
9.95169	6.0523
9.93263	5.95094
9.91364	5.9794
9.89472	6.07639
9.87587	6.006
9.8571	5.92172
9.83839	5.90022
9.81976	5.80847
9.80119	5.66603
9.78271	5.51244
9.76428	5.46995
9.74592	5.55701
9.72764	5.55822
9.70943	5.42661
9.69128	5.41258
9.6732	5.44798
9.65518	5.36772
9.63724	5.32587
9.61935	5.30674
9.60155	5.21295
9.5838	5.1567
9.56611	5.05631
9.5485	4.84581
9.53094	4.73119
9.51345	4.67731
9.49604	4.6523
9.47867	4.64564
9.46137	4.52325
9.44414	4.46055
9.42697	4.29354
9.40986	4.1339
9.39281	4.13549
9.37583	4.00751
9.35891	3.89963
9.34204	3.89594
9.32524	3.83048
9.3085	3.76401
9.29182	3.70567
9.27519	3.76972
9.25863	3.76878
9.24213	3.62492
9.22568	3.63617
9.2093	3.74241
9.19297	3.91846
9.17669	3.98023
9.16048	3.84309
9.14433	3.79495
9.12823	3.8929
9.11218	4.06476
9.0962	4.19042
9.08027	4.31504
9.06439	4.32444
9.04858	4.37615
9.03281	4.57294
9.0171	4.60427
9.00145	4.64264
8.98585	4.79006
8.9703	4.79683
8.9548	4.63459
8.93937	4.68252
8.92398	4.83404
8.90865	4.79836
8.89337	4.81249
8.87814	4.79122
8.86296	4.95447
8.84784	5.04727
8.83277	5.08384
8.81774	5.06021
8.80277	5.12452
8.78786	5.24083
8.77298	5.35779
8.75816	5.43479
8.7434	5.39254
8.72868	5.3782
8.714	5.24203
8.69938	5.14833
8.68481	5.21134
8.67029	5.2261
8.65581	5.21451
8.64139	5.25085
8.62701	5.22571
8.61268	5.20688
8.5984	5.2235
8.58416	5.31607
8.56997	5.34018
8.55583	5.29053
8.54174	5.27394
8.52769	5.23853
8.51368	5.24769
8.49973	5.34084
8.48582	5.36386
8.47195	5.38505
8.45813	5.49907
8.44436	5.55113
8.43062	5.66596
8.41693	5.69849
8.4033	5.60287
8.3897	5.59834
8.37614	5.77205
8.36264	5.7644
8.34917	5.54603
8.33574	5.43613
8.32236	5.29258
8.30903	5.17715
8.29573	5.05448
8.28248	4.86075
8.26927	4.61704
8.2561	4.3814
8.24298	4.11271
8.2299	3.8606
8.21685	3.61301
8.20385	3.35573
8.19089	3.45478
8.17797	3.30727
8.16509	2.99176
8.15225	2.86254
8.13946	2.79617
8.1267	2.7555
8.11398	2.60229
8.10131	2.48853
8.08867	2.41532
8.07606	2.45524
8.0635	2.43015
8.05099	2.33425
8.0385	2.29474
8.02606	2.26375
8.01366	2.29763
8.00129	2.31831
7.98896	2.25518
7.97667	2.22071
7.96442	2.34125
7.9522	2.39507
7.94002	2.41083
7.92788	2.45377
7.91578	2.51656
7.90371	2.55572
7.89168	2.6012
7.87969	2.74892
7.86773	2.81632
7.85581	2.80866
7.84392	2.8929
7.83207	2.94755
7.82026	2.98837
7.80849	3.14957
7.79674	3.30148
7.78503	3.40171
7.77337	3.43392
7.76173	3.51968
7.75012	3.62508
7.73856	3.69178
7.72703	3.79243
7.71553	3.9391
7.70406	4.10183
7.69263	4.20145
7.68123	4.19121
7.66987	4.26316
7.65855	4.50971
7.64725	4.67711
7.63598	4.65752
7.62475	4.75191
7.61356	4.90735
7.60239	5.09472
7.59126	5.23645
7.58017	5.35092
7.5691	5.45704
7.55806	5.63907
7.54707	5.71107
7.5361	5.75916
7.52516	5.90328
7.51425	6.0741
7.50338	6.23519
7.49253	6.39924
7.48172	6.45519
7.47094	6.63083
7.46019	6.86183
7.44947	6.92545
7.43879	7.01891
7.42813	7.08879
7.4175	7.1507
7.4069	7.36196
7.39634	7.54035
7.3858	7.62922
7.37529	7.79117
7.36482	7.97345
7.35437	8.0847
7.34396	8.16393
7.33357	8.26913
7.32321	8.33927
7.31288	8.4494
7.30258	8.57599
7.29231	8.63657
7.28207	8.67892
7.27185	8.75414
7.26167	8.81397
7.25152	8.91663
7.24139	9.07136
7.23129	9.23518
7.22122	9.35211
7.21117	9.44323
7.20116	9.54741
7.19117	9.54993
7.18121	9.57439
7.17128	9.76071
7.16137	9.89916
7.1515	9.92027
7.14164	9.85068
7.13182	9.87036
7.12203	9.94396
7.11225	10.0706
7.10251	10.1657
7.0928	10.2908
7.08311	10.3594
7.07344	10.3529
7.06381	10.4467
7.0542	10.7115
7.04461	10.7948
7.03506	10.6279
7.02552	10.6328
7.01601	10.6918
7.00653	10.7037
6.99708	10.7801
6.98765	10.8291
6.97824	10.8163
6.96886	10.881
6.95951	11.0979
6.95018	11.056
6.94087	11.0646
6.9316	11.1769
6.92234	11.2422
6.91311	11.2824
6.90391	11.3656
6.89473	11.3905
6.88557	11.4051
6.87644	11.5614
6.86733	11.9156
6.85824	11.9356
6.84918	11.7758
6.84015	11.8354
6.83114	12.0381
6.82215	12.1097
6.81319	12.0619
6.80424	12.1401
6.79532	12.4384
6.78643	12.675
6.77756	12.6272
6.76871	12.523
6.75989	12.5586
6.75109	12.7149
6.74231	12.8369
6.73355	12.938
6.72482	13.0491
6.71611	13.237
6.70742	13.345
6.69875	13.293
6.69011	13.5063
6.68149	13.7929
6.67289	13.8427
6.66431	13.8405
6.65576	13.8517
6.64722	14.1859
6.63871	14.7464
6.63022	14.7492
6.62175	14.5404
6.61331	14.5444
6.60488	14.6591
6.59648	14.953
6.5881	15.0861
6.57974	15.2885
6.5714	15.5753
6.56308	15.5149
6.55478	15.5766
6.54651	15.616
6.53825	15.6075
6.53001	15.7864
6.5218	16.0451
6.51361	16.0227
6.50544	16.1341
6.49729	16.6349
6.48915	16.798
6.48104	16.5879
6.47295	16.4601
6.46488	16.3833
6.45683	16.3876
6.4488	16.5053
6.44079	16.6187
6.4328	16.7294
6.42482	16.9584
6.41687	17.5653
6.40894	17.4623
6.40103	16.7913
6.39314	16.5952
6.38526	16.616
6.37741	16.6915
6.36957	16.868
6.36176	16.7704
6.35396	16.7424
6.34618	16.9807
6.33843	16.7317
6.33069	16.3596
6.32297	16.4597
6.31527	16.5298
6.30758	16.6207
6.29992	16.6046
6.29227	16.6099
6.28465	16.6378
6.27704	16.6582
6.26945	16.6767
6.26188	16.6374
6.25432	16.6466
6.24679	16.7076
6.23927	16.7137
6.23177	16.7005
6.22429	16.7738
6.21683	16.8463
6.20938	16.9055
6.20195	16.9504
6.19454	17.0822
6.18715	17.3346
6.17978	17.248
6.17242	17.053
6.16508	17.1752
6.15776	17.2471
6.15045	17.2306
6.14317	17.2673
6.1359	17.1823
6.12864	17.147
6.12141	17.4215
6.11419	17.7581
6.10699	17.5741
6.0998	17.3777
6.09263	17.3816
6.08549	17.5336
6.07835	17.8715
6.07123	17.9794
6.06413	17.7784
6.05705	18.0797
6.04998	18.8151
6.04293	18.4716
6.0359	17.9633
6.02888	17.9165
6.02187	18.0445
6.01489	18.1823
6.00792	18.1633
6.00096	18.2043
5.99403	18.4827
5.98711	18.6194
5.9802	18.5708
5.97331	18.7341
5.96644	18.8285
5.95958	18.7103
5.95274	18.8545
5.94591	19.0575
5.9391	19.5605
5.9323	19.5458
5.92552	19.2187
5.91876	19.1914
5.91201	19.2503
5.90528	19.5116
5.89856	20.0509
5.89186	20.1377
5.88517	20.3387
5.8785	20.4498
5.87184	20.0755
5.8652	20.2216
5.85857	20.2123
5.85196	20.21
5.84536	20.2681
5.83878	20.451
5.83221	20.8233
5.82566	21.2648
5.81912	21.3363
5.81259	21.0259
5.80608	20.9558
5.79959	21.117
5.79311	21.1911
5.78665	21.2871
5.78019	21.4695
5.77376	21.7978
5.76734	22.2977
5.76093	22.1443
5.75453	21.9048
5.74815	22.085
5.74179	22.0778
5.73543	22.0492
5.7291	22.0602
5.72277	22.2192
5.71646	22.4718
5.71017	22.6352
5.70389	22.4274
5.69762	22.4172
5.69136	22.6183
5.68513	22.6502
5.6789	22.8065
5.67268	22.9129
5.66648	22.8549
5.6603	22.9992
5.65413	23.1227
5.64797	23.3423
5.64182	23.6251
5.63569	23.4524
5.62957	23.2955
5.62347	23.2709
5.61737	23.3953
5.61129	23.5326
5.60522	23.6313
5.59917	23.6814
5.59313	23.6649
5.5871	23.7261
5.58109	23.8935
5.57509	23.8985
5.5691	23.7571
5.56312	23.8023
5.55716	23.9768
5.55121	24.2452
5.54528	24.4011
5.53935	24.5712
5.53344	24.7232
5.52754	24.9054
5.52166	25.1125
5.51578	25.2001
5.50992	25.2167
5.50407	25.3738
5.49823	25.5746
5.49241	25.7331
5.4866	25.7977
5.4808	26.005
5.47501	26.1593
5.46923	26.3733
5.46347	26.5272
5.45772	26.4441
5.45198	26.4674
5.44625	26.639
5.44054	26.8359
5.43484	26.9502
5.42914	27.1629
5.42347	27.5804
5.4178	27.6672
5.41214	27.5608
5.4065	27.6229
5.40087	27.7745
5.39525	27.9539
5.38964	28.135
5.38404	28.2584
5.37846	28.2791
5.37288	28.3633
5.36732	28.5867
5.36177	28.7618
5.35623	28.9428
5.35071	29.1787
5.34519	29.2044
5.33968	29.2179
5.33419	29.2932
5.32871	29.4074
5.32324	29.5445
5.31778	29.6348
5.31233	29.7174
5.30689	29.8759
5.30147	29.9889
5.29605	30.0851
5.29065	30.1901
5.28525	30.2881
5.27987	30.4382
5.2745	30.5952
5.26914	30.6796
5.26379	30.7135
5.25845	30.8145
5.25312	30.9052
5.24781	31.0235
5.2425	31.1292
5.23721	31.2693
5.23192	31.3702
5.22665	31.5512
5.22138	31.8086
5.21613	32.0854
5.21089	32.1772
5.20566	32.1332
5.20044	32.309
5.19522	32.5002
5.19002	32.6703
5.18483	32.8404
5.17965	33.0265
5.17448	33.1748
5.16933	33.3799
5.16418	33.5499
5.15904	33.6747
5.15391	33.8724
5.14879	34.1343
5.14368	34.333
5.13859	34.4878
5.1335	34.6168
5.12842	34.8214
5.12335	35.0605
5.1183	35.2249
5.11325	35.4272
5.10821	35.5827
5.10318	35.7582
5.09817	35.9785
5.09316	36.1631
5.08816	36.4039
5.08317	36.6909
5.07819	36.8355
5.07322	36.9235
5.06826	37.1117
5.06331	37.327
5.05837	37.5336
5.05344	37.7111
5.04852	37.8671
5.04361	38.0964
5.03871	38.2432
5.03382	38.4071
5.02894	38.5485
5.02406	38.7642
5.0192	38.9878
5.01435	39.0963
5.0095	39.2853
5.00467	39.4283
4.99984	39.5214
4.99502	39.6479
4.99021	39.7292
4.98542	39.8186
4.98063	39.9466
4.97585	40.0995
4.97108	40.2097
4.96632	40.3004
4.96156	40.3887
4.95682	40.4706
4.95209	40.5655
4.94736	40.7191
4.94264	40.8461
4.93794	40.9007
4.93324	40.9413
4.92855	41.0302
4.92387	41.1093
4.9192	41.1764
4.91453	41.2376
4.90988	41.2839
4.90524	41.3944
4.9006	41.5386
4.89597	41.5967
4.89135	41.6962
4.88674	41.8027
4.88214	41.91
4.87755	41.9189
4.87296	41.9485
4.86839	42.0463
4.86382	42.143
4.85926	42.1508
4.85471	42.209
4.85017	42.2922
4.84564	42.3413
4.84111	42.3952
4.8366	42.5003
4.83209	42.6178
4.82759	42.6215
4.8231	42.6807
4.81862	42.7791
4.81415	42.8592
4.80968	42.9068
4.80522	42.9633
4.80077	43.034
4.79633	43.0311
4.7919	43.1451
4.78747	43.2665
4.78306	43.3299
4.77865	43.3552
4.77425	43.4304
4.76986	43.4973
4.76547	43.6085
4.7611	43.7413
4.75673	43.8534
4.75237	43.8983
4.74802	43.8979
4.74367	43.9255
4.73934	44.0411
4.73501	44.164
4.73069	44.2183
4.72638	44.2812
4.72207	44.3844
4.71777	44.4576
4.71348	44.561
4.7092	44.6508
4.70493	44.6947
4.70066	44.7524
4.69641	44.8233
4.69216	44.9492
4.68791	45.0488
4.68368	45.092
4.67945	45.213
4.67523	45.3894
4.67102	45.4291
4.66682	45.4453
4.66262	45.5503
4.65843	45.7129
4.65425	45.851
4.65007	45.9123
4.64591	46.0257
4.64175	46.1772
4.6376	46.3205
4.63345	46.4205
4.62932	46.5193
4.62519	46.6091
4.62106	46.762
4.61695	46.8661
4.61284	46.957
4.60874	47.0244
4.60465	47.1341
4.60056	47.2752
4.59648	47.4434
4.59241	47.5634
4.58835	47.7051
4.58429	47.8125
4.58024	47.8934
4.5762	47.9006
4.57216	48.0484
4.56814	48.2253
4.56411	48.2871
4.5601	48.4238
4.55609	48.5944
4.55209	48.6437
4.5481	48.7367
4.54411	48.8887
4.54013	49.0039
4.53616	49.0787
4.5322	49.163
4.52824	49.2133
4.52429	49.2601
4.52034	49.3431
4.51641	49.4016
4.51247	49.4885
4.50855	49.6327
4.50463	49.7631
4.50072	49.8818
4.49682	49.9678
4.49292	50.0462
4.48903	50.1069
4.48515	50.1491
4.48127	50.2462
4.4774	50.3552
4.47354	50.4299
4.46968	50.4681
4.46584	50.5168
4.46199	50.5873
4.45815	50.6611
4.45432	50.746
4.4505	50.7978
4.44668	50.8247
4.44287	50.8561
4.43907	50.9495
4.43527	51.1026
4.43148	51.1799
4.4277	51.2164
4.42392	51.3045
4.42015	51.3635
4.41638	51.4132
4.41262	51.4402
4.40887	51.4676
4.40513	51.5778
4.40139	51.6892
4.39765	51.7256
4.39393	51.7983
4.39021	51.8583
4.38649	51.8946
4.38278	52.0348
4.37908	52.1084
4.37539	52.1799
4.3717	52.2701
4.36801	52.291
4.36434	52.285
4.36067	52.2868
4.357	52.4356
4.35335	52.5517
4.34969	52.5446
4.34605	52.5308
4.34241	52.5906
4.33877	52.6881
4.33514	52.7202
4.33152	52.7298
4.32791	52.7506
4.3243	52.7516
4.32069	52.73
4.3171	52.6902
4.31351	52.7049
4.30992	52.7384
4.30634	52.6408
4.30277	52.5551
4.2992	52.5488
4.29564	52.4821
4.29208	52.4484
4.28853	52.4818
4.28499	52.5665
4.28145	52.5696
4.27792	52.5892
4.27439	52.6462
4.27087	52.6994
4.26735	52.7916
4.26384	52.9488
4.26034	53.2638
4.25684	53.5499
4.25335	53.445
4.24986	53.2122
4.24638	52.9742
4.24291	52.7923
4.23944	52.781
4.23598	52.7691
4.23252	52.7477
4.22906	52.8555
4.22562	53.0274
4.22218	53.1812
4.21874	53.3428
4.21531	53.5196
4.21189	53.7228
4.20847	53.9502
4.20506	54.0931
4.20165	54.2389
4.19825	54.388
4.19485	54.4399
4.19146	54.4532
4.18807	54.4776
4.18469	54.5148
4.18132	54.4856
4.17795	54.5249
4.17458	54.5386
4.17123	54.5293
4.16787	54.524
4.16453	54.4998
4.16118	54.5606
4.15785	54.6129
4.15451	54.6159
4.15119	54.6037
4.14787	54.6598
4.14455	54.7301
4.14124	54.7618
4.13794	54.7283
4.13464	54.69
4.13134	54.7067
4.12805	54.7506
4.12477	54.7817
4.12149	54.7881
4.11822	54.7888
4.11495	54.786
4.11168	54.8024
4.10843	54.7908
4.10517	54.7819
4.10192	54.8357
4.09868	54.8035
4.09545	54.8128
4.09221	54.8416
4.08899	54.8505
4.08576	54.82
4.08255	54.8245
4.07933	54.8652
4.07613	54.8379
4.07292	54.7674
4.06973	54.8107
4.06654	54.9123
4.06335	54.9002
4.06017	54.8603
4.05699	54.8641
4.05382	54.8593
4.05065	54.8656
4.04749	54.834
4.04433	54.8276
4.04118	54.8221
4.03803	54.74
4.03489	54.6648
4.03175	54.6504
4.02862	54.6715
4.02549	54.688
4.02237	54.6076
4.01925	54.51
4.01614	54.4629
4.01303	54.4474
4.00993	54.3649
4.00683	54.2858
4.00373	54.2608
4.00064	54.1211
3.99756	53.8946
3.99448	53.7004
3.9914	53.5598
3.98833	53.4017
3.98527	53.3151
3.98221	53.3498
3.97915	53.3856
3.9761	53.4194
3.97305	53.4284
3.97001	53.4245
3.96697	53.4997
3.96394	53.602
3.96091	53.7276
3.95789	53.8473
3.95487	53.9305
3.95186	53.9848
3.94885	54.1203
3.94584	54.2581
3.94284	54.3666
3.93984	54.4828
3.93685	54.5941
3.93386	54.5675
3.93088	54.5202
3.9279	54.6061
3.92493	54.6687
3.92196	54.7284
3.919	54.7481
3.91604	54.7622
3.91308	54.7849
3.91013	54.7523
3.90718	54.7886
3.90424	54.841
3.9013	54.8431
3.89837	54.82
3.89544	54.8159
3.89252	54.8407
3.8896	54.8739
3.88668	54.8683
3.88377	54.8696
3.88086	54.8765
3.87796	54.8636
3.87506	54.8212
3.87217	54.8567
3.86928	54.8661
3.86639	54.8459
3.86351	54.9501
3.86064	54.9995
3.85776	54.9946
3.8549	54.9831
3.85203	54.9148
3.84917	54.8765
3.84631	54.9255
3.84346	55.0222
3.84062	55.0267
3.83777	55.0328
3.83494	55.0748
3.8321	55.1016
3.82927	55.1362
3.82644	55.2145
3.82362	55.2273
3.82081	55.2239
3.81799	55.172
3.81518	55.1566
3.81238	55.2619
3.80958	55.3325
3.80678	55.3259
3.80399	55.3095
3.8012	55.3533
3.79841	55.3928
3.79563	55.3702
3.79286	55.3262
3.79008	55.4013
3.78731	55.4469
3.78455	55.4328
3.78179	55.4371
3.77903	55.4791
3.77628	55.5059
3.77353	55.4808
3.77079	55.426
3.76805	55.4382
3.76531	55.4427
3.76258	55.443
3.75985	55.4601
3.75713	55.4887
3.7544	55.4091
3.75169	55.4435
3.74898	55.443
3.74627	55.3746
3.74356	55.4167
3.74086	55.5079
3.73816	55.496
3.73547	55.453
3.73278	55.3977
3.7301	55.4299
3.72741	55.3975
3.72474	55.4366
3.72206	55.5198
3.71939	55.411
3.71673	55.3514
3.71406	55.3821
3.71141	55.3925
3.70875	55.3707
3.7061	55.4145
3.70345	55.4032
3.70081	55.3508
3.69817	55.3623
3.69553	55.389
3.6929	55.3853
3.69027	55.3294
3.68765	55.3667
3.68503	55.3882
3.68241	55.3307
3.6798	55.3106
3.67719	55.2429
3.67458	55.2165
3.67198	55.2067
3.66938	55.2718
3.66678	55.2967
3.66419	55.1957
3.66161	55.2287
3.65902	55.2625
3.65644	55.2392
3.65387	55.2163
3.65129	55.2363
3.64872	55.2319
3.64616	55.1746
3.64359	55.1463
3.64103	55.1899
3.63848	55.1775
3.63593	55.1695
3.63338	55.2075
3.63084	55.1776
3.6283	55.0882
3.62576	55.0975
3.62322	55.0937
3.62069	55.0803
3.61817	55.0869
3.61564	55.0825
3.61312	55.076
3.61061	54.9892
3.6081	55.0375
3.60559	55.0419
3.60308	55.0014
3.60058	55.0246
3.59808	54.9804
3.59558	54.9363
3.59309	54.9529
3.59061	54.9891
3.58812	54.9802
3.58564	54.8928
3.58316	54.8541
3.58069	54.8104
3.57822	54.7784
3.57575	54.8711
3.57328	54.8756
3.57082	54.7643
3.56836	54.7205
3.56591	54.7693
3.56346	54.8113
3.56101	54.7693
3.55857	54.6257
3.55613	54.543
3.55369	54.5727
3.55126	54.6359
3.54883	54.614
3.5464	54.6075
3.54397	54.5706
3.54155	54.5545
3.53914	54.4767
3.53672	54.4552
3.53431	54.3982
3.5319	54.3959
3.5295	54.3501
3.5271	54.1995
3.5247	54.0566
3.52231	54.0136
3.51991	54.0017
3.51753	53.9007
3.51514	53.851
3.51276	53.7977
3.51038	53.6875
3.50801	53.6453
3.50563	53.5843
3.50327	53.5204
3.5009	53.5077
3.49854	53.4826
3.49618	53.4415
3.49382	53.3739
3.49147	53.3089
3.48912	53.2396
3.48677	53.1585
3.48443	53.2046
3.48209	53.1976
3.47975	53.1625
3.47742	53.2051
3.47509	53.2224
3.47276	53.1975
3.47044	53.1711
3.46812	53.1942
3.4658	53.2193
3.46348	53.3106
3.46117	53.3682
3.45886	53.3941
3.45656	53.3512
3.45425	53.3174
3.45195	53.276
3.44966	53.2296
3.44736	53.2293
3.44507	53.2697
3.44279	53.2761
3.4405	53.2332
3.43822	53.1712
3.43594	53.1065
3.43367	53.0732
3.43139	52.9017
3.42912	52.8259
3.42686	52.9287
3.42459	52.8351
3.42233	52.6948
3.42007	52.659
3.41782	52.5633
3.41557	52.5699
3.41332	52.6363
3.41108	52.5985
3.40883	52.5234
3.40659	52.5403
3.40435	52.6095
3.40212	52.6132
3.39989	52.6074
3.39766	52.5767
3.39544	52.5437
3.39322	52.5639
3.391	52.6177
3.38878	52.6045
3.38657	52.586
3.38436	52.5955
3.38215	52.4737
3.37994	52.3994
3.37774	52.3059
3.37554	52.3533
3.37335	52.3716
3.37115	52.294
3.36896	52.2611
3.36678	52.2671
3.36459	52.2379
3.36241	52.2284
3.36023	52.219
3.35805	52.1615
3.35588	52.1853
3.35371	52.0524
3.35154	51.9308
3.34938	52.0302
3.34721	52.1443
3.34505	52.2669
3.3429	52.2557
3.34074	52.166
3.33859	52.2054
3.33644	52.2524
3.3343	52.2464
3.33215	52.2189
3.33001	52.2496
3.32788	52.2927
3.32574	52.3011
3.32361	52.291
3.32148	52.2934
3.31936	52.1772
3.31723	52.0681
3.31511	52.0638
3.31299	52.0594
3.31088	52.0416
3.30876	52.0433
3.30665	51.9682
3.30455	51.8674
3.30244	51.943
3.30034	51.9965
3.29824	51.879
3.29614	51.7889
3.29405	51.7495
3.29196	51.7442
3.28987	51.7736
3.28778	51.7202
3.2857	51.5976
3.28362	51.6295
3.28154	51.7056
3.27946	51.6906
3.27739	51.6391
3.27532	51.6122
3.27325	51.6024
3.27119	51.5144
3.26913	51.3609
3.26707	51.2954
3.26501	51.2945
3.26295	51.3376
3.2609	51.3338
3.25885	51.2293
3.2568	51.1717
3.25476	51.1876
3.25272	51.1937
3.25068	51.0702
3.24864	51.0236
3.24661	51.096
3.24458	51.0873
3.24255	50.9091
3.24052	50.8167
3.2385	50.7843
3.23648	50.6957
3.23446	50.6917
3.23244	50.753
3.23043	50.7884
3.22841	50.7539
3.2264	50.634
3.2244	50.6116
3.22239	50.6173
3.22039	50.518
3.21839	50.3285
3.2164	50.3249
3.2144	50.328
3.21241	50.2629
3.21042	50.311
3.20844	50.2786
3.20645	50.1246
3.20447	50.1537
3.20249	50.101
3.20051	49.9596
3.19854	49.9629
3.19657	49.9743
3.1946	49.8674
3.19263	49.764
3.19067	49.7915
3.1887	49.7229
3.18674	49.6226
3.18479	49.6048
3.18283	49.6271
3.18088	49.6164
3.17893	49.5457
3.17698	49.4549
3.17504	49.3773
3.17309	49.2802
3.17115	49.2446
3.16921	49.321
3.16728	49.311
3.16534	49.1824
3.16341	49.0863
3.16148	48.9965
3.15956	48.9676
3.15763	48.9892
3.15571	48.8794
3.15379	48.8073
3.15187	48.7573
3.14996	48.7353
3.14805	48.7055
3.14614	48.664
3.14423	48.5895
3.14232	48.5268
3.14042	48.4597
3.13852	48.3663
3.13662	48.2882
3.13472	48.3106
3.13283	48.2733
3.13094	48.2494
3.12905	48.1306
3.12716	48.07
3.12528	48.0698
3.12339	48.0609
3.12151	48.0533
3.11964	48.0051
3.11776	47.8651
3.11589	47.8371
3.11401	47.8159
3.11214	47.7521
3.11028	47.6756
3.10841	47.6146
3.10655	47.6356
3.10469	47.6214
3.10283	47.5152
3.10098	47.4003
3.09912	47.3598
3.09727	47.3853
3.09542	47.4066
3.09358	47.2718
3.09173	47.1711
3.08989	47.1274
3.08805	46.9935
3.08621	46.96
3.08437	46.9436
3.08254	46.9035
3.08071	46.8585
3.07888	46.8009
3.07705	46.7511
3.07523	46.685
3.0734	46.6269
3.07158	46.626
3.06977	46.6794
3.06795	46.6856
3.06613	46.667
3.06432	46.5515
3.06251	46.4945
3.0607	46.4875
3.0589	46.4226
3.0571	46.3194
3.05529	46.323
3.05349	46.3197
3.0517	46.1982
3.0499	46.076
3.04811	46.0468
3.04632	45.9975
3.04453	45.8664
3.04274	45.8179
3.04096	45.8292
3.03918	45.8289
3.0374	45.826
3.03562	45.678
3.03384	45.6431
3.03207	45.6415
3.03029	45.5271
3.02852	45.4345
3.02676	45.3896
3.02499	45.4087
3.02323	45.4223
3.02146	45.2841
3.0197	45.1526
3.01795	45.2018
3.01619	45.2251
3.01444	45.1187
3.01269	45.0044
3.01094	44.8961
3.00919	44.7575
3.00744	44.8971
3.0057	44.9956
3.00396	44.795
3.00222	44.721
3.00048	44.7767
2.99875	44.7212
2.99701	44.6138
2.99528	44.6165
2.99355	44.5779
2.99183	44.4053
2.9901	44.2588
2.98838	44.184
2.98666	44.2547
2.98494	44.2057
2.98322	44.1348
2.9815	44.1246
2.97979	43.9729
2.97808	43.8637
2.97637	43.7373
2.97466	43.691
2.97295	43.7569
2.97125	43.8222
2.96955	43.704
2.96785	43.5337
2.96615	43.4147
2.96446	43.3709
2.96276	43.4047
2.96107	43.4955
2.95938	43.3795
2.95769	43.2317
2.95601	43.1259
2.95432	43.1662
2.95264	43.2187
2.95096	43.144
2.94928	43.0573
2.9476	43.0585
2.94593	43.0936
2.94425	43.1097
2.94258	42.9964
2.94092	42.8308
2.93925	42.8423
2.93758	42.8763
2.93592	42.8341
2.93426	42.791
2.9326	42.7235
2.93094	42.7797
2.92928	42.7601
2.92763	42.6628
2.92598	42.7003
2.92433	42.8043
2.92268	42.8408
2.92103	42.6729
2.91939	42.6611
2.91775	42.7125
2.9161	42.7071
2.91447	42.752
2.91283	42.7867
2.91119	42.7039
2.90956	42.7852
2.90793	42.7884
2.9063	42.5832
2.90467	42.6668
2.90304	42.7852
2.90142	42.7499
2.89979	42.7045
2.89817	42.6411
2.89656	42.6403
2.89494	42.6526
2.89332	42.6801
2.89171	42.7144
2.8901	42.9019
2.88849	42.9782
2.88688	42.8405
2.88527	42.8326
2.88367	42.9236
2.88206	42.9571
2.88046	42.8987
2.87886	42.8426
2.87727	42.8521
2.87567	42.847
2.87408	42.71
2.87248	42.7022
2.87089	42.7646
2.8693	42.8484
2.86772	42.9764
2.86613	43.0186
2.86455	42.9006
2.86297	42.8387
2.86139	42.7637
2.85981	42.675
2.85823	42.7148
2.85666	42.845
2.85508	42.9694
2.85351	42.9396
2.85194	42.8057
2.85038	42.7483
2.84881	42.8304
2.84724	42.7489
2.84568	42.6713
2.84412	42.6204
2.84256	42.5551
2.841	42.5823
2.83945	42.7136
2.83789	42.6779
2.83634	42.6194
2.83479	42.6973
2.83324	42.6328
2.83169	42.5347
2.83015	42.4505
2.82861	42.4832
2.82706	42.5577
2.82552	42.645
2.82398	42.5053
2.82245	42.4491
2.82091	42.4661
2.81938	42.5348
2.81784	42.4864
2.81631	42.4793
2.81479	42.4256
2.81326	42.3061
2.81173	42.2727
2.81021	42.3481
2.80869	42.2804
2.80716	42.2561
2.80565	42.4033
2.80413	42.5792
2.80261	42.5193
2.8011	42.3674
2.79959	42.2642
2.79808	42.1062
2.79657	42.0402
2.79506	41.9592
2.79355	41.8381
2.79205	41.7523
2.79055	41.6308
2.78904	41.8053
2.78754	42.0019
2.78605	41.6907
2.78455	41.2754
2.78306	41.0762
2.78156	40.9682
2.78007	40.7544
2.77858	40.438
2.77709	40.211
2.77561	40.0553
2.77412	40.0236
2.77264	40.041
2.77116	39.899
2.76968	39.6647
2.7682	39.4629
2.76672	39.3126
2.76524	39.129
2.76377	39.1474
2.7623	39.1607
2.76083	38.8377
2.75936	38.6429
2.75789	38.8124
2.75642	39.3973
2.75496	39.6043
2.7535	39.2171
2.75203	39.2541
2.75057	39.4019
2.74912	39.6171
2.74766	39.9736
2.7462	40.1746
2.74475	40.3027
2.7433	40.6569
2.74185	41.3644
2.7404	42.1149
2.73895	42.198
2.7375	42.0365
2.73606	42.4391
2.73462	42.8972
2.73318	42.8197
2.73174	43.0304
2.7303	43.3719
2.72886	43.8783
2.72742	44.6271
2.72599	45.5841
2.72456	46.4908
2.72313	46.5444
2.7217	47.2849
2.72027	48.3201
2.71884	48.207
2.71742	48.4509
2.71599	48.9121
2.71457	49.3694
2.71315	49.818
2.71173	50.9496
2.71032	51.7137
2.7089	51.8319
2.70748	51.9456
2.70607	52.2413
2.70466	52.6117
2.70325	53.1662
2.70184	53.7727
2.70043	53.9113
2.69903	53.9688
2.69762	54.2652
2.69622	54.9416
2.69482	55.6787
2.69342	55.9037
2.69202	55.478
2.69062	55.4181
2.68923	55.605
2.68783	55.7555
2.68644	55.8932
2.68505	56.0896
2.68366	56.2614
2.68227	56.2169
2.68089	56.3389
2.6795	56.9603
2.67812	57.1276
2.67673	57.3563
2.67535	57.0126
2.67397	56.6996
2.6726	56.9576
2.67122	58.0677
2.66984	58.2216
2.66847	57.4675
2.6671	58.0763
2.66572	58.2824
2.66435	57.6949
2.66299	56.8446
2.66162	56.7921
2.66025	56.9674
2.65889	56.9172
2.65753	56.6688
2.65616	56.861
2.65481	56.8141
2.65345	57.0725
2.65209	57.2216
2.65073	56.8286
2.64938	56.5887
2.64803	56.6814
2.64667	56.935
2.64532	56.9166
2.64397	56.7132
2.64263	56.8041
2.64128	56.7632
2.63994	56.6645
2.63859	56.6756
2.63725	56.7609
2.63591	56.8398
2.63457	57.1036
2.63323	57.1137
2.6319	57.3981
2.63056	58.0058
2.62923	57.4363
2.62789	57.301
2.62656	57.7009
2.62523	57.1019
2.6239	56.7373
2.62258	56.7953
2.62125	57.6099
2.61993	57.8188
2.6186	57.3516
2.61728	57.6873
2.61596	57.5409
2.61464	57.0468
2.61332	57.0556
2.61201	56.965
2.61069	57.0361
2.60938	57.1068
2.60807	57.1758
2.60675	57.5165
2.60544	57.861
2.60414	57.4132
2.60283	57.2244
2.60152	57.1745
2.60022	56.9843
2.59891	56.8759
2.59761	57.1995
2.59631	58.1707
2.59501	59.2454
2.59371	58.3051
2.59242	57.1352
2.59112	56.9906
2.58983	57.1971
2.58853	57.2723
2.58724	57.3092
2.58595	57.1153
2.58466	57.6079
2.58338	57.8197
2.58209	57.3106
2.5808	57.1605
2.57952	56.9506
2.57824	57.0932
2.57695	57.3158
2.57567	57.1044
2.5744	57.1455
2.57312	57.4781
2.57184	57.1258
2.57057	57.2582
2.56929	57.3681
2.56802	56.9658
2.56675	56.7915
2.56548	57.0615
2.56421	57.4935
2.56294	57.6357
2.56168	57.5833
2.56041	57.314
2.55915	56.9169
2.55789	56.8504
2.55662	56.8658
2.55536	56.8366
2.5541	56.9307
2.55285	57.0251
2.55159	56.9972
2.55034	56.9475
2.54908	56.8656
2.54783	56.9077
2.54658	56.8663
2.54533	56.8644
2.54408	56.9317
2.54283	56.9505
2.54159	56.8362
2.54034	56.7858
2.5391	56.8032
2.53785	56.7501
2.53661	56.8265
2.53537	56.9355
2.53413	56.9758
2.53289	56.9738
2.53166	56.7856
2.53042	56.8301
2.52919	57.0452
2.52795	56.9241
2.52672	56.8144
2.52549	56.8352
2.52426	56.7966
2.52303	56.6742
2.52181	56.6853
2.52058	56.8152
2.51936	56.8074
2.51813	56.8164
2.51691	56.834
2.51569	56.8424
2.51447	56.784
2.51325	56.7337
2.51203	56.7312
2.51082	56.7461
2.5096	56.8434
2.50839	56.8317
2.50717	56.804
2.50596	56.7656
2.50475	56.6908
2.50354	56.7056
2.50233	56.6468
2.50113	56.7155
2.49992	56.8473
2.49872	56.8349
2.49751	56.7797
2.49631	56.7789
2.49511	56.8358
2.49391	56.7953
2.49271	56.6157
2.49151	56.6581
2.49031	56.6882
2.48912	56.6509
2.48792	56.6952
2.48673	56.7887
2.48554	56.8593
2.48435	56.9182
2.48316	56.8246
2.48197	56.6046
2.48078	56.5331
2.4796	56.6317
2.47841	56.7905
2.47723	56.7253
2.47604	56.6428
2.47486	56.72
2.47368	56.8102
2.4725	56.8564
2.47132	56.7702
2.47014	56.6025
2.46897	56.6032
2.46779	56.6694
2.46662	56.6615
2.46545	56.6609
2.46427	56.6738
2.4631	56.7343
2.46193	56.7646
2.46077	56.7754
2.4596	56.8415
2.45843	56.8552
2.45727	56.8156
2.4561	56.7159
2.45494	56.7442
2.45378	56.7054
2.45262	56.5538
2.45146	56.6382
2.4503	56.7796
2.44914	56.8187
2.44799	56.9486
2.44683	56.8465
2.44568	56.7171
2.44452	56.6763
2.44337	56.688
2.44222	56.7367
2.44107	56.7725
2.43992	56.7447
2.43877	56.6703
2.43763	56.7642
2.43648	56.8121
2.43534	56.759
2.43419	56.8356
2.43305	56.8669
2.43191	56.7382
2.43077	56.6985
2.42963	56.8079
2.42849	56.8018
2.42736	56.6226
2.42622	56.5659
2.42509	56.6512
2.42395	56.6624
2.42282	56.706
2.42169	56.8284
2.42056	56.8345
2.41943	56.8755
2.4183	56.8643
2.41717	56.6824
2.41605	56.6586
2.41492	56.8141
2.4138	56.9123
2.41267	56.9069
2.41155	56.7915
2.41043	56.6231
2.40931	56.6038
2.40819	56.7648
2.40707	56.8631
2.40595	56.8338
2.40484	56.7315
2.40372	56.778
2.40261	56.8496
2.4015	56.9463
2.40039	56.8848
2.39928	56.8056
2.39817	56.6755
2.39706	56.7188
2.39595	56.8468
2.39484	56.9919
2.39374	56.994
2.39263	56.8367
2.39153	56.8565
2.39043	56.9659
2.38932	56.997
2.38822	56.9347
2.38712	56.8592
2.38603	56.7796
2.38493	56.7095
2.38383	56.6211
2.38274	56.6738
2.38164	56.7264
2.38055	56.8444
2.37946	56.9703
2.37836	56.8997
2.37727	56.7604
2.37618	56.8335
2.3751	56.867
2.37401	56.9207
2.37292	56.9011
2.37184	56.7497
2.37075	56.8094
2.36967	56.8692
2.36859	56.8455
2.3675	56.9082
2.36642	56.8821
2.36534	56.7526
2.36427	56.7227
2.36319	56.8351
2.36211	56.9065
2.36104	56.8487
2.35996	56.7521
2.35889	56.6996
2.35781	56.8791
2.35674	57.014
2.35567	56.7857
2.3546	56.6509
2.35353	56.714
2.35247	56.7542
2.3514	56.8462
2.35033	56.8528
2.34927	56.8929
2.3482	56.8404
2.34714	56.7425
2.34608	56.7189
2.34502	56.8386
2.34396	56.8636
2.3429	56.7206
2.34184	56.615
2.34078	56.6946
2.33973	56.7407
2.33867	56.7692
2.33762	56.8251
2.33656	56.9102
2.33551	56.8461
2.33446	56.7579
2.33341	56.8152
2.33236	56.7776
2.33131	56.7481
2.33026	56.808
2.32922	56.8137
2.32817	56.8341
2.32712	56.905
2.32608	56.8949
2.32504	56.8056
2.324	56.7684
2.32295	56.8512
2.32191	56.8236
2.32087	56.8069
2.31984	56.9281
2.3188	56.9033
2.31776	56.7345
2.31673	56.697
2.31569	56.7927
2.31466	56.8745
2.31362	56.9231
2.31259	56.7724
2.31156	56.6236
2.31053	56.7519
2.3095	56.9027
2.30847	56.8892
2.30745	56.9393
2.30642	56.8866
2.3054	56.8396
2.30437	56.8438
2.30335	56.9084
2.30232	56.8596
2.3013	56.7115
2.30028	56.8445
2.29926	56.916
2.29824	56.8527
2.29722	56.8327
2.29621	56.7872
2.29519	56.7436
2.29417	56.7956
2.29316	56.8328
2.29215	57.0199
2.29113	57.0309
2.29012	56.8827
2.28911	56.8537
2.2881	56.9535
2.28709	56.924
2.28608	56.7121
2.28507	56.629
2.28407	56.793
2.28306	56.9231
2.28206	56.8933
2.28105	56.8174
2.28005	56.8082
2.27905	56.7477
2.27805	56.8078
2.27705	56.921
2.27605	56.9013
2.27505	56.8838
2.27405	56.9203
2.27305	56.9996
2.27206	57.1117
2.27106	56.999
2.27007	56.6728
2.26907	56.7702
2.26808	56.8839
2.26709	56.9098
2.2661	57.0116
2.26511	56.8365
2.26412	56.7158
2.26313	56.8069
2.26214	56.9337
2.26116	56.851
2.26017	56.7014
2.25919	56.5708
2.2582	56.5598
2.25722	56.7588
2.25624	56.8908
2.25526	56.8287
2.25428	56.8104
2.2533	56.9563
2.25232	56.9955
2.25134	56.8453
2.25036	56.7388
2.24939	56.8002
2.24841	56.8313
2.24744	56.8481
2.24646	56.9155
2.24549	56.8863
2.24452	56.931
2.24355	56.9312
2.24257	56.8079
2.24161	56.8038
2.24064	56.6362
2.23967	56.6509
2.2387	56.9526
2.23774	56.978
2.23677	56.9341
2.23581	56.9242
2.23484	56.8609
2.23388	56.9489
2.23292	56.9855
2.23196	56.8376
2.231	56.8781
2.23004	56.935
2.22908	56.8908
2.22812	56.898
2.22716	56.9029
2.22621	56.9303
2.22525	56.8229
2.2243	56.8466
2.22334	56.9275
2.22239	56.9631
2.22144	56.8917
2.22049	56.8246
2.21953	56.8156
2.21859	56.7251
2.21764	56.581
2.21669	56.7186
2.21574	56.8595
2.21479	56.875
2.21385	56.9279
2.2129	56.9467
2.21196	56.8144
2.21102	56.6758
2.21007	56.6653
2.20913	56.7317
2.20819	56.719
2.20725	56.6249
2.20631	56.6775
2.20537	56.8365
2.20444	56.8654
2.2035	56.7648
2.20256	56.7753
2.20163	56.7895
2.20069	56.8011
2.19976	56.7812
2.19883	56.8438
2.19789	56.8587
2.19696	56.7878
2.19603	56.816
2.1951	56.7645
2.19417	56.7452
2.19325	56.7232
2.19232	56.709
2.19139	56.7489
2.19047	56.7025
2.18954	56.7217
2.18862	56.7537
2.18769	56.9259
2.18677	57.0781
2.18585	56.9783
2.18493	56.8377
2.18401	56.8678
2.18309	56.748
2.18217	56.6622
2.18125	56.6992
2.18033	56.7298
2.17942	56.8154
2.1785	56.8581
2.17759	56.8879
2.17667	56.911
2.17576	56.9862
2.17485	56.8873
2.17393	56.7374
2.17302	56.7918
2.17211	57.0273
2.1712	57.0639
2.17029	56.9961
2.16939	56.816
2.16848	56.782
2.16757	56.9141
2.16667	56.9905
2.16576	56.9788
2.16486	56.8348
2.16395	56.8899
2.16305	56.9795
2.16215	56.8122
2.16125	56.8256
2.16035	56.8928
2.15945	56.7903
2.15855	56.7158
2.15765	56.7952
2.15675	56.9224
2.15586	56.9398
2.15496	56.9753
2.15406	57.0169
2.15317	56.9242
2.15228	56.8875
2.15138	56.9563
2.15049	56.9312
2.1496	57.0889
2.14871	57.2018
2.14782	57.0158
2.14693	56.9772
2.14604	57.0219
2.14515	57.0429
2.14427	57.0387
2.14338	57.0937
2.14249	57.1727
2.14161	57.0374
2.14072	56.9218
2.13984	56.9692
2.13896	57.0073
2.13808	56.9743
2.13719	56.9116
2.13631	56.859
2.13543	56.8237
2.13455	56.7811
2.13368	56.9841
2.1328	57.1564
2.13192	56.9636
2.13105	56.8558
2.13017	56.9293
2.1293	57.0278
2.12842	57.024
2.12755	57.0323
2.12668	57.0214
2.1258	56.89
2.12493	56.926
2.12406	56.8804
2.12319	57.0076
2.12232	57.0446
2.12145	56.7796
2.12059	56.6652
2.11972	56.9088
2.11885	57.1493
2.11799	57.2121
2.11712	57.0818
2.11626	56.9925
2.1154	56.968
2.11453	56.9049
2.11367	56.8176
2.11281	56.9308
2.11195	57.0243
2.11109	57.132
2.11023	56.8947
2.10937	56.8416
2.10851	57.0872
2.10766	57.019
2.1068	56.8787
2.10594	56.8903
2.10509	57.1238
2.10423	57.2422
2.10338	57.0469
2.10253	56.8869
2.10168	56.8009
2.10082	56.8073
2.09997	56.9215
2.09912	56.8279
2.09827	56.9216
2.09742	57.2193
2.09658	57.3186
2.09573	57.2117
2.09488	57.0832
2.09404	57.0295
2.09319	56.8272
2.09235	56.8425
2.0915	57.092
2.09066	56.9169
2.08982	56.9743
2.08897	57.0409
2.08813	56.781
2.08729	56.7228
2.08645	56.9769
2.08561	57.0408
2.08477	56.7542
2.08394	56.6885
2.0831	56.9652
2.08226	56.8112
2.08143	56.6049
2.08059	56.8427
2.07976	56.8429
2.07892	56.6076
2.07809	56.7261
2.07726	56.8544
2.07643	56.8199
2.07559	57.002
2.07476	57.119
2.07393	57.0075
2.0731	57.0326
2.07228	57.3385
2.07145	56.8255
2.07062	56.6019
2.06979	56.8876
2.06897	57.0903
2.06814	57.4161
2.06732	57.2821
2.06649	56.9308
2.06567	56.929
2.06485	57.0693
2.06403	57.1136
2.0632	57.0024
2.06238	56.8215
2.06156	56.8325
2.06074	56.9572
2.05993	56.9266
2.05911	56.8101
2.05829	56.9181
2.05747	56.9921
2.05666	56.8736
2.05584	56.7645
2.05503	56.8847
2.05421	56.9933
2.0534	56.8529
2.05259	57.0557
2.05177	57.1616
2.05096	56.9372
2.05015	56.9873
2.04934	57.1292
2.04853	57.0158
2.04772	57.092
2.04691	57.113
2.04611	57.006
2.0453	56.8986
2.04449	56.9077
2.04369	56.8644
2.04288	56.9135
2.04208	57.0005
2.04127	57.1102
2.04047	57.1086
2.03967	57.0664
2.03886	56.9139
2.03806	57.0545
2.03726	57.1282
2.03646	56.9232
2.03566	56.9885
2.03486	57.1822
2.03407	56.9836
2.03327	56.8197
2.03247	56.8878
2.03167	56.7781
2.03088	56.8483
2.03008	57.121
2.02929	57.1557
2.0285	57.2509
2.0277	57.0554
2.02691	56.8662
2.02612	56.9214
2.02533	57.0115
2.02453	56.9781
2.02374	56.8953
2.02295	57.0628
2.02217	57.0195
2.02138	56.7481
2.02059	56.7838
2.0198	57.1791
2.01902	57.1463
2.01823	56.9953
2.01744	57.1265
2.01666	57.0643
2.01588	56.8276
2.01509	56.7734
2.01431	56.7594
2.01353	57.0093
2.01275	57.2244
2.01196	57.3061
2.01118	57.2428
2.0104	57.2092
2.00963	57.1244
2.00885	56.9357
2.00807	56.8901
2.00729	56.8128
2.00651	56.8462
2.00574	57.0395
2.00496	56.9996
2.00419	56.9552
2.00341	56.8531
2.00264	56.8141
2.00187	56.8431
2.00109	56.8681
2.00032	56.9651
