Name: Sulphur S
Type: Mineral
Class: Elements
Subclass: 
Particle Size: 0-45um
Sample No.: E-2A
Owner: JPL
Wavelength range: IR
Origin: 
Collected by JPL
Description: 





Measurement: Hemispherical reflectance
First Column: X
Second Column: Y
X Units:  Wavelength (micrometers)
Y Units:  Reflectance (percent)
First X Value: 15.3853
Last X Value: 2.00032
Number of X Values: 2256
Additional information: e02aa.txt
 
15.3853	52.586
15.3397	50.9335
15.2945	49.8253
15.2495	49.093
15.2048	48.7696
15.1603	49.2866
15.1161	50.7315
15.0722	52.4896
15.0285	54.0407
14.9851	55.2056
14.9419	56.817
14.8989	58.7994
14.8563	60.3285
14.8138	61.1853
14.7716	61.2364
14.7296	60.5057
14.6879	59.6214
14.6464	59.2669
14.6052	60.0005
14.5641	62.0823
14.5233	65.06
14.4828	68.0993
14.4424	70.5363
14.4023	71.857
14.3624	72.2219
14.3227	71.9121
14.2833	70.9632
14.244	69.4768
14.205	67.7462
14.1662	66.3596
14.1276	65.353
14.0892	64.7052
14.051	64.3736
14.0131	64.4994
13.9753	65.5268
13.9377	67.3595
13.9004	69.6617
13.8632	72.1002
13.8262	74.445
13.7895	76.2577
13.7529	77.3479
13.7165	77.9292
13.6803	78.4634
13.6443	79.0638
13.6085	79.5305
13.5729	79.9403
13.5374	80.3365
13.5022	80.7431
13.4671	81.2869
13.4322	81.7504
13.3975	81.9893
13.363	82.3303
13.3286	82.7264
13.2944	82.9642
13.2604	83.1945
13.2266	83.4042
13.193	83.6329
13.1595	83.9945
13.1262	84.211
13.093	84.1639
13.06	84.1385
13.0272	84.207
12.9946	84.2106
12.9621	84.1121
12.9298	83.9857
12.8976	83.8439
12.8656	83.4835
12.8337	83.0697
12.8021	82.6178
12.7705	82.0893
12.7391	81.593
12.7079	80.855
12.6769	80.0795
12.6459	79.2613
12.6152	78.4963
12.5845	77.7309
12.5541	76.9722
12.5238	76.2526
12.4936	75.4452
12.4635	74.518
12.4337	73.4673
12.4039	72.2927
12.3743	70.902
12.3448	69.2564
12.3155	67.2559
12.2863	65.1375
12.2573	62.8715
12.2284	60.2528
12.1996	57.4873
12.171	54.6575
12.1425	51.9428
12.1141	49.2276
12.0859	46.6079
12.0578	44.0219
12.0298	41.5778
12.0019	39.4382
11.9742	37.3211
11.9466	35.3057
11.9192	33.5513
11.8918	31.9763
11.8646	30.7163
11.8375	30.1121
11.8106	30.4541
11.7837	31.8021
11.757	34.4873
11.7304	38.6043
11.7039	43.499
11.6776	47.6915
11.6513	50.399
11.6252	51.8532
11.5992	52.7301
11.5733	53.2468
11.5475	53.5601
11.5219	54.1135
11.4963	54.7639
11.4709	55.507
11.4455	56.4831
11.4203	57.6206
11.3952	58.8715
11.3702	60.3031
11.3454	61.9435
11.3206	63.8556
11.2959	65.906
11.2714	67.776
11.2469	69.4029
11.2226	70.5464
11.1983	71.0328
11.1742	70.9197
11.1502	70.4543
11.1263	69.7487
11.1024	68.9943
11.0787	68.478
11.0551	68.598
11.0316	69.5176
11.0081	71.3848
10.9848	73.7646
10.9616	75.8281
10.9385	77.2453
10.9154	78.0251
10.8925	78.1334
10.8697	77.8277
10.8469	76.9856
10.8243	75.5145
10.8017	73.636
10.7793	71.4882
10.7569	69.1196
10.7346	66.8906
10.7125	65.2355
10.6904	64.2429
10.6684	63.8604
10.6465	64.5425
10.6247	66.446
10.6029	69.2758
10.5813	72.5176
10.5597	75.5585
10.5383	77.9675
10.5169	79.668
10.4956	80.7184
10.4744	81.4978
10.4533	82.0827
10.4323	82.5695
10.4113	82.9416
10.3904	83.2555
10.3697	83.5904
10.349	83.8843
10.3284	83.9583
10.3078	83.8534
10.2874	83.7879
10.267	83.8015
10.2467	83.7274
10.2265	83.6653
10.2064	83.508
10.1863	83.2462
10.1663	83.1249
10.1464	83.1519
10.1266	83.1138
10.1069	83.1155
10.0872	83.146
10.0676	83.3429
10.0481	83.5295
10.0287	83.6177
10.0093	83.744
9.99005	83.867
9.97084	83.8553
9.95169	83.9169
9.93263	83.9038
9.91364	83.7751
9.89472	83.7195
9.87587	83.6918
9.8571	83.6584
9.83839	83.6583
9.81976	83.5669
9.80119	83.4966
9.78271	83.438
9.76428	83.4388
9.74592	83.5116
9.72764	83.5281
9.70943	83.4834
9.69128	83.5104
9.6732	83.4235
9.65518	83.3721
9.63724	83.3819
9.61935	83.2721
9.60155	83.1414
9.5838	83.1351
9.56611	83.1176
9.5485	83.0216
9.53094	82.9286
9.51345	82.9124
9.49604	82.9573
9.47867	82.9914
9.46137	83.0772
9.44414	83.2913
9.42697	83.4221
9.40986	83.5578
9.39281	83.7103
9.37583	83.8793
9.35891	83.9922
9.34204	84.0721
9.32524	84.0529
9.3085	83.9062
9.29182	83.764
9.27519	83.625
9.25863	83.5886
9.24213	83.6212
9.22568	83.5014
9.2093	83.403
9.19297	83.3909
9.17669	83.4374
9.16048	83.4636
9.14433	83.4637
9.12823	83.4701
9.11218	83.4832
9.0962	83.5195
9.08027	83.5719
9.06439	83.5949
9.04858	83.6268
9.03281	83.6045
9.0171	83.5912
9.00145	83.5422
8.98585	83.5629
8.9703	83.6019
8.9548	83.5949
8.93937	83.6458
8.92398	83.6827
8.90865	83.6494
8.89337	83.7268
8.87814	83.7567
8.86296	83.7544
8.84784	83.8652
8.83277	83.9453
8.81774	84.0163
8.80277	84.1371
8.78786	84.1955
8.77298	84.2281
8.75816	84.3251
8.7434	84.5258
8.72868	84.6559
8.714	84.7919
8.69938	84.8737
8.68481	84.9967
8.67029	85.1485
8.65581	85.3141
8.64139	85.395
8.62701	85.5119
8.61268	85.6903
8.5984	85.8157
8.58416	85.9155
8.56997	86.0038
8.55583	86.042
8.54174	86.1522
8.52769	86.2521
8.51368	86.3242
8.49973	86.4358
8.48582	86.6069
8.47195	86.71
8.45813	86.876
8.44436	87.0866
8.43062	87.2145
8.41693	87.3422
8.4033	87.5378
8.3897	87.7326
8.37614	87.9029
8.36264	87.9969
8.34917	88.0653
8.33574	88.162
8.32236	88.2569
8.30903	88.3122
8.29573	88.5348
8.28248	88.7279
8.26927	88.8143
8.2561	88.8634
8.24298	88.9212
8.2299	88.9463
8.21685	89.0543
8.20385	89.1551
8.19089	89.2848
8.17797	89.3489
8.16509	89.333
8.15225	89.2386
8.13946	89.2318
8.1267	89.1905
8.11398	89.0278
8.10131	88.9232
8.08867	88.9158
8.07606	88.8426
8.0635	88.6253
8.05099	88.456
8.0385	88.2352
8.02606	87.937
8.01366	87.7139
8.00129	87.4236
7.98896	87.0614
7.97667	86.6385
7.96442	86.2126
7.9522	85.7883
7.94002	85.19
7.92788	84.506
7.91578	83.7955
7.90371	83.0378
7.89168	82.2209
7.87969	81.3193
7.86773	80.3788
7.85581	79.4225
7.84392	78.4643
7.83207	77.481
7.82026	76.4096
7.80849	75.4299
7.79674	74.6783
7.78503	74.0651
7.77337	73.5886
7.76173	73.121
7.75012	72.6051
7.73856	72.2083
7.72703	71.9505
7.71553	71.6857
7.70406	71.393
7.69263	71.1963
7.68123	71.1065
7.66987	71.1218
7.65855	71.36
7.64725	71.6174
7.63598	72.0363
7.62475	72.6857
7.61356	73.4252
7.60239	74.2761
7.59126	75.3119
7.58017	76.3731
7.5691	77.3624
7.55806	78.3224
7.54707	79.1761
7.5361	79.8429
7.52516	80.3577
7.51425	80.7296
7.50338	81.0287
7.49253	81.3798
7.48172	81.8665
7.47094	82.4076
7.46019	82.8343
7.44947	83.0159
7.43879	83.3079
7.42813	83.7943
7.4175	84.3766
7.4069	84.7353
7.39634	84.9284
7.3858	85.0317
7.37529	85.0044
7.36482	85.01
7.35437	85.139
7.34396	85.3288
7.33357	85.2004
7.32321	84.7617
7.31288	84.7344
7.30258	84.9158
7.29231	85.1736
7.28207	85.6957
7.27185	85.9352
7.26167	85.9522
7.25152	86.2898
7.24139	86.5858
7.23129	86.8955
7.22122	87.1694
7.21117	87.7177
7.20116	87.5625
7.19117	87.0747
7.18121	87.1036
7.17128	87.4556
7.16137	87.0172
7.1515	86.6209
7.14164	86.0001
7.13182	85.1927
7.12203	84.9545
7.11225	84.5281
7.10251	83.9827
7.0928	83.7719
7.08311	83.6386
7.07344	83.4423
7.06381	83.28
7.0542	83.8088
7.04461	84.1017
7.03506	82.6638
7.02552	81.6717
7.01601	80.9941
7.00653	80.2125
6.99708	79.7703
6.98765	79.182
6.97824	78.58
6.96886	78.8423
6.95951	79.3146
6.95018	78.1578
6.94087	77.4794
6.9316	77.3529
6.92234	77.2991
6.91311	77.498
6.90391	77.6019
6.89473	77.2072
6.88557	77.246
6.87644	77.843
6.86733	79.7319
6.85824	79.7553
6.84918	78.0782
6.84015	77.4611
6.83114	78.0513
6.82215	78.2435
6.81319	77.7889
6.80424	78.1731
6.79532	79.6333
6.78643	80.2869
6.77756	79.7146
6.76871	79.3655
6.75989	79.2034
6.75109	79.4438
6.74231	79.5298
6.73355	79.8733
6.72482	80.6097
6.71611	81.3389
6.70742	81.5002
6.69875	81.039
6.69011	81.6886
6.68149	82.756
6.67289	82.6984
6.66431	82.3204
6.65576	82.3205
6.64722	84.0225
6.63871	86.4924
6.63022	85.8078
6.62175	84.3613
6.61331	84.2862
6.60488	84.5342
6.59648	85.4411
6.5881	86.0945
6.57974	87.0401
6.5714	88.0391
6.56308	87.2286
6.55478	87.1138
6.54651	87.0457
6.53825	86.8976
6.53001	87.3396
6.5218	88.3959
6.51361	88.1803
6.50544	88.8327
6.49729	91.4673
6.48915	92.0072
6.48104	90.6849
6.47295	89.9064
6.46488	89.2457
6.45683	89.2658
6.4488	89.5534
6.44079	89.9199
6.4328	90.672
6.42482	91.6515
6.41687	94.2538
6.40894	93.5841
6.40103	90.7462
6.39314	90.1841
6.38526	90.2185
6.37741	90.7151
6.36957	91.2929
6.36176	90.5231
6.35396	90.7486
6.34618	92.3355
6.33843	91.7066
6.33069	90.3549
6.32297	90.2125
6.31527	90.2614
6.30758	90.3225
6.29992	90.2872
6.29227	90.3376
6.28465	90.3246
6.27704	90.4106
6.26945	90.4294
6.26188	90.3784
6.25432	90.3491
6.24679	90.4652
6.23927	90.4918
6.23177	90.4397
6.22429	90.4269
6.21683	90.5556
6.20938	90.5365
6.20195	90.4013
6.19454	90.8965
6.18715	92.3098
6.17978	91.6741
6.17242	90.5605
6.16508	91.0965
6.15776	91.4699
6.15045	91.0328
6.14317	90.9865
6.1359	90.738
6.12864	90.5711
6.12141	91.6378
6.11419	93.1069
6.10699	92.0373
6.0998	90.804
6.09263	90.5733
6.08549	90.7827
6.07835	92.0659
6.07123	92.68
6.06413	91.618
6.05705	92.6135
6.04998	95.5366
6.04293	93.5348
6.0359	90.9835
6.02888	90.5528
6.02187	90.9041
6.01489	91.4878
6.00792	91.052
6.00096	90.7667
5.99403	91.7163
5.98711	92.0931
5.9802	91.3913
5.97331	91.8115
5.96644	92.0802
5.95958	91.0819
5.95274	91.1095
5.94591	91.9374
5.9391	94.0557
5.9323	93.4517
5.92552	91.6092
5.91876	91.2808
5.91201	91.0989
5.90528	91.5837
5.89856	93.4305
5.89186	93.3773
5.88517	94.0516
5.8785	94.332
5.87184	92.2218
5.8652	92.1484
5.85857	91.9032
5.85196	91.4685
5.84536	91.2643
5.83878	91.5929
5.83221	92.4161
5.82566	93.6454
5.81912	93.5647
5.81259	91.9525
5.80608	91.325
5.79959	91.3062
5.79311	91.1831
5.78665	91.3155
5.78019	91.5807
5.77376	92.4774
5.76734	94.064
5.76093	92.8788
5.75453	91.7957
5.74815	92.3378
5.74179	92.0373
5.73543	91.8113
5.7291	91.8068
5.72277	92.1728
5.71646	92.6602
5.71017	92.916
5.70389	92.1861
5.69762	91.9943
5.69136	92.3146
5.68513	92.1141
5.6789	92.4448
5.67268	92.4855
5.66648	91.9478
5.6603	92.2269
5.65413	92.5709
5.64797	92.9659
5.64182	93.6411
5.63569	92.8251
5.62957	92.1052
5.62347	92.0529
5.61737	92.2016
5.61129	92.1078
5.60522	92.1836
5.59917	92.1602
5.59313	91.9297
5.5871	92.3199
5.58109	93.0944
5.57509	92.8863
5.5691	92.171
5.56312	92.1848
5.55716	92.4588
5.55121	92.5096
5.54528	92.1451
5.53935	91.9692
5.53344	91.9603
5.52754	92.0899
5.52166	92.1312
5.51578	92.0641
5.50992	91.9391
5.50407	92.0289
5.49823	92.0575
5.49241	92.0964
5.4866	92.1991
5.4808	92.6445
5.47501	92.661
5.46923	92.8344
5.46347	93.0834
5.45772	92.6269
5.45198	92.4279
5.44625	92.5512
5.44054	92.5582
5.43484	92.5915
5.42914	92.9814
5.42347	93.7816
5.4178	93.4636
5.41214	92.9035
5.4065	92.7992
5.40087	92.7395
5.39525	92.8297
5.38964	92.8128
5.38404	92.74
5.37846	92.7717
5.37288	92.7953
5.36732	92.7939
5.36177	92.8642
5.35623	93.2233
5.35071	93.5885
5.34519	93.2405
5.33968	92.8715
5.33419	92.806
5.32871	92.8047
5.32324	92.841
5.31778	92.8312
5.31233	92.8592
5.30689	92.923
5.30147	92.9559
5.29605	93.0919
5.29065	93.1444
5.28525	92.9365
5.27987	92.9561
5.2745	93.006
5.26914	92.9416
5.26379	92.9064
5.25845	92.9067
5.25312	92.8901
5.24781	92.9408
5.2425	93.0187
5.23721	93.0456
5.23192	92.8857
5.22665	92.8399
5.22138	92.9284
5.21613	93.2632
5.21089	93.2622
5.20566	93.0441
5.20044	93.1273
5.19522	93.0026
5.19002	92.8788
5.18483	92.8471
5.17965	92.823
5.17448	92.8663
5.16933	92.8825
5.16418	92.87
5.15904	92.8572
5.15391	92.9501
5.14879	93.154
5.14368	93.15
5.13859	93.0381
5.1335	92.929
5.12842	92.7894
5.12335	92.8367
5.1183	92.9056
5.11325	92.929
5.10821	92.9292
5.10318	92.8619
5.09817	92.8117
5.09316	92.8338
5.08816	92.9404
5.08317	93.0124
5.07819	92.9151
5.07322	92.8371
5.06826	92.7741
5.06331	92.7726
5.05837	92.8162
5.05344	92.8895
5.04852	92.8786
5.04361	92.8556
5.03871	92.8348
5.03382	92.8343
5.02894	92.8606
5.02406	92.9588
5.0192	93.0048
5.01435	92.8611
5.0095	92.7902
5.00467	92.796
4.99984	92.7923
4.99502	92.825
4.99021	92.8161
4.98542	92.8196
4.98063	92.8214
4.97585	92.8129
4.97108	92.8197
4.96632	92.8098
4.96156	92.8032
4.95682	92.873
4.95209	92.8276
4.94736	92.782
4.94264	92.7703
4.93794	92.7784
4.93324	92.7744
4.92855	92.762
4.92387	92.7444
4.9192	92.7646
4.91453	92.7538
4.90988	92.7068
4.90524	92.7248
4.9006	92.799
4.89597	92.766
4.89135	92.7116
4.88674	92.7074
4.88214	92.7531
4.87755	92.76
4.87296	92.7144
4.86839	92.718
4.86382	92.7364
4.85926	92.7276
4.85471	92.7479
4.85017	92.766
4.84564	92.761
4.84111	92.7397
4.8366	92.7116
4.83209	92.6905
4.82759	92.6964
4.8231	92.7182
4.81862	92.6962
4.81415	92.6612
4.80968	92.6673
4.80522	92.6629
4.80077	92.6885
4.79633	92.7447
4.7919	92.7124
4.78747	92.6774
4.78306	92.6585
4.77865	92.6378
4.77425	92.6598
4.76986	92.6557
4.76547	92.5875
4.7611	92.633
4.75673	92.6894
4.75237	92.6595
4.74802	92.6348
4.74367	92.5881
4.73934	92.583
4.73501	92.563
4.73069	92.6067
4.72638	92.6209
4.72207	92.6081
4.71777	92.5981
4.71348	92.6458
4.7092	92.6381
4.70493	92.5937
4.70066	92.5552
4.69641	92.5347
4.69216	92.523
4.68791	92.5352
4.68368	92.5705
4.67945	92.5764
4.67523	92.5362
4.67102	92.5393
4.66682	92.5552
4.66262	92.5494
4.65843	92.5179
4.65425	92.5322
4.65007	92.5681
4.64591	92.587
4.64175	92.5511
4.6376	92.4694
4.63345	92.4724
4.62932	92.4765
4.62519	92.4961
4.62106	92.4992
4.61695	92.4692
4.61284	92.4615
4.60874	92.4637
4.60465	92.5159
4.60056	92.5491
4.59648	92.5502
4.59241	92.5103
4.58835	92.5227
4.58429	92.5379
4.58024	92.5198
4.5762	92.4971
4.57216	92.5146
4.56814	92.5251
4.56411	92.5684
4.5601	92.577
4.55609	92.5567
4.55209	92.5808
4.5481	92.5347
4.54411	92.4691
4.54013	92.5235
4.53616	92.5404
4.5322	92.6013
4.52824	92.5486
4.52429	92.4999
4.52034	92.5299
4.51641	92.5493
4.51247	92.582
4.50855	92.5866
4.50463	92.575
4.50072	92.5486
4.49682	92.5081
4.49292	92.5536
4.48903	92.5842
4.48515	92.5631
4.48127	92.58
4.4774	92.5446
4.47354	92.5011
4.46968	92.5252
4.46584	92.5208
4.46199	92.4749
4.45815	92.4549
4.45432	92.5015
4.4505	92.4982
4.44668	92.4722
4.44287	92.5109
4.43907	92.5483
4.43527	92.5184
4.43148	92.4804
4.4277	92.4227
4.42392	92.4149
4.42015	92.4591
4.41638	92.5156
4.41262	92.5378
4.40887	92.5319
4.40513	92.5005
4.40139	92.521
4.39765	92.5544
4.39393	92.5407
4.39021	92.5061
4.38649	92.452
4.38278	92.4406
4.37908	92.494
4.37539	92.4752
4.3717	92.4353
4.36801	92.4512
4.36434	92.4786
4.36067	92.4691
4.357	92.4389
4.35335	92.4239
4.34969	92.3905
4.34605	92.3886
4.34241	92.4182
4.33877	92.3637
4.33514	92.2654
4.33152	92.242
4.32791	92.2607
4.3243	92.2566
4.32069	92.2373
4.3171	92.1296
4.31351	91.9984
4.30992	91.9356
4.30634	91.8567
4.30277	91.7309
4.2992	91.6789
4.29564	91.6295
4.29208	91.538
4.28853	91.474
4.28499	91.4352
4.28145	91.4141
4.27792	91.3605
4.27439	91.3528
4.27087	91.4428
4.26735	91.604
4.26384	91.7664
4.26034	91.9491
4.25684	92.0999
4.25335	91.972
4.24986	91.7169
4.24638	91.5342
4.24291	91.3666
4.23944	91.2073
4.23598	91.111
4.23252	91.0852
4.22906	91.1215
4.22562	91.189
4.22218	91.3179
4.21874	91.5254
4.21531	91.6804
4.21189	91.8388
4.20847	92.0474
4.20506	92.1908
4.20165	92.2556
4.19825	92.31
4.19485	92.3289
4.19146	92.3523
4.18807	92.3599
4.18469	92.2901
4.18132	92.2347
4.17795	92.265
4.17458	92.312
4.17123	92.3247
4.16787	92.3052
4.16453	92.2893
4.16118	92.3273
4.15785	92.3213
4.15451	92.2773
4.15119	92.2525
4.14787	92.231
4.14455	92.2004
4.14124	92.2363
4.13794	92.2322
4.13464	92.229
4.13134	92.2323
4.12805	92.2441
4.12477	92.2897
4.12149	92.2996
4.11822	92.2431
4.11495	92.2056
4.11168	92.181
4.10843	92.1672
4.10517	92.2576
4.10192	92.274
4.09868	92.224
4.09545	92.1868
4.09221	92.1925
4.08899	92.1622
4.08576	92.0984
4.08255	92.0627
4.07933	92.0961
4.07613	92.0936
4.07292	92.065
4.06973	92.0667
4.06654	92.0668
4.06335	92.0321
4.06017	91.9757
4.05699	92.0106
4.05382	92.0444
4.05065	91.9592
4.04749	91.8785
4.04433	91.9334
4.04118	91.9288
4.03803	91.8645
4.03489	91.8592
4.03175	91.8025
4.02862	91.7401
4.02549	91.7415
4.02237	91.7596
4.01925	91.7694
4.01614	91.809
4.01303	91.7375
4.00993	91.702
4.00683	91.7119
4.00373	91.7018
4.00064	91.6589
3.99756	91.7283
3.99448	91.8062
3.9914	91.7972
3.98833	91.771
3.98527	91.8038
3.98221	91.8397
3.97915	91.8113
3.9761	91.7098
3.97305	91.6067
3.97001	91.5848
3.96697	91.5742
3.96394	91.5728
3.96091	91.5739
3.95789	91.5521
3.95487	91.551
3.95186	91.6018
3.94885	91.5816
3.94584	91.4662
3.94284	91.4558
3.93984	91.5712
3.93685	91.5582
3.93386	91.5606
3.93088	91.6105
3.9279	91.5965
3.92493	91.5777
3.92196	91.5849
3.919	91.5467
3.91604	91.5292
3.91308	91.5692
3.91013	91.6219
3.90718	91.6337
3.90424	91.6389
3.9013	91.6224
3.89837	91.6713
3.89544	91.7249
3.89252	91.6652
3.8896	91.6991
3.88668	91.7485
3.88377	91.63
3.88086	91.5843
3.87796	91.6202
3.87506	91.6442
3.87217	91.6943
3.86928	91.7086
3.86639	91.6984
3.86351	91.6827
3.86064	91.6746
3.85776	91.6992
3.8549	91.7254
3.85203	91.7396
3.84917	91.7763
3.84631	91.7641
3.84346	91.7784
3.84062	91.7617
3.83777	91.6526
3.83494	91.6198
3.8321	91.6796
3.82927	91.7641
3.82644	91.7671
3.82362	91.702
3.82081	91.6785
3.81799	91.6524
3.81518	91.6545
3.81238	91.6059
3.80958	91.5761
3.80678	91.6249
3.80399	91.6363
3.8012	91.6725
3.79841	91.7352
3.79563	91.6934
3.79286	91.6717
3.79008	91.6755
3.78731	91.6666
3.78455	91.704
3.78179	91.7261
3.77903	91.6664
3.77628	91.5831
3.77353	91.6425
3.77079	91.7364
3.76805	91.6882
3.76531	91.6842
3.76258	91.7145
3.75985	91.6661
3.75713	91.6065
3.7544	91.5758
3.75169	91.5837
3.74898	91.6643
3.74627	91.7416
3.74356	91.6784
3.74086	91.6705
3.73816	91.6858
3.73547	91.7089
3.73278	91.6855
3.7301	91.6231
3.72741	91.6073
3.72474	91.5821
3.72206	91.586
3.71939	91.5987
3.71673	91.6609
3.71406	91.6752
3.71141	91.6608
3.70875	91.6699
3.7061	91.6204
3.70345	91.6051
3.70081	91.6564
3.69817	91.6957
3.69553	91.671
3.6929	91.5827
3.69027	91.5572
3.68765	91.5488
3.68503	91.5477
3.68241	91.5426
3.6798	91.5303
3.67719	91.5563
3.67458	91.5229
3.67198	91.5029
3.66938	91.5185
3.66678	91.5275
3.66419	91.5489
3.66161	91.5127
3.65902	91.4454
3.65644	91.4521
3.65387	91.4471
3.65129	91.4629
3.64872	91.5287
3.64616	91.5123
3.64359	91.4551
3.64103	91.4991
3.63848	91.5487
3.63593	91.5158
3.63338	91.4255
3.63084	91.4388
3.6283	91.4923
3.62576	91.4743
3.62322	91.4108
3.62069	91.3939
3.61817	91.4005
3.61564	91.4088
3.61312	91.3829
3.61061	91.3794
3.6081	91.375
3.60559	91.3507
3.60308	91.2912
3.60058	91.2974
3.59808	91.3515
3.59558	91.3862
3.59309	91.3395
3.59061	91.3352
3.58812	91.3116
3.58564	91.2549
3.58316	91.2208
3.58069	91.23
3.57822	91.2383
3.57575	91.2282
3.57328	91.2344
3.57082	91.1621
3.56836	91.1646
3.56591	91.1702
3.56346	91.1832
3.56101	91.2262
3.55857	91.1286
3.55613	91.0717
3.55369	91.0686
3.55126	91.046
3.54883	91.0245
3.5464	90.9616
3.54397	90.9355
3.54155	90.9189
3.53914	90.842
3.53672	90.8668
3.53431	90.8441
3.5319	90.7211
3.5295	90.5566
3.5271	90.4308
3.5247	90.3188
3.52231	90.0854
3.51991	89.7832
3.51753	89.5172
3.51514	89.1728
3.51276	88.7209
3.51038	88.2667
3.50801	87.8412
3.50563	87.6427
3.50327	87.5507
3.5009	87.642
3.49854	87.9478
3.49618	88.2357
3.49382	88.444
3.49147	88.6597
3.48912	88.8295
3.48677	88.887
3.48443	88.9787
3.48209	89.0409
3.47975	89.002
3.47742	88.9598
3.47509	88.9579
3.47276	88.9833
3.47044	89.0103
3.46812	89.0172
3.4658	89.0278
3.46348	89.0008
3.46117	88.9537
3.45886	88.8091
3.45656	88.6265
3.45425	88.4385
3.45195	88.319
3.44966	88.2424
3.44736	88.0768
3.44507	87.8635
3.44279	87.7045
3.4405	87.5906
3.43822	87.3804
3.43594	87.0513
3.43367	86.6251
3.43139	86.1658
3.42912	85.7076
3.42686	85.1106
3.42459	84.5387
3.42233	84.1756
3.42007	84.0441
3.41782	84.124
3.41557	84.4292
3.41332	84.8849
3.41108	85.4109
3.40883	85.936
3.40659	86.3582
3.40435	86.799
3.40212	87.2004
3.39989	87.5655
3.39766	87.8199
3.39544	87.9407
3.39322	88.0686
3.391	88.1189
3.38878	87.9855
3.38657	87.8368
3.38436	87.6731
3.38215	87.4647
3.37994	87.4694
3.37774	87.5765
3.37554	87.6578
3.37335	87.9067
3.37115	88.1823
3.36896	88.4371
3.36678	88.7425
3.36459	89.1183
3.36241	89.4415
3.36023	89.6804
3.35805	89.8907
3.35588	90.0761
3.35371	90.2021
3.35154	90.3273
3.34938	90.4198
3.34721	90.4908
3.34505	90.4772
3.3429	90.5785
3.34074	90.6756
3.33859	90.6262
3.33644	90.6043
3.3343	90.5975
3.33215	90.5842
3.33001	90.606
3.32788	90.6221
3.32574	90.6846
3.32361	90.7238
3.32148	90.701
3.31936	90.724
3.31723	90.7719
3.31511	90.8232
3.31299	90.7996
3.31088	90.7856
3.30876	90.8216
3.30665	90.8285
3.30455	90.7689
3.30244	90.7337
3.30034	90.7474
3.29824	90.8103
3.29614	90.8302
3.29405	90.8598
3.29196	90.7955
3.28987	90.7667
3.28778	90.8116
3.2857	90.8087
3.28362	90.7463
3.28154	90.7324
3.27946	90.7505
3.27739	90.7316
3.27532	90.7696
3.27325	90.8327
3.27119	90.8166
3.26913	90.8017
3.26707	90.7491
3.26501	90.7151
3.26295	90.742
3.2609	90.7172
3.25885	90.6935
3.2568	90.6689
3.25476	90.6472
3.25272	90.6669
3.25068	90.6689
3.24864	90.7189
3.24661	90.7161
3.24458	90.6762
3.24255	90.6496
3.24052	90.6857
3.2385	90.7303
3.23648	90.7683
3.23446	90.7783
3.23244	90.7257
3.23043	90.689
3.22841	90.6312
3.2264	90.6391
3.2244	90.6387
3.22239	90.6224
3.22039	90.6591
3.21839	90.6837
3.2164	90.6617
3.2144	90.5873
3.21241	90.5184
3.21042	90.5502
3.20844	90.6006
3.20645	90.6544
3.20447	90.6976
3.20249	90.6654
3.20051	90.5662
3.19854	90.4626
3.19657	90.4613
3.1946	90.4875
3.19263	90.4988
3.19067	90.4649
3.1887	90.465
3.18674	90.5306
3.18479	90.4764
3.18283	90.4479
3.18088	90.4401
3.17893	90.4256
3.17698	90.3953
3.17504	90.3634
3.17309	90.4018
3.17115	90.3383
3.16921	90.2709
3.16728	90.2771
3.16534	90.3573
3.16341	90.3392
3.16148	90.2947
3.15956	90.3027
3.15763	90.3147
3.15571	90.3066
3.15379	90.3093
3.15187	90.2496
3.14996	90.2103
3.14805	90.1396
3.14614	90.1652
3.14423	90.1899
3.14232	90.1108
3.14042	90.1233
3.13852	90.2002
3.13662	90.237
3.13472	90.1872
3.13283	90.1149
3.13094	90.0538
3.12905	90.0767
3.12716	90.0765
3.12528	89.9998
3.12339	89.9795
3.12151	89.9581
3.11964	89.8798
3.11776	89.9063
3.11589	89.9741
3.11401	89.9861
3.11214	90.0289
3.11028	89.9082
3.10841	89.7738
3.10655	89.8755
3.10469	89.9973
3.10283	89.9295
3.10098	89.898
3.09912	89.9017
3.09727	89.9289
3.09542	89.9205
3.09358	89.8396
3.09173	89.7343
3.08989	89.7599
3.08805	89.8673
3.08621	89.8388
3.08437	89.7155
3.08254	89.6807
3.08071	89.6612
3.07888	89.7252
3.07705	89.7725
3.07523	89.7538
3.0734	89.7492
3.07158	89.7342
3.06977	89.6585
3.06795	89.519
3.06613	89.5625
3.06432	89.6989
3.06251	89.7341
3.0607	89.6505
3.0589	89.5324
3.0571	89.5075
3.05529	89.583
3.05349	89.6398
3.0517	89.5178
3.0499	89.4566
3.04811	89.5386
3.04632	89.5328
3.04453	89.4319
3.04274	89.4818
3.04096	89.515
3.03918	89.435
3.0374	89.4241
3.03562	89.3605
3.03384	89.3008
3.03207	89.4257
3.03029	89.4831
3.02852	89.4719
3.02676	89.4467
3.02499	89.4598
3.02323	89.5408
3.02146	89.5576
3.0197	89.4438
3.01795	89.3388
3.01619	89.2503
3.01444	89.2657
3.01269	89.3742
3.01094	89.3874
3.00919	89.33
3.00744	89.3182
3.0057	89.3505
3.00396	89.36
3.00222	89.3951
3.00048	89.2141
2.99875	89.1958
2.99701	89.3894
2.99528	89.4001
2.99355	89.3287
2.99183	89.2787
2.9901	89.2614
2.98838	89.2782
2.98666	89.2336
2.98494	89.1681
2.98322	89.2295
2.9815	89.3305
2.97979	89.2683
2.97808	89.1799
2.97637	89.1715
2.97466	89.2367
2.97295	89.3206
2.97125	89.4382
2.96955	89.4191
2.96785	89.3706
2.96615	89.3067
2.96446	89.199
2.96276	89.2129
2.96107	89.2529
2.95938	89.2157
2.95769	89.212
2.95601	89.2505
2.95432	89.3423
2.95264	89.3991
2.95096	89.3325
2.94928	89.417
2.9476	89.4793
2.94593	89.3437
2.94425	89.1898
2.94258	89.2303
2.94092	89.3519
2.93925	89.3345
2.93758	89.3645
2.93592	89.3653
2.93426	89.345
2.9326	89.3097
2.93094	89.3298
2.92928	89.4277
2.92763	89.4924
2.92598	89.4314
2.92433	89.4885
2.92268	89.4663
2.92103	89.4372
2.91939	89.4579
2.91775	89.5639
2.9161	89.523
2.91447	89.4525
2.91283	89.5041
2.91119	89.5442
2.90956	89.648
2.90793	89.6973
2.9063	89.5845
2.90467	89.478
2.90304	89.5853
2.90142	89.6941
2.89979	89.6236
2.89817	89.6808
2.89656	89.6605
2.89494	89.5941
2.89332	89.5637
2.89171	89.4833
2.8901	89.5379
2.88849	89.6495
2.88688	89.6704
2.88527	89.6731
2.88367	89.6382
2.88206	89.6459
2.88046	89.7133
2.87886	89.7347
2.87727	89.6989
2.87567	89.6312
2.87408	89.6388
2.87248	89.8284
2.87089	89.9083
2.8693	89.7796
2.86772	89.7335
2.86613	89.7649
2.86455	89.8268
2.86297	89.831
2.86139	89.7988
2.85981	89.8337
2.85823	89.919
2.85666	89.9582
2.85508	89.9866
2.85351	89.9822
2.85194	89.8533
2.85038	89.9403
2.84881	90.0679
2.84724	90.1147
2.84568	90.1008
2.84412	90.0075
2.84256	89.9334
2.841	90.0044
2.83945	90.1843
2.83789	90.1885
2.83634	90.1908
2.83479	90.2574
2.83324	90.1649
2.83169	90.0732
2.83015	90.0326
2.82861	90.0705
2.82706	90.1224
2.82552	90.1908
2.82398	90.261
2.82245	90.3176
2.82091	90.5209
2.81938	90.6055
2.81784	90.3426
2.81631	90.3059
2.81479	90.4657
2.81326	90.3356
2.81173	90.2375
2.81021	90.2597
2.80869	90.335
2.80716	90.4176
2.80565	90.6098
2.80413	91.0911
2.80261	91.1778
2.8011	90.6765
2.79959	90.4381
2.79808	90.4447
2.79657	90.4547
2.79506	90.4053
2.79355	90.3901
2.79205	90.3692
2.79055	90.487
2.78904	90.9683
2.78754	91.5105
2.78605	91.3311
2.78455	90.8216
2.78306	90.9154
2.78156	91.0182
2.78007	90.8694
2.77858	90.8786
2.77709	90.9639
2.77561	90.757
2.77412	90.7329
2.77264	91.0403
2.77116	91.5264
2.76968	91.4481
2.7682	91.378
2.76672	91.2116
2.76524	91.1837
2.76377	91.6921
2.7623	91.739
2.76083	91.0116
2.75936	90.7473
2.75789	91.1314
2.75642	92.5308
2.75496	92.9414
2.7535	91.5261
2.75203	91.1513
2.75057	91.0083
2.74912	90.8431
2.74766	90.9483
2.7462	91.0646
2.74475	91.0029
2.7433	91.3061
2.74185	92.4534
2.7404	93.4095
2.73895	92.8671
2.7375	91.5426
2.73606	91.5522
2.73462	91.808
2.73318	91.2351
2.73174	91.0657
2.7303	91.009
2.72886	90.9975
2.72742	91.3334
2.72599	92.3093
2.72456	93.1688
2.72313	92.4485
2.7217	92.903
2.72027	93.5499
2.71884	92.1161
2.71742	91.4597
2.71599	91.1655
2.71457	91.2145
2.71315	91.524
2.71173	92.7548
2.71032	93.0973
2.7089	92.262
2.70748	91.4822
2.70607	91.1264
2.70466	91.0958
2.70325	91.2286
2.70184	91.7168
2.70043	91.6358
2.69903	91.2384
2.69762	91.377
2.69622	92.081
2.69482	92.9366
2.69342	92.9472
2.69202	91.952
2.69062	91.4899
2.68923	91.5304
2.68783	91.7348
2.68644	91.9548
2.68505	91.9688
2.68366	92.0915
2.68227	91.7813
2.68089	91.8686
2.6795	92.9054
2.67812	93.2007
2.67673	93.4526
2.67535	92.7039
2.67397	91.9203
2.6726	92.2205
2.67122	94.3144
2.66984	94.4977
2.66847	93.15
2.6671	94.1592
2.66572	94.4985
2.66435	93.4662
2.66299	92.0397
2.66162	91.9861
2.66025	92.1032
2.65889	91.9352
2.65753	91.518
2.65616	91.8663
2.65481	91.9
2.65345	92.1238
2.65209	92.2236
2.65073	91.7113
2.64938	91.396
2.64803	91.4366
2.64667	91.8144
2.64532	91.8891
2.64397	91.424
2.64263	91.4661
2.64128	91.3993
2.63994	91.3521
2.63859	91.34
2.63725	91.3636
2.63591	91.4068
2.63457	91.869
2.63323	91.9927
2.6319	92.5016
2.63056	93.4996
2.62923	92.5182
2.62789	92.1491
2.62656	92.6961
2.62523	91.7855
2.6239	91.3362
2.62258	91.501
2.62125	92.7237
2.61993	93.1037
2.6186	92.4434
2.61728	93.2535
2.61596	92.795
2.61464	91.7601
2.61332	91.8091
2.61201	91.6281
2.61069	91.8156
2.60938	92.1745
2.60807	92.3792
2.60675	93.0311
2.60544	93.6047
2.60414	92.8157
2.60283	92.2128
2.60152	91.9563
2.60022	91.4915
2.59891	91.2453
2.59761	91.8287
2.59631	93.6358
2.59501	95.6207
2.59371	94.0813
2.59242	92.0112
2.59112	91.5804
2.58983	91.9254
2.58853	92.2288
2.58724	92.3174
2.58595	92.0236
2.58466	92.859
2.58338	93.016
2.58209	92.1559
2.5808	91.9879
2.57952	91.382
2.57824	91.5818
2.57695	92.1745
2.57567	91.8931
2.5744	92.1824
2.57312	92.4294
2.57184	91.6151
2.57057	92.015
2.56929	92.2448
2.56802	91.5202
2.56675	91.2586
2.56548	91.7451
2.56421	92.3757
2.56294	92.5362
2.56168	92.6261
2.56041	92.2018
2.55915	91.4909
2.55789	91.1958
2.55662	91.1477
2.55536	91.1855
2.5541	91.5462
2.55285	91.885
2.55159	91.7083
2.55034	91.5194
2.54908	91.4333
2.54783	91.4739
2.54658	91.3573
2.54533	91.3646
2.54408	91.5444
2.54283	91.5985
2.54159	91.3832
2.54034	91.2955
2.5391	91.2745
2.53785	91.3429
2.53661	91.512
2.53537	91.3636
2.53413	91.2613
2.53289	91.3628
2.53166	91.3577
2.53042	91.2605
2.52919	91.1065
2.52795	91.125
2.52672	91.1973
2.52549	91.1807
2.52426	91.2573
2.52303	91.2959
2.52181	91.2952
2.52058	91.3016
2.51936	91.2283
2.51813	91.231
2.51691	91.2704
2.51569	91.2657
2.51447	91.171
2.51325	91.0564
2.51203	91.0937
2.51082	91.135
2.5096	91.1262
2.50839	91.1493
2.50717	91.2136
2.50596	91.227
2.50475	91.1735
2.50354	91.0863
2.50233	91.0842
2.50113	91.1831
2.49992	91.1677
2.49872	91.1288
2.49751	91.1466
2.49631	91.1154
2.49511	91.1243
2.49391	91.1439
2.49271	91.1742
2.49151	91.1839
2.49031	91.1445
2.48912	91.0959
2.48792	91.1316
2.48673	91.0966
2.48554	91.0502
2.48435	91.1057
2.48316	91.1841
2.48197	91.1878
2.48078	91.1154
2.4796	91.1794
2.47841	91.1866
2.47723	91.1432
2.47604	91.0993
2.47486	91.1477
2.47368	91.2189
2.4725	91.1709
2.47132	91.0897
2.47014	91.149
2.46897	91.1799
2.46779	91.1058
2.46662	91.1436
2.46545	91.0841
2.46427	91.0594
2.4631	91.1847
2.46193	91.2184
2.46077	91.1511
2.4596	91.1106
2.45843	91.1043
2.45727	91.0438
2.4561	91.0732
2.45494	91.1323
2.45378	91.0466
2.45262	91.0659
2.45146	91.1717
2.4503	91.0974
2.44914	91.1053
2.44799	91.1049
2.44683	91.1333
2.44568	91.2342
2.44452	91.1916
2.44337	91.1972
2.44222	91.2043
2.44107	91.1474
2.43992	91.1338
2.43877	91.1326
2.43763	91.098
2.43648	91.1215
2.43534	91.1164
2.43419	91.141
2.43305	91.1465
2.43191	91.1244
2.43077	91.1301
2.42963	91.074
2.42849	91.0199
2.42736	91.0202
2.42622	91.0499
2.42509	91.0001
2.42395	91.0377
2.42282	91.0462
2.42169	91.089
2.42056	91.247
2.41943	91.2731
2.4183	91.2164
2.41717	91.1088
2.41605	90.9541
2.41492	90.9678
2.4138	91.1165
2.41267	91.1666
2.41155	91.0779
2.41043	90.9757
2.40931	90.9745
2.40819	90.9833
2.40707	91.024
2.40595	91.1549
2.40484	91.1587
2.40372	91.1821
2.40261	91.1141
2.4015	90.9973
2.40039	91.0014
2.39928	91.1673
2.39817	91.2088
2.39706	91.145
2.39595	91.1164
2.39484	91.1087
2.39374	91.0491
2.39263	91.0135
2.39153	91.0351
2.39043	91.1174
2.38932	91.1098
2.38822	91.0241
2.38712	91.0828
2.38603	91.0624
2.38493	91.0611
2.38383	91.0924
2.38274	91.1629
2.38164	91.0808
2.38055	91.0755
2.37946	91.1495
2.37836	91.1436
2.37727	91.0844
2.37618	91.0326
2.3751	91.0248
2.37401	91.067
2.37292	91.0771
2.37184	91.1039
2.37075	91.123
2.36967	91.1457
2.36859	90.998
2.3675	90.8436
2.36642	90.9653
2.36534	91.1213
2.36427	91.0866
2.36319	91.0757
2.36211	91.0719
2.36104	90.9634
2.35996	90.9883
2.35889	91.059
2.35781	91.0861
2.35674	91.0761
2.35567	91.0361
2.3546	91.1326
2.35353	91.1265
2.35247	91.0631
2.3514	91.0379
2.35033	91.0879
2.34927	91.0873
2.3482	90.9914
2.34714	90.9522
2.34608	91.023
2.34502	91.0826
2.34396	91.162
2.3429	91.1432
2.34184	91.039
2.34078	91.0186
2.33973	90.9288
2.33867	90.9871
2.33762	90.9826
2.33656	90.9887
2.33551	91.1208
2.33446	91.0505
2.33341	90.9663
2.33236	90.9797
2.33131	91.0286
2.33026	91.0978
2.32922	91.2377
2.32817	91.1263
2.32712	91.0095
2.32608	90.9437
2.32504	90.8824
2.324	90.9058
2.32295	90.9937
2.32191	91.0891
2.32087	91.0967
2.31984	91.0041
2.3188	90.9546
2.31776	90.9794
2.31673	90.9961
2.31569	91.0159
2.31466	91.0527
2.31362	91.0438
2.31259	90.9386
2.31156	90.7679
2.31053	90.8137
2.3095	90.9307
2.30847	91.0366
2.30745	91.0806
2.30642	91.1658
2.3054	91.0447
2.30437	90.9099
2.30335	90.8712
2.30232	91.0039
2.3013	91.1519
2.30028	91.1243
2.29926	90.9994
2.29824	90.9825
2.29722	91.0076
2.29621	90.9301
2.29519	90.9095
2.29417	90.9925
2.29316	91.0294
2.29215	91.0354
2.29113	91.0024
2.29012	91.0097
2.28911	91.0308
2.2881	91.0523
2.28709	91.0087
2.28608	90.9571
2.28507	90.9205
2.28407	90.9442
2.28306	90.973
2.28206	90.8727
2.28105	90.9239
2.28005	91.1176
2.27905	90.9883
2.27805	90.9181
2.27705	91.0136
2.27605	91.0154
2.27505	90.9377
2.27405	90.8948
2.27305	90.8348
2.27206	90.9498
2.27106	91.1117
2.27007	91.1607
2.26907	91.0896
2.26808	91.0902
2.26709	91.0861
2.2661	90.9348
2.26511	90.9187
2.26412	90.9218
2.26313	90.8861
2.26214	91.0928
2.26116	91.0882
2.26017	91.0165
2.25919	91.0138
2.2582	91.0376
2.25722	91.0872
2.25624	91.0759
2.25526	90.9818
2.25428	90.975
2.2533	91.0131
2.25232	91.0793
2.25134	91.0535
2.25036	90.919
2.24939	90.9148
2.24841	90.9502
2.24744	90.9878
2.24646	90.9749
2.24549	90.9996
2.24452	91.0341
2.24355	91.018
2.24257	91.016
2.24161	91.0053
2.24064	90.9815
2.23967	91.0513
2.2387	91.0973
2.23774	91.0949
2.23677	91.0579
2.23581	91.0452
2.23484	90.957
2.23388	90.9584
2.23292	91.009
2.23196	90.9811
2.231	91.0254
2.23004	91.0457
2.22908	91.0192
2.22812	91.0744
2.22716	91.0286
2.22621	90.9513
2.22525	90.9464
2.2243	90.8462
2.22334	90.8071
2.22239	91.0677
2.22144	91.1174
2.22049	90.9663
2.21953	90.993
2.21859	91.036
2.21764	90.9541
2.21669	90.9039
2.21574	90.9712
2.21479	90.9872
2.21385	90.9271
2.2129	90.8927
2.21196	90.9045
2.21102	90.9872
2.21007	90.989
2.20913	90.9209
2.20819	90.9723
2.20725	91.0349
2.20631	91.0779
2.20537	91.0477
2.20444	90.8503
2.2035	90.8945
2.20256	90.908
2.20163	90.9321
2.20069	90.9937
2.19976	91.0855
2.19883	91.1047
2.19789	90.9674
2.19696	90.9715
2.19603	91.1151
2.1951	91.1129
2.19417	90.9431
2.19325	90.7671
2.19232	90.7797
2.19139	90.9423
2.19047	90.9658
2.18954	90.9507
2.18862	90.9357
2.18769	90.9895
2.18677	91.0954
2.18585	91.0945
2.18493	90.9914
2.18401	90.9215
2.18309	90.9413
2.18217	90.9314
2.18125	90.8136
2.18033	90.7817
2.17942	90.943
2.1785	91.0329
2.17759	91.0344
2.17667	91.0165
2.17576	91.0049
2.17485	90.9968
2.17393	90.9193
2.17302	90.8013
2.17211	90.8114
2.1712	90.82
2.17029	90.7992
2.16939	90.7276
2.16848	90.7103
2.16757	90.9622
2.16667	91.0722
2.16576	90.9617
2.16486	90.7775
2.16395	90.7498
2.16305	90.8544
2.16215	90.8357
2.16125	90.8599
2.16035	90.9619
2.15945	90.9962
2.15855	90.9357
2.15765	90.8036
2.15675	90.8113
2.15586	90.8935
2.15496	91.0478
2.15406	91.06
2.15317	90.948
2.15228	90.9342
2.15138	91.0694
2.15049	90.9985
2.1496	90.8213
2.14871	90.6417
2.14782	90.6963
2.14693	90.8177
2.14604	90.7598
2.14515	90.7707
2.14427	90.8315
2.14338	90.9369
2.14249	90.9253
2.14161	90.9376
2.14072	91.1044
2.13984	91.0385
2.13896	90.8865
2.13808	90.8583
2.13719	90.8474
2.13631	90.8871
2.13543	90.8449
2.13455	90.7843
2.13368	90.7558
2.1328	90.7947
2.13192	90.8309
2.13105	90.9594
2.13017	90.9523
2.1293	90.8907
2.12842	90.9536
2.12755	90.9231
2.12668	90.9204
2.1258	90.8401
2.12493	90.7927
2.12406	90.8614
2.12319	90.8648
2.12232	90.8799
2.12145	90.9815
2.12059	91.0239
2.11972	90.918
2.11885	90.8131
2.11799	90.7134
2.11712	90.672
2.11626	90.7816
2.1154	90.9338
2.11453	90.8227
2.11367	90.9053
2.11281	91.228
2.11195	91.1615
2.11109	90.9574
2.11023	90.7691
2.10937	90.7668
2.10851	90.853
2.10766	90.9429
2.1068	90.9901
2.10594	90.9207
2.10509	90.7609
2.10423	90.6436
2.10338	90.6143
2.10253	90.6194
2.10168	90.6903
2.10082	90.827
2.09997	90.9146
2.09912	91.0033
2.09827	90.971
2.09742	90.9433
2.09658	90.8885
2.09573	90.7272
2.09488	90.605
2.09404	90.651
2.09319	90.8284
2.09235	90.8289
2.0915	90.8764
2.09066	90.8513
2.08982	90.7216
2.08897	90.602
2.08813	90.6779
2.08729	90.7888
2.08645	90.9536
2.08561	91.039
2.08477	90.9297
2.08394	90.9144
2.0831	91.0423
2.08226	90.8846
2.08143	90.6619
2.08059	90.7787
2.07976	90.7699
2.07892	90.6478
2.07809	90.7944
2.07726	90.9229
2.07643	90.8586
2.07559	90.7751
2.07476	90.8493
2.07393	90.7503
2.0731	90.3845
2.07228	90.6115
2.07145	91.0169
2.07062	91.1596
2.06979	90.9486
2.06897	90.8725
2.06814	91.1938
2.06732	91.302
2.06649	90.9127
2.06567	90.8551
2.06485	90.9905
2.06403	91.1813
2.0632	91.2018
2.06238	90.8656
2.06156	90.5827
2.06074	90.6574
2.05993	90.8004
2.05911	90.7783
2.05829	90.7768
2.05747	90.649
2.05666	90.6471
2.05584	90.7881
2.05503	90.7827
2.05421	90.8427
2.0534	90.8544
2.05259	90.8472
2.05177	90.9676
2.05096	90.9475
2.05015	90.7546
2.04934	90.7249
2.04853	90.7555
2.04772	90.7866
2.04691	90.8346
2.04611	90.8261
2.0453	90.7067
2.04449	90.636
2.04369	90.724
2.04288	90.7854
2.04208	90.9245
2.04127	90.9654
2.04047	90.8081
2.03967	90.8075
2.03886	90.824
2.03806	90.7103
2.03726	90.7658
2.03646	90.8271
2.03566	90.8818
2.03486	90.9245
2.03407	90.9667
2.03327	90.9337
2.03247	90.7116
2.03167	90.5344
2.03088	90.5849
2.03008	90.7055
2.02929	90.8886
2.0285	91.0203
2.0277	90.9363
2.02691	90.7392
2.02612	90.6236
2.02533	90.5531
2.02453	90.6313
2.02374	90.8825
2.02295	91.0082
2.02217	90.9349
2.02138	90.7697
2.02059	90.6563
2.0198	90.6612
2.01902	90.7512
2.01823	90.9124
2.01744	90.9999
2.01666	90.9346
2.01588	90.7895
2.01509	90.6745
2.01431	90.7559
2.01353	90.7989
2.01275	90.8022
2.01196	90.8834
2.01118	90.8251
2.0104	90.709
2.00963	90.738
2.00885	90.739
2.00807	90.7717
2.00729	90.7149
2.00651	90.712
2.00574	90.6915
2.00496	90.7212
2.00419	90.7849
2.00341	90.8127
2.00264	90.7852
2.00187	90.6389
2.00109	90.6278
2.00032	90.6584
