Name: Calcite CaCO_3
Type: Mineral
Class: Carbonates
Subclass: 
Particle Size: 125-500um
Sample No.: C-3E
Owner: JPL
Wavelength range: IR
Origin: 
Collected by JPL
Description: 





Measurement: Hemispherical reflectance
First Column: X
Second Column: Y
X Units:  Wavelength (micrometers)
Y Units:  Reflectance (percent)
First X Value: 15.3853
Last X Value: 2.00032
Number of X Values: 2256
Additional information: c03ea.txt
 
15.3853	10.0063
15.3397	10.0428
15.2945	10.59
15.2495	11.1276
15.2048	11.4249
15.1603	11.8049
15.1161	12.0316
15.0722	12.3238
15.0285	12.5208
14.9851	12.7216
14.9419	13.1102
14.8989	13.3102
14.8563	13.6129
14.8138	13.9764
14.7716	14.1776
14.7296	14.1978
14.6879	14.079
14.6464	13.6863
14.6052	13.2679
14.5641	12.9187
14.5233	12.3245
14.4828	11.6099
14.4424	10.4301
14.4023	9.27678
14.3624	8.43924
14.3227	7.23449
14.2833	6.09201
14.244	5.34473
14.205	4.59624
14.1662	4.05796
14.1276	4.04196
14.0892	4.34277
14.051	4.65499
14.0131	3.69431
13.9753	1.99465
13.9377	1.62073
13.9004	2.18012
13.8632	3.27051
13.8262	4.69113
13.7895	6.25085
13.7529	7.97986
13.7165	9.48846
13.6803	10.8891
13.6443	12.4092
13.6085	13.6784
13.5729	14.9776
13.5374	16.117
13.5022	17.0989
13.4671	17.9308
13.4322	18.5574
13.3975	18.9177
13.363	18.97
13.3286	18.7317
13.2944	18.4307
13.2604	18.0118
13.2266	17.4594
13.193	16.7659
13.1595	15.8383
13.1262	14.8344
13.093	13.893
13.06	13.0972
13.0272	12.2069
12.9946	11.3613
12.9621	10.8519
12.9298	10.5528
12.8976	10.4908
12.8656	10.2934
12.8337	10.1804
12.8021	10.3233
12.7705	10.3394
12.7391	10.323
12.7079	10.434
12.6769	10.7463
12.6459	11.1764
12.6152	11.4642
12.5845	11.5714
12.5541	11.7999
12.5238	11.9869
12.4936	12.2247
12.4635	12.5571
12.4337	12.8044
12.4039	12.8969
12.3743	12.8044
12.3448	12.8088
12.3155	12.7342
12.2863	12.7282
12.2573	12.9715
12.2284	13.3989
12.1996	13.7976
12.171	14.1671
12.1425	14.3152
12.1141	14.2158
12.0859	14.1786
12.0578	14.163
12.0298	13.9083
12.0019	13.5274
11.9742	13.22
11.9466	12.8695
11.9192	12.1211
11.8918	11.2245
11.8646	10.2245
11.8375	8.72533
11.8106	7.0145
11.7837	6.44278
11.757	7.50208
11.7304	8.50396
11.7039	8.59124
11.6776	8.25628
11.6513	7.90511
11.6252	7.80007
11.5992	7.78481
11.5733	7.75492
11.5475	7.69624
11.5219	7.93473
11.4963	8.31101
11.4709	8.74507
11.4455	9.60496
11.4203	12.0204
11.3952	16.538
11.3702	20.6462
11.3454	22.3507
11.3206	22.93
11.2959	23.9408
11.2714	22.9504
11.2469	17.5066
11.2226	11.9489
11.1983	9.84566
11.1742	9.47656
11.1502	9.55206
11.1263	9.72807
11.1024	9.92801
11.0787	10.1974
11.0551	10.604
11.0316	10.8552
11.0081	11.0246
10.9848	11.2912
10.9616	11.5442
10.9385	11.6448
10.9154	11.6112
10.8925	11.4081
10.8697	11.218
10.8469	10.8459
10.8243	10.265
10.8017	9.68081
10.7793	9.0864
10.7569	8.54011
10.7346	8.05814
10.7125	7.66082
10.6904	7.58841
10.6684	7.6874
10.6465	7.84115
10.6247	7.91637
10.6029	8.03138
10.5813	8.02066
10.5597	7.83548
10.5383	7.85886
10.5169	8.02075
10.4956	8.26839
10.4744	8.67792
10.4533	9.17515
10.4323	9.44494
10.4113	9.565
10.3904	9.71394
10.3697	9.81674
10.349	9.70372
10.3284	9.73268
10.3078	9.74477
10.2874	9.55799
10.267	9.17806
10.2467	8.71471
10.2265	8.26427
10.2064	8.13736
10.1863	8.30671
10.1663	8.45666
10.1464	8.40582
10.1266	8.20943
10.1069	8.00523
10.0872	7.64868
10.0676	7.32589
10.0481	7.25213
10.0287	7.34396
10.0093	7.24355
9.99005	7.04636
9.97084	7.05387
9.95169	7.01373
9.93263	6.82751
9.91364	6.63445
9.89472	6.52953
9.87587	6.49928
9.8571	6.45199
9.83839	6.53926
9.81976	6.7265
9.80119	6.8587
9.78271	6.93538
9.76428	6.97776
9.74592	7.03646
9.72764	7.25698
9.70943	7.67609
9.69128	8.23962
9.6732	8.78154
9.65518	9.18212
9.63724	9.29907
9.61935	9.39456
9.60155	9.57268
9.5838	9.66422
9.56611	9.70279
9.5485	9.8622
9.53094	10.1651
9.51345	10.353
9.49604	10.3481
9.47867	10.235
9.46137	10.2948
9.44414	10.3406
9.42697	10.1887
9.40986	9.9189
9.39281	9.45102
9.37583	9.05929
9.35891	8.99068
9.34204	8.90347
9.32524	9.12225
9.3085	9.4665
9.29182	9.6866
9.27519	9.56884
9.25863	9.03042
9.24213	8.20387
9.22568	7.8483
9.2093	8.13176
9.19297	8.68453
9.17669	9.37858
9.16048	9.73285
9.14433	9.91507
9.12823	10.0147
9.11218	10.0465
9.0962	10.0389
9.08027	9.99419
9.06439	9.8928
9.04858	9.92898
9.03281	9.97674
9.0171	10.0025
9.00145	9.86936
8.98585	9.49952
8.9703	9.29834
8.9548	9.17499
8.93937	8.9826
8.92398	8.90755
8.90865	8.88724
8.89337	8.71451
8.87814	8.5183
8.86296	8.39068
8.84784	8.28469
8.83277	8.1292
8.81774	7.84004
8.80277	7.54395
8.78786	7.31084
8.77298	7.08401
8.75816	6.81263
8.7434	6.55106
8.72868	6.41887
8.714	6.24965
8.69938	6.08056
8.68481	5.9514
8.67029	5.81232
8.65581	5.636
8.64139	5.41422
8.62701	5.22972
8.61268	5.10312
8.5984	5.04541
8.58416	5.14406
8.56997	5.23376
8.55583	5.14035
8.54174	5.14002
8.52769	5.2166
8.51368	5.16706
8.49973	5.17756
8.48582	5.27123
8.47195	5.24642
8.45813	5.192
8.44436	5.21273
8.43062	5.19445
8.41693	5.23862
8.4033	5.30199
8.3897	5.41062
8.37614	5.55372
8.36264	5.63516
8.34917	5.64217
8.33574	5.77625
8.32236	5.90056
8.30903	5.9643
8.29573	5.8491
8.28248	5.76893
8.26927	5.91263
8.2561	6.12342
8.24298	6.19579
8.2299	6.12736
8.21685	6.08154
8.20385	6.14145
8.19089	6.18692
8.17797	6.13518
8.16509	6.06865
8.15225	6.03169
8.13946	6.07245
8.1267	6.15516
8.11398	5.99492
8.10131	5.87419
8.08867	5.94731
8.07606	5.92793
8.0635	5.93318
8.05099	6.0249
8.0385	6.06503
8.02606	6.14751
8.01366	6.24358
8.00129	6.34839
7.98896	6.36294
7.97667	6.40129
7.96442	6.42654
7.9522	6.35142
7.94002	6.34113
7.92788	6.29037
7.91578	6.25986
7.90371	6.33135
7.89168	6.35765
7.87969	6.3535
7.86773	6.40093
7.85581	6.44396
7.84392	6.40115
7.83207	6.40546
7.82026	6.472
7.80849	6.50595
7.79674	6.54113
7.78503	6.6064
7.77337	6.61707
7.76173	6.63021
7.75012	6.73437
7.73856	6.77297
7.72703	6.74061
7.71553	6.78192
7.70406	6.87844
7.69263	6.92506
7.68123	6.89441
7.66987	6.80674
7.65855	6.79231
7.64725	6.85741
7.63598	6.92349
7.62475	7.09692
7.61356	7.12149
7.60239	7.09932
7.59126	7.18044
7.58017	7.20647
7.5691	7.29428
7.55806	7.46513
7.54707	7.51997
7.5361	7.5328
7.52516	7.57637
7.51425	7.65747
7.50338	7.782
7.49253	7.94146
7.48172	8.06354
7.47094	8.15956
7.46019	8.17814
7.44947	8.25173
7.43879	8.39096
7.42813	8.57486
7.4175	8.68524
7.4069	8.72848
7.39634	8.83813
7.3858	8.96105
7.37529	9.18844
7.36482	9.45689
7.35437	9.63563
7.34396	9.8047
7.33357	10.0054
7.32321	10.1722
7.31288	10.3875
7.30258	10.6538
7.29231	10.935
7.28207	11.2013
7.27185	11.4838
7.26167	11.812
7.25152	12.1147
7.24139	12.3661
7.23129	12.6979
7.22122	13.2363
7.21117	13.874
7.20116	14.492
7.19117	15.1291
7.18121	15.8613
7.17128	16.7847
7.16137	17.5782
7.1515	18.1426
7.14164	18.6064
7.13182	19.2099
7.12203	20.2218
7.11225	21.5614
7.10251	22.8168
7.0928	23.8467
7.08311	24.613
7.07344	25.1204
7.06381	25.5228
7.0542	26.0031
7.04461	26.3154
7.03506	26.3307
7.02552	26.4376
7.01601	26.5677
7.00653	26.6514
6.99708	26.8122
6.98765	26.9447
6.97824	27.0647
6.96886	27.2661
6.95951	27.3649
6.95018	27.1273
6.94087	27.1609
6.9316	27.2962
6.92234	27.4983
6.91311	27.8324
6.90391	28.1761
6.89473	28.4246
6.88557	28.7896
6.87644	29.2679
6.86733	30.0131
6.85824	30.2435
6.84918	30.0728
6.84015	30.2742
6.83114	30.7859
6.82215	31.1483
6.81319	31.4013
6.80424	31.8584
6.79532	32.5924
6.78643	33.1237
6.77756	33.3404
6.76871	33.7331
6.75989	34.3645
6.75109	35.1206
6.74231	35.885
6.73355	36.8444
6.72482	38.0922
6.71611	39.4099
6.70742	40.4418
6.69875	41.0921
6.69011	42.0305
6.68149	42.9967
6.67289	43.3863
6.66431	43.6931
6.65576	44.0897
6.64722	45.0614
6.63871	46.2944
6.63022	46.3339
6.62175	46.096
6.61331	46.4039
6.60488	46.8027
6.59648	47.4512
6.5881	47.9879
6.57974	48.5811
6.5714	49.1701
6.56308	49.0452
6.55478	49.2104
6.54651	49.2221
6.53825	49.0389
6.53001	49.0175
6.5218	49.1473
6.51361	48.6439
6.50544	48.3772
6.49729	48.7305
6.48915	48.1343
6.48104	46.5811
6.47295	44.8861
6.46488	42.5478
6.45683	39.5615
6.4488	35.5072
6.44079	30.8708
6.4328	26.49
6.42482	23.0172
6.41687	20.3967
6.40894	17.6841
6.40103	15.123
6.39314	13.2145
6.38526	11.5717
6.37741	10.1272
6.36957	8.84504
6.36176	7.61868
6.35396	6.60692
6.34618	5.7514
6.33843	4.77624
6.33069	3.98722
6.32297	3.29808
6.31527	2.85887
6.30758	2.44025
6.29992	2.03276
6.29227	1.8127
6.28465	1.63567
6.27704	1.38871
6.26945	1.14521
6.26188	0.990066
6.25432	0.853717
6.24679	0.747808
6.23927	0.683365
6.23177	0.535038
6.22429	0.37959
6.21683	0.280813
6.20938	0.322181
6.20195	0.36181
6.19454	0.369637
6.18715	0.294519
6.17978	0.287991
6.17242	0.311754
6.16508	0.303351
6.15776	0.291501
6.15045	0.350415
6.14317	0.353684
6.1359	0.335355
6.12864	0.325995
6.12141	0.394435
6.11419	0.327245
6.10699	0.184395
6.0998	0.111838
6.09263	0.212442
6.08549	0.309805
6.07835	0.3337
6.07123	0.359661
6.06413	0.410227
6.05705	0.379955
6.04998	0.30054
6.04293	0.351217
6.0359	0.382864
6.02888	0.395789
6.02187	0.371332
6.01489	0.441329
6.00792	0.420761
6.00096	0.464201
5.99403	0.591515
5.98711	0.648849
5.9802	0.608706
5.97331	0.582223
5.96644	0.616539
5.95958	0.63746
5.95274	0.610881
5.94591	0.687779
5.9391	0.738878
5.9323	0.728251
5.92552	0.766792
5.91876	0.806524
5.91201	0.77541
5.90528	0.799058
5.89856	0.856306
5.89186	0.868607
5.88517	0.917721
5.8785	1.02876
5.87184	1.02035
5.8652	0.947265
5.85857	0.959912
5.85196	0.989459
5.84536	0.972183
5.83878	0.959763
5.83221	0.923961
5.82566	0.993032
5.81912	1.08154
5.81259	1.06807
5.80608	0.960564
5.79959	0.908317
5.79311	0.91017
5.78665	0.976466
5.78019	1.0359
5.77376	1.07372
5.76734	1.09419
5.76093	1.05244
5.75453	1.06909
5.74815	1.10868
5.74179	1.1499
5.73543	1.12174
5.7291	1.12505
5.72277	1.19485
5.71646	1.20242
5.71017	1.19722
5.70389	1.2046
5.69762	1.23776
5.69136	1.39111
5.68513	1.41937
5.6789	1.40893
5.67268	1.54346
5.66648	1.6511
5.6603	1.75832
5.65413	1.85594
5.64797	1.90486
5.64182	2.02637
5.63569	2.0655
5.62957	1.9598
5.62347	1.8522
5.61737	1.72032
5.61129	1.54745
5.60522	1.38788
5.59917	1.24066
5.59313	1.18968
5.5871	1.21263
5.58109	1.17736
5.57509	1.12568
5.5691	1.10646
5.56312	0.945545
5.55716	0.819904
5.55121	0.856102
5.54528	0.941406
5.53935	1.09176
5.53344	1.2754
5.52754	1.55752
5.52166	1.91584
5.51578	2.36274
5.50992	2.73937
5.50407	3.07977
5.49823	3.518
5.49241	3.97243
5.4866	4.4245
5.4808	4.90816
5.47501	5.39706
5.46923	5.9089
5.46347	6.44341
5.45772	6.90431
5.45198	7.40982
5.44625	8.04687
5.44054	8.6644
5.43484	9.36819
5.42914	10.072
5.42347	10.7834
5.4178	11.3835
5.41214	12.0158
5.4065	12.7512
5.40087	13.5303
5.39525	14.2268
5.38964	14.8811
5.38404	15.6375
5.37846	16.411
5.37288	17.1023
5.36732	17.7534
5.36177	18.3907
5.35623	19.088
5.35071	19.8504
5.34519	20.4593
5.33968	21.1138
5.33419	21.7845
5.32871	22.4808
5.32324	23.2653
5.31778	24.0289
5.31233	24.8061
5.30689	25.5229
5.30147	26.1628
5.29605	26.8486
5.29065	27.5331
5.28525	28.0421
5.27987	28.5439
5.2745	29.0113
5.26914	29.4268
5.26379	29.88
5.25845	30.4332
5.25312	30.9573
5.24781	31.5516
5.2425	32.0834
5.23721	32.5439
5.23192	32.9344
5.22665	33.2948
5.22138	33.7284
5.21613	34.2493
5.21089	34.6109
5.20566	34.9721
5.20044	35.5003
5.19522	35.8961
5.19002	36.257
5.18483	36.6786
5.17965	36.9988
5.17448	37.1998
5.16933	37.3746
5.16418	37.7613
5.15904	38.2316
5.15391	38.49
5.14879	38.7855
5.14368	39.0583
5.13859	39.2336
5.1335	39.3029
5.12842	39.1107
5.12335	38.5872
5.1183	37.3414
5.11325	34.4518
5.10821	29.8617
5.10318	25.1949
5.09817	23.6978
5.09316	27.7481
5.08816	33.6964
5.08317	38.0787
5.07819	40.6683
5.07322	42.0774
5.06826	42.8177
5.06331	43.239
5.05837	43.4852
5.05344	43.6315
5.04852	43.7044
5.04361	43.8195
5.03871	43.8459
5.03382	43.7692
5.02894	43.7097
5.02406	43.7298
5.0192	43.6827
5.01435	43.513
5.0095	43.3957
5.00467	43.3647
4.99984	43.4184
4.99502	43.3868
4.99021	43.1869
4.98542	43.0017
4.98063	42.8948
4.97585	42.727
4.97108	42.547
4.96632	42.4493
4.96156	42.3122
4.95682	42.1258
4.95209	42.0145
4.94736	41.9673
4.94264	41.8485
4.93794	41.804
4.93324	41.8335
4.92855	41.8552
4.92387	41.8975
4.9192	41.9941
4.91453	42.039
4.90988	42.0511
4.90524	42.0712
4.9006	42.1461
4.89597	42.2634
4.89135	42.3102
4.88674	42.328
4.88214	42.4603
4.87755	42.5759
4.87296	42.6698
4.86839	42.7327
4.86382	42.8016
4.85926	42.9394
4.85471	43.0851
4.85017	43.1123
4.84564	43.1379
4.84111	43.2639
4.8366	43.3532
4.83209	43.4018
4.82759	43.3813
4.8231	43.4106
4.81862	43.4795
4.81415	43.4713
4.80968	43.4209
4.80522	43.3598
4.80077	43.3249
4.79633	43.2929
4.7919	43.2629
4.78747	43.1311
4.78306	42.9127
4.77865	42.5597
4.77425	42.0644
4.76986	41.4504
4.76547	40.6389
4.7611	39.6888
4.75673	38.723
4.75237	37.7563
4.74802	36.8092
4.74367	35.6133
4.73934	34.223
4.73501	32.7595
4.73069	31.1954
4.72638	29.2148
4.72207	26.8557
4.71777	24.2994
4.71348	21.7249
4.7092	19.3103
4.70493	17.2214
4.70066	15.4706
4.69641	14.1717
4.69216	13.1645
4.68791	12.3817
4.68368	11.8325
4.67945	11.5197
4.67523	11.3662
4.67102	11.2338
4.66682	11.3244
4.66262	11.5398
4.65843	11.8892
4.65425	12.5696
4.65007	13.5512
4.64591	14.7625
4.64175	16.2511
4.6376	17.9083
4.63345	19.5021
4.62932	20.8898
4.62519	22.0751
4.62106	23.2627
4.61695	24.4242
4.61284	25.3666
4.60874	26.0618
4.60465	26.5084
4.60056	26.8097
4.59648	27.1724
4.59241	27.5277
4.58835	27.7074
4.58429	27.8636
4.58024	27.9679
4.5762	28.1201
4.57216	28.2663
4.56814	28.2636
4.56411	28.2961
4.5601	28.3561
4.55609	28.4187
4.55209	28.5026
4.5481	28.5476
4.54411	28.5721
4.54013	28.6353
4.53616	28.6198
4.5322	28.5168
4.52824	28.564
4.52429	28.6465
4.52034	28.6994
4.51641	28.8109
4.51247	28.905
4.50855	28.9844
4.50463	29.1484
4.50072	29.4363
4.49682	29.8667
4.49292	30.3718
4.48903	30.9273
4.48515	31.6359
4.48127	32.3872
4.4774	33.2022
4.47354	34.1218
4.46968	34.9373
4.46584	35.4901
4.46199	36.0465
4.45815	36.5672
4.45432	37.1301
4.4505	37.7447
4.44668	38.4156
4.44287	39.1587
4.43907	39.9232
4.43527	40.6729
4.43148	41.3367
4.4277	41.8982
4.42392	42.3533
4.42015	42.7374
4.41638	43.0978
4.41262	43.4856
4.40887	43.7927
4.40513	43.9807
4.40139	44.1602
4.39765	44.3794
4.39393	44.6768
4.39021	44.8943
4.38649	45.1026
4.38278	45.2362
4.37908	45.2332
4.37539	45.1227
4.3717	44.8555
4.36801	44.3219
4.36434	43.7173
4.36067	42.981
4.357	42.0792
4.35335	41.1789
4.34969	40.5832
4.34605	40.2713
4.34241	40.0181
4.33877	39.8234
4.33514	39.6933
4.33152	39.5678
4.32791	39.5453
4.3243	39.5881
4.32069	39.516
4.3171	39.3995
4.31351	39.3647
4.30992	39.4252
4.30634	39.695
4.30277	40.1328
4.2992	40.5155
4.29564	40.7898
4.29208	40.9421
4.28853	40.9584
4.28499	41.0173
4.28145	41.0702
4.27792	41.038
4.27439	40.8514
4.27087	40.5943
4.26735	40.3743
4.26384	40.1389
4.26034	39.8307
4.25684	39.5302
4.25335	39.2903
4.24986	39.1293
4.24638	38.9107
4.24291	38.6291
4.23944	38.2446
4.23598	37.9314
4.23252	37.7051
4.22906	37.4297
4.22562	37.2229
4.22218	37.01
4.21874	36.7562
4.21531	36.6248
4.21189	36.4208
4.20847	36.1539
4.20506	35.9323
4.20165	35.6345
4.19825	35.2278
4.19485	34.825
4.19146	34.4438
4.18807	34.0596
4.18469	33.6272
4.18132	33.2249
4.17795	32.7881
4.17458	32.4122
4.17123	32.0075
4.16787	31.607
4.16453	31.1888
4.16118	30.6532
4.15785	30.1015
4.15451	29.6442
4.15119	29.0933
4.14787	28.4987
4.14455	27.8576
4.14124	27.1067
4.13794	26.4274
4.13464	25.7573
4.13134	25.0958
4.12805	24.3328
4.12477	23.5574
4.12149	22.8803
4.11822	22.2723
4.11495	21.6308
4.11168	20.9395
4.10843	20.2733
4.10517	19.6906
4.10192	19.0584
4.09868	18.3685
4.09545	17.7049
4.09221	17.1133
4.08899	16.5989
4.08576	15.924
4.08255	15.2097
4.07933	14.5528
4.07613	13.9323
4.07292	13.2415
4.06973	12.5111
4.06654	11.7155
4.06335	11.0316
4.06017	10.4592
4.05699	9.85929
4.05382	9.14521
4.05065	8.23158
4.04749	7.42044
4.04433	6.58357
4.04118	5.68384
4.03803	4.93346
4.03489	4.35185
4.03175	3.92748
4.02862	3.6482
4.02549	3.44615
4.02237	3.2754
4.01925	3.06202
4.01614	2.85289
4.01303	2.73871
4.00993	2.68226
4.00683	2.61276
4.00373	2.52517
4.00064	2.47715
3.99756	2.36003
3.99448	2.18147
3.9914	2.16956
3.98833	2.19826
3.98527	2.15584
3.98221	2.10589
3.97915	2.14624
3.9761	2.18678
3.97305	2.19441
3.97001	2.11825
3.96697	2.0411
3.96394	2.17053
3.96091	2.24227
3.95789	2.18599
3.95487	2.13333
3.95186	2.16569
3.94885	2.22298
3.94584	2.31368
3.94284	2.4135
3.93984	2.44694
3.93685	2.58677
3.93386	2.69915
3.93088	2.62614
3.9279	2.6208
3.92493	2.73691
3.92196	2.73784
3.919	2.73045
3.91604	2.84335
3.91308	2.95051
3.91013	2.91753
3.90718	2.90228
3.90424	2.9532
3.9013	2.94899
3.89837	2.8931
3.89544	2.90848
3.89252	2.94308
3.8896	2.93907
3.88668	2.9261
3.88377	2.95441
3.88086	3.01714
3.87796	3.10472
3.87506	3.18628
3.87217	3.09988
3.86928	3.02999
3.86639	3.08531
3.86351	3.09863
3.86064	3.05597
3.85776	3.01695
3.8549	3.10368
3.85203	3.2004
3.84917	3.26305
3.84631	3.23508
3.84346	3.21388
3.84062	3.28724
3.83777	3.37849
3.83494	3.619
3.8321	3.85898
3.82927	4.13126
3.82644	4.44499
3.82362	4.67741
3.82081	4.9773
3.81799	5.41271
3.81518	5.93687
3.81238	6.48911
3.80958	7.11906
3.80678	7.92812
3.80399	8.89019
3.8012	10.1333
3.79841	11.7789
3.79563	13.7537
3.79286	15.9633
3.79008	18.1239
3.78731	20.0359
3.78455	21.7031
3.78179	23.1016
3.77903	24.2458
3.77628	25.3151
3.77353	26.2572
3.77079	27.0775
3.76805	27.8307
3.76531	28.5384
3.76258	29.2178
3.75985	29.7765
3.75713	30.134
3.7544	30.4282
3.75169	30.8358
3.74898	31.2513
3.74627	31.6302
3.74356	32.088
3.74086	32.7059
3.73816	33.4325
3.73547	34.0536
3.73278	34.5444
3.7301	35.0631
3.72741	35.4765
3.72474	35.8641
3.72206	36.233
3.71939	36.533
3.71673	36.8018
3.71406	37.1294
3.71141	37.3669
3.70875	37.4987
3.7061	37.6761
3.70345	37.9248
3.70081	38.0582
3.69817	38.1941
3.69553	38.3301
3.6929	38.4485
3.69027	38.5371
3.68765	38.4965
3.68503	38.6535
3.68241	38.7874
3.6798	38.6239
3.67719	38.5264
3.67458	38.5249
3.67198	38.4973
3.66938	38.3872
3.66678	38.2152
3.66419	38.0556
3.66161	37.9364
3.65902	37.7941
3.65644	37.5694
3.65387	37.3499
3.65129	37.1323
3.64872	36.9292
3.64616	36.8008
3.64359	36.6277
3.64103	36.2755
3.63848	35.9536
3.63593	35.7347
3.63338	35.4464
3.63084	35.1548
3.6283	34.8814
3.62576	34.5893
3.62322	34.2844
3.62069	33.9075
3.61817	33.4224
3.61564	33.0213
3.61312	32.678
3.61061	32.1665
3.6081	31.5801
3.60559	30.9724
3.60308	30.3784
3.60058	29.6683
3.59808	28.8505
3.59558	27.9858
3.59309	27.025
3.59061	26.0047
3.58812	24.8864
3.58564	23.6742
3.58316	22.3639
3.58069	20.9855
3.57822	19.6129
3.57575	18.3696
3.57328	17.4684
3.57082	17.2081
3.56836	17.3319
3.56591	17.4611
3.56346	17.5125
3.56101	17.3059
3.55857	16.9434
3.55613	16.4839
3.55369	16.036
3.55126	15.47
3.54883	14.6499
3.5464	13.7876
3.54397	12.9123
3.54155	12.0409
3.53914	11.0562
3.53672	10.0315
3.53431	9.07038
3.5319	8.06654
3.5295	7.07613
3.5271	6.15449
3.5247	5.32128
3.52231	4.60358
3.51991	4.11195
3.51753	3.7977
3.51514	3.46653
3.51276	3.31265
3.51038	3.26719
3.50801	3.15152
3.50563	3.10305
3.50327	3.08943
3.5009	3.00881
3.49854	2.93501
3.49618	2.94307
3.49382	2.81592
3.49147	2.60725
3.48912	2.57236
3.48677	2.58749
3.48443	2.54623
3.48209	2.57778
3.47975	2.61535
3.47742	2.59333
3.47509	2.59098
3.47276	2.66183
3.47044	2.79509
3.46812	3.0102
3.4658	3.19238
3.46348	3.30329
3.46117	3.49231
3.45886	3.56103
3.45656	3.61495
3.45425	3.67215
3.45195	3.67266
3.44966	3.75825
3.44736	3.8039
3.44507	3.88493
3.44279	3.91578
3.4405	3.89668
3.43822	3.91154
3.43594	3.83745
3.43367	3.77979
3.43139	3.84222
3.42912	3.88319
3.42686	3.83598
3.42459	3.81714
3.42233	3.81892
3.42007	3.82044
3.41782	3.76282
3.41557	3.71628
3.41332	3.76111
3.41108	3.75728
3.40883	3.73611
3.40659	3.77889
3.40435	3.88524
3.40212	3.8586
3.39989	3.74649
3.39766	3.66892
3.39544	3.63968
3.39322	3.63716
3.391	3.67621
3.38878	3.69315
3.38657	3.59711
3.38436	3.51798
3.38215	3.53362
3.37994	3.52491
3.37774	3.51071
3.37554	3.46318
3.37335	3.45607
3.37115	3.47285
3.36896	3.5413
3.36678	3.51089
3.36459	3.26112
3.36241	3.21208
3.36023	3.20169
3.35805	3.03995
3.35588	2.86708
3.35371	2.87491
3.35154	2.93118
3.34938	3.02047
3.34721	3.19619
3.34505	3.41837
3.3429	3.83562
3.34074	4.57333
3.33859	5.58005
3.33644	6.84091
3.3343	8.18567
3.33215	9.5514
3.33001	10.8921
3.32788	12.0216
3.32574	13.0547
3.32361	14.0882
3.32148	15.0777
3.31936	15.9785
3.31723	16.7188
3.31511	17.3831
3.31299	18.1427
3.31088	18.9164
3.30876	19.6412
3.30665	20.2727
3.30455	20.8765
3.30244	21.5324
3.30034	22.2586
3.29824	22.8218
3.29614	23.2874
3.29405	23.8574
3.29196	24.5069
3.28987	25.0778
3.28778	25.511
3.2857	26.0352
3.28362	26.6422
3.28154	27.2301
3.27946	27.8171
3.27739	28.4018
3.27532	28.9124
3.27325	29.444
3.27119	29.9575
3.26913	30.4246
3.26707	30.7904
3.26501	31.1922
3.26295	31.7619
3.2609	32.2007
3.25885	32.5231
3.2568	32.8562
3.25476	33.2148
3.25272	33.6239
3.25068	34.0981
3.24864	34.4644
3.24661	34.7236
3.24458	35.0738
3.24255	35.3909
3.24052	35.7555
3.2385	36.1465
3.23648	36.5613
3.23446	36.9732
3.23244	37.3315
3.23043	37.7197
3.22841	38.0956
3.2264	38.4803
3.2244	38.841
3.22239	39.1206
3.22039	39.3778
3.21839	39.7416
3.2164	40.1448
3.2144	40.4653
3.21241	40.6503
3.21042	40.9603
3.20844	41.3618
3.20645	41.675
3.20447	41.9867
3.20249	42.2357
3.20051	42.4334
3.19854	42.6399
3.19657	42.8444
3.1946	43.0226
3.19263	43.1915
3.19067	43.2789
3.1887	43.3551
3.18674	43.4279
3.18479	43.4406
3.18283	43.4662
3.18088	43.469
3.17893	43.348
3.17698	43.1265
3.17504	42.8678
3.17309	42.44
3.17115	41.9117
3.16921	41.2933
3.16728	40.449
3.16534	39.4518
3.16341	38.4841
3.16148	37.5065
3.15956	36.4654
3.15763	35.5185
3.15571	34.9202
3.15379	34.5778
3.15187	34.4876
3.14996	34.6072
3.14805	34.7504
3.14614	34.9841
3.14423	35.4048
3.14232	35.7672
3.14042	36.0613
3.13852	36.4524
3.13662	36.7808
3.13472	37.2037
3.13283	37.6862
3.13094	38.0435
3.12905	38.221
3.12716	38.3108
3.12528	38.1895
3.12339	37.6541
3.12151	36.8996
3.11964	36.0125
3.11776	35.0994
3.11589	34.3795
3.11401	33.7815
3.11214	33.3687
3.11028	33.0944
3.10841	33.0532
3.10655	33.349
3.10469	33.7801
3.10283	34.1945
3.10098	34.8567
3.09912	35.5826
3.09727	36.253
3.09542	36.9405
3.09358	37.5807
3.09173	38.3876
3.08989	39.2836
3.08805	40.1662
3.08621	41.0733
3.08437	41.9611
3.08254	42.8803
3.08071	43.6198
3.07888	44.1668
3.07705	44.7285
3.07523	45.2698
3.0734	45.6737
3.07158	45.9444
3.06977	46.1954
3.06795	46.5735
3.06613	46.8915
3.06432	47.1725
3.06251	47.5269
3.0607	47.9459
3.0589	48.4378
3.0571	48.9512
3.05529	49.4734
3.05349	50.0336
3.0517	50.5267
3.0499	50.9501
3.04811	51.4504
3.04632	51.9089
3.04453	52.2651
3.04274	52.6836
3.04096	53.0426
3.03918	53.4211
3.0374	53.9056
3.03562	54.3493
3.03384	54.8647
3.03207	55.3365
3.03029	55.6126
3.02852	55.894
3.02676	56.2317
3.02499	56.5552
3.02323	56.8266
3.02146	57.21
3.0197	57.592
3.01795	57.9916
3.01619	58.4291
3.01444	58.8147
3.01269	59.1357
3.01094	59.4327
3.00919	59.7888
3.00744	60.2027
3.0057	60.5282
3.00396	60.7714
3.00222	61.0756
3.00048	61.3574
2.99875	61.6667
2.99701	61.9623
2.99528	62.1476
2.99355	62.3226
2.99183	62.5282
2.9901	62.7668
2.98838	62.9943
2.98666	63.09
2.98494	63.2227
2.98322	63.4317
2.9815	63.5803
2.97979	63.7035
2.97808	63.7427
2.97637	63.8154
2.97466	63.9077
2.97295	63.9878
2.97125	63.9162
2.96955	63.8846
2.96785	63.9255
2.96615	63.882
2.96446	63.8284
2.96276	63.788
2.96107	63.7529
2.95938	63.8172
2.95769	63.9095
2.95601	63.8568
2.95432	63.8978
2.95264	63.9463
2.95096	63.8931
2.94928	63.9861
2.9476	64.168
2.94593	64.2076
2.94425	64.1938
2.94258	64.2487
2.94092	64.3371
2.93925	64.4806
2.93758	64.7116
2.93592	64.9068
2.93426	64.9343
2.9326	64.926
2.93094	64.9859
2.92928	64.9928
2.92763	65.1654
2.92598	65.2794
2.92433	65.2473
2.92268	65.2922
2.92103	65.3474
2.91939	65.3003
2.91775	65.2706
2.9161	65.3985
2.91447	65.4733
2.91283	65.4284
2.91119	65.4012
2.90956	65.4162
2.90793	65.4221
2.9063	65.3286
2.90467	65.4355
2.90304	65.5493
2.90142	65.552
2.89979	65.4776
2.89817	65.3588
2.89656	65.4052
2.89494	65.4732
2.89332	65.5902
2.89171	65.6673
2.8901	65.6457
2.88849	65.6028
2.88688	65.5454
2.88527	65.5682
2.88367	65.5587
2.88206	65.5628
2.88046	65.5981
2.87886	65.4835
2.87727	65.3278
2.87567	65.3042
2.87408	65.3889
2.87248	65.4891
2.87089	65.4473
2.8693	65.2457
2.86772	65.1313
2.86613	65.1921
2.86455	65.1762
2.86297	65.0434
2.86139	64.8487
2.85981	64.6808
2.85823	64.4589
2.85666	64.2232
2.85508	64.1427
2.85351	64.0079
2.85194	63.8968
2.85038	63.7711
2.84881	63.4661
2.84724	63.1191
2.84568	62.8712
2.84412	62.5153
2.84256	62.1395
2.841	61.7832
2.83945	61.4129
2.83789	61.0323
2.83634	60.6333
2.83479	60.0894
2.83324	59.3624
2.83169	58.5185
2.83015	57.6844
2.82861	56.9671
2.82706	56.3433
2.82552	55.7465
2.82398	55.0744
2.82245	54.3688
2.82091	53.644
2.81938	52.8467
2.81784	52.0047
2.81631	51.118
2.81479	50.2097
2.81326	49.403
2.81173	48.493
2.81021	47.5469
2.80869	46.6193
2.80716	45.6254
2.80565	44.6218
2.80413	43.7781
2.80261	42.7791
2.8011	41.5548
2.79959	40.3853
2.79808	39.126
2.79657	37.6094
2.79506	35.9247
2.79355	34.3885
2.79205	33.1096
2.79055	32.1469
2.78904	31.7295
2.78754	31.8195
2.78605	32.0072
2.78455	32.5227
2.78306	33.6503
2.78156	34.9265
2.78007	36.3067
2.77858	37.6969
2.77709	39.1222
2.77561	40.501
2.77412	41.7375
2.77264	43.3255
2.77116	45.0072
2.76968	46.3144
2.7682	47.8191
2.76672	49.3792
2.76524	50.635
2.76377	52.0244
2.7623	52.9695
2.76083	53.4643
2.75936	54.0954
2.75789	54.7718
2.75642	55.478
2.75496	55.8421
2.7535	55.5514
2.75203	55.7026
2.75057	56.0172
2.74912	56.1675
2.74766	56.2937
2.7462	56.6225
2.74475	57.0064
2.7433	57.2947
2.74185	57.9229
2.7404	58.6296
2.73895	58.6314
2.7375	58.3663
2.73606	58.6862
2.73462	59.0674
2.73318	59.1994
2.73174	59.4063
2.7303	59.6004
2.72886	59.8972
2.72742	60.367
2.72599	61.1512
2.72456	61.892
2.72313	61.9348
2.7217	62.6475
2.72027	63.5358
2.71884	63.3234
2.71742	63.4837
2.71599	63.9074
2.71457	64.4151
2.71315	65.1769
2.71173	66.5583
2.71032	67.5094
2.7089	67.7601
2.70748	68.1382
2.70607	68.8351
2.70466	69.7838
2.70325	70.6651
2.70184	71.4421
2.70043	72.0595
2.69903	72.6781
2.69762	73.4253
2.69622	74.352
2.69482	75.4099
2.69342	76.0481
2.69202	76.0762
2.69062	76.4444
2.68923	77.1147
2.68783	77.7111
2.68644	78.3007
2.68505	78.644
2.68366	78.9695
2.68227	79.1257
2.68089	79.412
2.6795	80.2818
2.67812	80.6483
2.67673	80.9668
2.67535	80.9286
2.67397	80.7091
2.6726	80.9473
2.67122	82.1648
2.66984	82.4793
2.66847	81.9398
2.6671	82.4993
2.66572	82.7888
2.66435	82.4734
2.66299	81.9165
2.66162	82.1166
2.66025	82.3842
2.65889	82.3996
2.65753	82.1878
2.65616	82.4722
2.65481	82.5319
2.65345	82.6973
2.65209	82.9216
2.65073	82.7229
2.64938	82.5216
2.64803	82.6327
2.64667	82.8658
2.64532	82.91
2.64397	82.7617
2.64263	82.8034
2.64128	82.5967
2.63994	82.436
2.63859	82.4289
2.63725	82.3794
2.63591	82.3197
2.63457	82.4857
2.63323	82.4185
2.6319	82.6715
2.63056	83.0587
2.62923	82.3854
2.62789	82.1427
2.62656	82.3432
2.62523	81.733
2.6239	81.2789
2.62258	81.2278
2.62125	81.751
2.61993	81.7325
2.6186	81.2546
2.61728	81.4188
2.61596	80.985
2.61464	80.4275
2.61332	80.3426
2.61201	80.0383
2.61069	79.8529
2.60938	79.6875
2.60807	79.5424
2.60675	79.701
2.60544	79.6411
2.60414	78.7836
2.60283	78.1659
2.60152	77.6771
2.60022	77.0397
2.59891	76.5361
2.59761	76.37
2.59631	76.7724
2.59501	77.3391
2.59371	75.9406
2.59242	74.1793
2.59112	73.276
2.58983	72.7528
2.58853	72.1997
2.58724	71.5803
2.58595	70.7466
2.58466	70.422
2.58338	69.9344
2.58209	69.1959
2.5808	68.8847
2.57952	68.282
2.57824	68.0029
2.57695	67.8056
2.57567	67.1083
2.5744	66.8095
2.57312	66.3661
2.57184	65.2699
2.57057	64.6529
2.56929	63.9912
2.56802	62.833
2.56675	61.6975
2.56548	60.6715
2.56421	59.6142
2.56294	58.4969
2.56168	57.2092
2.56041	55.4746
2.55915	53.4957
2.55789	51.7192
2.55662	50.087
2.55536	48.2991
2.5541	46.5846
2.55285	44.8831
2.55159	43.1614
2.55034	41.43
2.54908	39.8144
2.54783	38.2855
2.54658	36.8263
2.54533	35.5366
2.54408	34.3404
2.54283	33.298
2.54159	32.4282
2.54034	31.8195
2.5391	31.4541
2.53785	31.1296
2.53661	30.9029
2.53537	31.0053
2.53413	31.2648
2.53289	31.6147
2.53166	32.0523
2.53042	32.5409
2.52919	33.194
2.52795	33.9557
2.52672	34.8183
2.52549	35.6008
2.52426	36.3032
2.52303	37.037
2.52181	37.7284
2.52058	38.4137
2.51936	38.907
2.51813	39.4567
2.51691	40.0848
2.51569	40.5638
2.51447	40.9564
2.51325	41.1373
2.51203	41.3471
2.51082	41.6583
2.5096	41.8634
2.50839	42.0371
2.50717	42.2207
2.50596	42.3917
2.50475	42.4874
2.50354	42.6263
2.50233	42.8199
2.50113	42.9496
2.49992	43.093
2.49872	43.2331
2.49751	43.3862
2.49631	43.6973
2.49511	43.9035
2.49391	43.9767
2.49271	44.1426
2.49151	44.3797
2.49031	44.5882
2.48912	44.8795
2.48792	45.1206
2.48673	45.3477
2.48554	45.6997
2.48435	46.1317
2.48316	46.6351
2.48197	47.1292
2.48078	47.6655
2.4796	48.2344
2.47841	48.7792
2.47723	49.3728
2.47604	50.0808
2.47486	50.8733
2.47368	51.6795
2.4725	52.3485
2.47132	53.0137
2.47014	53.8107
2.46897	54.6597
2.46779	55.4886
2.46662	56.2705
2.46545	56.9223
2.46427	57.7555
2.4631	58.6713
2.46193	59.3774
2.46077	60.0051
2.4596	60.6403
2.45843	61.3158
2.45727	62.0203
2.4561	62.6659
2.45494	63.2852
2.45378	63.875
2.45262	64.3582
2.45146	64.8386
2.4503	65.3612
2.44914	65.8346
2.44799	66.2932
2.44683	66.6773
2.44568	67.1758
2.44452	67.7502
2.44337	68.2235
2.44222	68.6517
2.44107	69.1028
2.43992	69.4933
2.43877	69.8359
2.43763	70.1789
2.43648	70.6528
2.43534	71.2237
2.43419	71.7048
2.43305	72.1164
2.43191	72.4368
2.43077	72.8876
2.42963	73.3831
2.42849	73.7522
2.42736	74.1422
2.42622	74.561
2.42509	74.9172
2.42395	75.4211
2.42282	75.7698
2.42169	75.9265
2.42056	76.2359
2.41943	76.6992
2.4183	77.0997
2.41717	77.405
2.41605	77.5914
2.41492	77.7533
2.4138	77.9042
2.41267	78.0118
2.41155	78.1113
2.41043	78.2329
2.40931	78.3778
2.40819	78.3288
2.40707	78.1379
2.40595	78.0627
2.40484	77.9804
2.40372	77.9254
2.40261	77.8645
2.4015	77.7431
2.40039	77.724
2.39928	77.7596
2.39817	78.0261
2.39706	78.2832
2.39595	78.5043
2.39484	78.779
2.39374	78.8854
2.39263	78.8275
2.39153	78.7786
2.39043	78.7836
2.38932	78.8235
2.38822	78.7122
2.38712	78.5213
2.38603	78.3626
2.38493	78.0848
2.38383	77.8803
2.38274	77.6802
2.38164	77.2512
2.38055	76.6837
2.37946	76.3609
2.37836	75.9458
2.37727	75.4688
2.37618	75.0494
2.3751	74.3884
2.37401	73.7082
2.37292	73.2033
2.37184	72.5949
2.37075	71.8729
2.36967	71.0552
2.36859	70.2348
2.3675	69.3293
2.36642	68.2681
2.36534	67.1891
2.36427	66.0364
2.36319	64.6444
2.36211	63.2941
2.36104	61.9914
2.35996	60.6874
2.35889	59.3338
2.35781	57.9997
2.35674	56.7366
2.35567	55.4556
2.3546	54.3782
2.35353	53.3566
2.35247	52.2823
2.3514	51.2805
2.35033	50.4017
2.34927	49.6883
2.3482	49.0136
2.34714	48.4589
2.34608	47.995
2.34502	47.3961
2.34396	47.0017
2.3429	46.5958
2.34184	46.3623
2.34078	46.4151
2.33973	46.4069
2.33867	46.3158
2.33762	46.368
2.33656	46.5147
2.33551	46.823
2.33446	47.2509
2.33341	47.6818
2.33236	47.9539
2.33131	48.3431
2.33026	48.8574
2.32922	49.4001
2.32817	50.0468
2.32712	50.5325
2.32608	51.0764
2.32504	51.5832
2.324	51.9925
2.32295	52.5912
2.32191	53.0654
2.32087	53.4001
2.31984	53.6696
2.3188	54.0211
2.31776	54.522
2.31673	54.9109
2.31569	55.22
2.31466	55.5267
2.31362	55.681
2.31259	55.8279
2.31156	56.0478
2.31053	56.2302
2.3095	56.3189
2.30847	56.6531
2.30745	56.7566
2.30642	56.6343
2.3054	56.7325
2.30437	56.9575
2.30335	57.231
2.30232	57.5144
2.3013	57.7881
2.30028	57.8775
2.29926	58.0053
2.29824	58.1222
2.29722	58.2845
2.29621	58.6117
2.29519	58.9184
2.29417	59.2165
2.29316	59.4552
2.29215	59.6667
2.29113	59.9479
2.29012	60.231
2.28911	60.479
2.2881	60.8465
2.28709	61.3547
2.28608	61.7842
2.28507	62.2158
2.28407	62.6388
2.28306	63.1597
2.28206	63.6582
2.28105	64.1128
2.28005	64.6439
2.27905	65.1085
2.27805	65.5549
2.27705	66.0582
2.27605	66.5561
2.27505	67.0908
2.27405	67.6588
2.27305	68.1397
2.27206	68.5038
2.27106	68.9667
2.27007	69.4373
2.26907	69.8615
2.26808	70.2537
2.26709	70.5226
2.2661	70.7946
2.26511	71.1628
2.26412	71.587
2.26313	72.0295
2.26214	72.4295
2.26116	72.7266
2.26017	73.0716
2.25919	73.537
2.2582	73.9111
2.25722	74.0488
2.25624	74.3621
2.25526	74.8623
2.25428	75.1655
2.2533	75.4353
2.25232	75.7333
2.25134	76.0624
2.25036	76.3637
2.24939	76.6494
2.24841	76.8443
2.24744	77.0109
2.24646	77.2963
2.24549	77.6519
2.24452	77.9559
2.24355	78.2085
2.24257	78.5013
2.24161	78.821
2.24064	79.1088
2.23967	79.3477
2.2387	79.5342
2.23774	79.7212
2.23677	79.8826
2.23581	80.0014
2.23484	80.4403
2.23388	80.8633
2.23292	80.9756
2.23196	81.0545
2.231	81.3307
2.23004	81.6019
2.22908	81.8429
2.22812	82.0236
2.22716	82.2193
2.22621	82.4112
2.22525	82.6096
2.2243	82.9873
2.22334	83.2577
2.22239	83.3989
2.22144	83.4747
2.22049	83.5214
2.21953	83.6544
2.21859	83.8531
2.21764	84.038
2.21669	84.3026
2.21574	84.4806
2.21479	84.5188
2.21385	84.563
2.2129	84.6922
2.21196	84.8871
2.21102	85.0268
2.21007	85.0505
2.20913	85.2182
2.20819	85.3635
2.20725	85.4379
2.20631	85.5227
2.20537	85.6054
2.20444	85.8645
2.2035	86.061
2.20256	86.0624
2.20163	86.052
2.20069	86.1778
2.19976	86.3179
2.19883	86.4075
2.19789	86.3939
2.19696	86.4988
2.19603	86.6246
2.1951	86.5721
2.19417	86.6452
2.19325	86.7593
2.19232	86.6323
2.19139	86.4982
2.19047	86.5511
2.18954	86.6972
2.18862	86.7668
2.18769	86.7372
2.18677	86.761
2.18585	86.588
2.18493	86.4413
2.18401	86.4979
2.18309	86.4668
2.18217	86.3198
2.18125	86.2216
2.18033	86.0531
2.17942	85.9291
2.1785	86.0075
2.17759	85.986
2.17667	85.8194
2.17576	85.637
2.17485	85.5186
2.17393	85.3547
2.17302	85.1869
2.17211	84.9672
2.1712	84.6956
2.17029	84.5632
2.16939	84.7412
2.16848	84.5883
2.16757	84.2545
2.16667	84.0114
2.16576	83.9217
2.16486	83.7273
2.16395	83.5463
2.16305	83.4918
2.16215	83.5216
2.16125	83.4181
2.16035	83.4333
2.15945	83.3793
2.15855	83.1959
2.15765	83.1459
2.15675	83.1832
2.15586	83.151
2.15496	83.111
2.15406	83.092
2.15317	83.3577
2.15228	83.564
2.15138	83.5637
2.15049	83.5941
2.1496	83.6476
2.14871	83.655
2.14782	83.727
2.14693	84.0228
2.14604	84.3207
2.14515	84.6618
2.14427	85.0672
2.14338	85.3045
2.14249	85.6289
2.14161	85.9911
2.14072	86.3352
2.13984	86.622
2.13896	86.7852
2.13808	86.8171
2.13719	86.8951
2.13631	87.1917
2.13543	87.4986
2.13455	87.6516
2.13368	87.652
2.1328	87.6538
2.13192	87.8186
2.13105	88.0235
2.13017	88.1678
2.1293	88.2449
2.12842	88.1882
2.12755	88.2118
2.12668	88.2715
2.1258	88.2562
2.12493	88.3779
2.12406	88.6487
2.12319	88.8804
2.12232	88.8755
2.12145	88.8216
2.12059	88.733
2.11972	88.6618
2.11885	88.7407
2.11799	88.8994
2.11712	89.0271
2.11626	88.9999
2.1154	89.0498
2.11453	89.1891
2.11367	89.2898
2.11281	89.4686
2.11195	89.5754
2.11109	89.5673
2.11023	89.5846
2.10937	89.4427
2.10851	89.4907
2.10766	89.7497
2.1068	89.8256
2.10594	90.0168
2.10509	90.1488
2.10423	90.1814
2.10338	90.3589
2.10253	90.4138
2.10168	90.6232
2.10082	90.7572
2.09997	90.6172
2.09912	90.5783
2.09827	90.6868
2.09742	90.7096
2.09658	90.6943
2.09573	90.7159
2.09488	90.7755
2.09404	90.8985
2.09319	91.0842
2.09235	91.1938
2.0915	91.0829
2.09066	91.0387
2.08982	91.0261
2.08897	91.0716
2.08813	91.0331
2.08729	91.0712
2.08645	91.0985
2.08561	91.2894
2.08477	91.3808
2.08394	91.3053
2.0831	91.3683
2.08226	91.4047
2.08143	91.5418
2.08059	91.9973
2.07976	91.8048
2.07892	91.3604
2.07809	91.4031
2.07726	91.3793
2.07643	91.4052
2.07559	91.4781
2.07476	91.3411
2.07393	91.1076
2.0731	91.4561
2.07228	91.6392
2.07145	91.6967
2.07062	91.603
2.06979	91.558
2.06897	91.4808
2.06814	91.3383
2.06732	91.6559
2.06649	92.0054
2.06567	92.084
2.06485	91.9458
2.06403	91.7511
2.0632	91.6735
2.06238	91.7003
2.06156	91.4927
2.06074	91.4222
2.05993	91.5632
2.05911	91.8049
2.05829	91.9223
2.05747	91.892
2.05666	91.761
2.05584	91.6972
2.05503	91.7793
2.05421	91.6405
2.0534	91.5615
2.05259	91.4511
2.05177	91.5337
2.05096	91.8114
2.05015	91.9333
2.04934	91.6385
2.04853	91.5765
2.04772	91.7156
2.04691	91.6298
2.04611	91.4249
2.0453	91.2839
2.04449	91.5166
2.04369	91.7363
2.04288	91.6843
2.04208	91.6138
2.04127	91.5464
2.04047	91.3607
2.03967	91.3212
2.03886	91.3487
2.03806	91.2716
2.03726	91.1444
2.03646	91.004
2.03566	90.8706
2.03486	91.0142
2.03407	91.039
2.03327	90.7188
2.03247	90.6774
2.03167	90.9799
2.03088	91.0455
2.03008	90.8222
2.02929	90.7117
2.0285	90.5742
2.0277	90.4227
2.02691	90.3628
2.02612	90.2997
2.02533	90.2209
2.02453	89.9416
2.02374	89.7733
2.02295	89.8472
2.02217	89.9008
2.02138	89.8979
2.02059	89.7904
2.0198	89.6377
2.01902	89.5541
2.01823	89.4378
2.01744	89.4009
2.01666	89.3948
2.01588	89.1306
2.01509	88.9806
2.01431	88.7169
2.01353	88.5033
2.01275	88.5189
2.01196	88.1982
2.01118	88.0631
2.0104	88.0922
2.00963	87.8709
2.00885	87.5219
2.00807	87.1718
2.00729	86.7516
2.00651	86.2779
2.00574	85.9705
2.00496	85.7402
2.00419	85.5661
2.00341	85.0757
2.00264	84.5277
2.00187	84.1411
2.00109	83.9026
2.00032	83.6298
