Name: Talc Mg_3Si_4O_10(OH)_2
Type: Mineral
Class: Silicates
Subclass: Phyllosilicates
Particle Size: 125-500um
Sample No.: PS-14A
Owner: JPL
Wavelength range: IR
Origin: USA, Georgia, Cherokee County, Holly Springs
Collected by Burminco
Description: 





Measurement: Hemispherical reflectance
First Column: X
Second Column: Y
X Units:  Wavelength (micrometers)
Y Units:  Reflectance (percent)
First X Value: 15.3853
Last X Value: 2.00032
Number of X Values: 2256
Additional information: ps14aa.txt
 
15.3853	8.54031
15.3397	8.78557
15.2945	8.9677
15.2495	9.53149
15.2048	10.3159
15.1603	11.2241
15.1161	12.507
15.0722	14.3865
15.0285	17.0709
14.9851	21.1141
14.9419	25.9506
14.8989	30.2738
14.8563	33.4163
14.8138	35.2795
14.7716	35.781
14.7296	35.1679
14.6879	33.7588
14.6464	31.4479
14.6052	28.0298
14.5641	23.9767
14.5233	19.2266
14.4828	14.3302
14.4424	9.95913
14.4023	6.35699
14.3624	3.82845
14.3227	2.34064
14.2833	1.4595
14.244	0.949408
14.205	0.694478
14.1662	0.449184
14.1276	0.215239
14.0892	0.159671
14.051	0.444092
14.0131	0.697168
13.9753	0.873589
13.9377	1.05068
13.9004	1.35812
13.8632	1.86309
13.8262	2.21582
13.7895	2.38186
13.7529	2.76999
13.7165	3.10066
13.6803	3.32092
13.6443	3.71588
13.6085	4.13649
13.5729	4.40761
13.5374	4.79052
13.5022	5.26988
13.4671	5.58973
13.4322	5.83858
13.3975	6.12794
13.363	6.36881
13.3286	6.55677
13.2944	6.75132
13.2604	7.04212
13.2266	7.43142
13.193	7.56211
13.1595	7.64047
13.1262	7.92304
13.093	7.97575
13.06	8.06597
13.0272	8.28222
12.9946	8.3508
12.9621	8.39771
12.9298	8.43197
12.8976	8.28567
12.8656	8.03709
12.8337	7.84886
12.8021	7.74739
12.7705	7.96319
12.7391	8.37484
12.7079	8.54908
12.6769	8.86804
12.6459	9.50388
12.6152	10.094
12.5845	10.4586
12.5541	10.6894
12.5238	10.8627
12.4936	11.0475
12.4635	11.3229
12.4337	11.5524
12.4039	11.6668
12.3743	11.8999
12.3448	12.0965
12.3155	12.3601
12.2863	12.6995
12.2573	12.9418
12.2284	13.1907
12.1996	13.4669
12.171	13.7736
12.1425	13.7818
12.1141	13.9443
12.0859	14.1956
12.0578	14.3178
12.0298	14.4118
12.0019	14.5105
11.9742	14.7635
11.9466	15.0681
11.9192	15.3713
11.8918	15.5322
11.8646	15.459
11.8375	15.4329
11.8106	15.4244
11.7837	15.465
11.757	15.5967
11.7304	15.5719
11.7039	15.71
11.6776	15.9025
11.6513	16.0076
11.6252	15.9802
11.5992	15.9416
11.5733	15.9824
11.5475	15.8994
11.5219	15.8189
11.4963	15.7447
11.4709	15.8473
11.4455	15.9801
11.4203	16.1097
11.3952	16.1766
11.3702	16.1543
11.3454	16.1456
11.3206	16.246
11.2959	16.3331
11.2714	16.3471
11.2469	16.3434
11.2226	16.301
11.1983	16.3321
11.1742	16.4154
11.1502	16.4652
11.1263	16.4738
11.1024	16.4723
11.0787	16.4678
11.0551	16.6218
11.0316	16.7081
11.0081	16.7333
10.9848	16.8276
10.9616	16.981
10.9385	17.1286
10.9154	17.218
10.8925	17.3516
10.8697	17.5286
10.8469	17.7218
10.8243	17.8202
10.8017	17.9191
10.7793	18.0123
10.7569	18.1134
10.7346	18.2015
10.7125	18.2265
10.6904	18.2976
10.6684	18.258
10.6465	18.2408
10.6247	18.2027
10.6029	18.2096
10.5813	18.4235
10.5597	18.4115
10.5383	18.4075
10.5169	18.6069
10.4956	18.7563
10.4744	18.7846
10.4533	18.9159
10.4323	19.1196
10.4113	19.3293
10.3904	19.4711
10.3697	19.6284
10.349	19.8739
10.3284	20.0183
10.3078	20.0832
10.2874	20.3124
10.267	20.4928
10.2467	20.8468
10.2265	21.1424
10.2064	21.3651
10.1863	21.5874
10.1663	21.9084
10.1464	22.3121
10.1266	22.7933
10.1069	23.3297
10.0872	23.9478
10.0676	24.4948
10.0481	25.0634
10.0287	25.8858
10.0093	26.877
9.99005	28.1177
9.97084	29.6821
9.95169	31.4513
9.93263	33.5234
9.91364	36.0368
9.89472	39.1359
9.87587	42.8667
9.8571	46.7128
9.83839	50.2831
9.81976	53.2176
9.80119	55.3005
9.78271	56.6308
9.76428	57.4343
9.74592	58.0713
9.72764	58.6606
9.70943	59.0427
9.69128	59.1991
9.6732	59.4298
9.65518	59.6692
9.63724	59.5621
9.61935	59.4192
9.60155	59.2415
9.5838	58.7054
9.56611	57.8448
9.5485	56.6018
9.53094	54.5452
9.51345	51.7197
9.49604	49.1595
9.47867	48.4288
9.46137	49.7241
9.44414	51.8348
9.42697	53.7448
9.40986	55.308
9.39281	56.5781
9.37583	57.6568
9.35891	58.542
9.34204	59.3021
9.32524	59.883
9.3085	60.2322
9.29182	60.6613
9.27519	61.0699
9.25863	61.2859
9.24213	61.3893
9.22568	61.4861
9.2093	61.4359
9.19297	61.3234
9.17669	61.3301
9.16048	61.2231
9.14433	61.1664
9.12823	61.3163
9.11218	61.3078
9.0962	61.0705
9.08027	60.7872
9.06439	60.5919
9.04858	60.3816
9.03281	60.1047
9.0171	59.7869
9.00145	59.3508
8.98585	58.633
8.9703	57.82
8.9548	56.9676
8.93937	56.1569
8.92398	55.3559
8.90865	54.5498
8.89337	53.8468
8.87814	53.1007
8.86296	52.4229
8.84784	51.7379
8.83277	50.959
8.81774	50.1234
8.80277	49.2129
8.78786	48.1802
8.77298	47.0907
8.75816	45.8166
8.7434	44.3679
8.72868	42.704
8.714	40.659
8.69938	38.1713
8.68481	35.6414
8.67029	33.0716
8.65581	30.3707
8.64139	27.8157
8.62701	25.7288
8.61268	23.7931
8.5984	21.8941
8.58416	20.3789
8.56997	18.9989
8.55583	17.4802
8.54174	16.1219
8.52769	14.9168
8.51368	13.7023
8.49973	12.6083
8.48582	11.6505
8.47195	10.7181
8.45813	9.81517
8.44436	9.05848
8.43062	8.41325
8.41693	7.7199
8.4033	6.99813
8.3897	6.40554
8.37614	5.8541
8.36264	5.37373
8.34917	5.00317
8.33574	4.46636
8.32236	3.93936
8.30903	3.67009
8.29573	3.45509
8.28248	3.14243
8.26927	2.81093
8.2561	2.51452
8.24298	2.33723
8.2299	2.1442
8.21685	1.89
8.20385	1.59219
8.19089	1.33214
8.17797	1.24055
8.16509	1.20968
8.15225	1.10026
8.13946	0.840561
8.1267	0.647656
8.11398	0.597934
8.10131	0.692006
8.08867	0.61658
8.07606	0.450281
8.0635	0.355079
8.05099	0.338074
8.0385	0.292178
8.02606	0.166389
8.01366	0.132901
8.00129	0.126674
7.98896	0.154519
7.97667	0.23751
7.96442	0.183421
7.9522	0.158667
7.94002	0.192193
7.92788	0.239745
7.91578	0.230536
7.90371	0.296682
7.89168	0.260996
7.87969	0.233538
7.86773	0.338579
7.85581	0.430039
7.84392	0.463165
7.83207	0.531716
7.82026	0.622295
7.80849	0.794656
7.79674	0.829025
7.78503	0.80068
7.77337	0.886741
7.76173	0.953435
7.75012	0.959026
7.73856	1.04432
7.72703	1.20308
7.71553	1.3157
7.70406	1.39404
7.69263	1.48588
7.68123	1.5823
7.66987	1.57446
7.65855	1.61399
7.64725	1.72879
7.63598	1.82151
7.62475	1.92083
7.61356	1.96644
7.60239	2.04329
7.59126	2.16134
7.58017	2.24366
7.5691	2.28835
7.55806	2.34692
7.54707	2.58151
7.5361	2.86928
7.52516	2.94504
7.51425	3.07571
7.50338	3.17037
7.49253	3.19339
7.48172	3.31916
7.47094	3.5603
7.46019	3.69096
7.44947	3.78191
7.43879	3.82673
7.42813	3.85171
7.4175	3.92113
7.4069	3.97092
7.39634	4.05111
7.3858	4.18173
7.37529	4.28327
7.36482	4.4542
7.35437	4.57839
7.34396	4.6225
7.33357	4.69544
7.32321	4.9245
7.31288	5.15352
7.30258	5.23605
7.29231	5.28963
7.28207	5.42911
7.27185	5.51933
7.26167	5.61786
7.25152	5.72125
7.24139	5.74926
7.23129	5.73042
7.22122	5.72511
7.21117	5.74409
7.20116	5.73096
7.19117	5.69305
7.18121	5.78038
7.17128	5.86862
7.16137	5.93823
7.1515	6.04955
7.14164	6.07037
7.13182	6.11853
7.12203	6.31731
7.11225	6.46525
7.10251	6.55794
7.0928	6.6247
7.08311	6.66859
7.07344	6.79963
7.06381	7.0396
7.0542	7.27897
7.04461	7.3697
7.03506	7.35942
7.02552	7.52738
7.01601	7.76309
7.00653	7.88451
6.99708	7.91451
6.98765	8.07308
6.97824	8.27124
6.96886	8.4739
6.95951	8.74617
6.95018	8.91696
6.94087	9.15893
6.9316	9.51112
6.92234	9.76961
6.91311	10.0758
6.90391	10.3735
6.89473	10.4477
6.88557	10.4918
6.87644	10.6347
6.86733	10.9092
6.85824	11.0885
6.84918	11.0683
6.84015	11.1256
6.83114	11.3832
6.82215	11.7131
6.81319	12.0344
6.80424	12.4249
6.79532	12.8047
6.78643	12.9859
6.77756	13.104
6.76871	13.356
6.75989	13.6015
6.75109	13.8346
6.74231	14.1068
6.73355	14.4583
6.72482	14.8461
6.71611	15.1866
6.70742	15.4176
6.69875	15.5542
6.69011	15.7651
6.68149	16.0021
6.67289	16.0121
6.66431	16.0054
6.65576	16.0311
6.64722	16.1165
6.63871	16.1452
6.63022	15.9703
6.62175	15.7487
6.61331	15.6712
6.60488	15.5485
6.59648	15.4758
6.5881	15.315
6.57974	15.1957
6.5714	15.1772
6.56308	15.1181
6.55478	15.2064
6.54651	15.2474
6.53825	15.3227
6.53001	15.4441
6.5218	15.5922
6.51361	15.7509
6.50544	16.0326
6.49729	16.535
6.48915	16.957
6.48104	17.1574
6.47295	17.2986
6.46488	17.4438
6.45683	17.5829
6.4488	17.6993
6.44079	17.7121
6.4328	17.8607
6.42482	17.9773
6.41687	18.2572
6.40894	18.4171
6.40103	18.3409
6.39314	18.4241
6.38526	18.534
6.37741	18.6566
6.36957	18.783
6.36176	18.8145
6.35396	18.8678
6.34618	19.0437
6.33843	18.993
6.33069	18.8853
6.32297	18.9385
6.31527	18.9903
6.30758	19.0443
6.29992	19.2053
6.29227	19.412
6.28465	19.6105
6.27704	19.8052
6.26945	19.9522
6.26188	20.0026
6.25432	19.9543
6.24679	19.8264
6.23927	19.5984
6.23177	19.3132
6.22429	18.9999
6.21683	18.7167
6.20938	18.4633
6.20195	18.2787
6.19454	18.1074
6.18715	17.8925
6.17978	17.5409
6.17242	17.2405
6.16508	17.0857
6.15776	16.7299
6.15045	16.1945
6.14317	15.7197
6.1359	15.1573
6.12864	14.3919
6.12141	13.5883
6.11419	12.7873
6.10699	11.8322
6.0998	11.0591
6.09263	10.5239
6.08549	10.2293
6.07835	10.2234
6.07123	10.2097
6.06413	10.1396
6.05705	10.243
6.04998	10.4535
6.04293	10.4148
6.0359	10.1449
6.02888	9.83245
6.02187	9.66651
6.01489	9.51042
6.00792	9.19207
6.00096	8.9067
5.99403	8.85218
5.98711	8.83774
5.9802	8.75789
5.97331	8.85783
5.96644	9.07458
5.95958	9.54083
5.95274	10.1946
5.94591	10.9163
5.9391	11.7583
5.9323	12.5306
5.92552	13.1313
5.91876	13.6111
5.91201	13.8437
5.90528	13.9104
5.89856	13.8522
5.89186	13.4118
5.88517	12.9005
5.8785	12.2355
5.87184	11.568
5.8652	11.1379
5.85857	10.8236
5.85196	10.7895
5.84536	10.9977
5.83878	11.2736
5.83221	11.7605
5.82566	12.3723
5.81912	12.9313
5.81259	13.4013
5.80608	13.8232
5.79959	14.2275
5.79311	14.4581
5.78665	14.6135
5.78019	14.8126
5.77376	14.9696
5.76734	15.0923
5.76093	15.0301
5.75453	14.8853
5.74815	14.8382
5.74179	14.8002
5.73543	14.6529
5.7291	14.4574
5.72277	14.295
5.71646	14.1436
5.71017	13.9787
5.70389	13.7214
5.69762	13.3911
5.69136	13.1342
5.68513	13.013
5.6789	12.9094
5.67268	12.8922
5.66648	12.9111
5.6603	12.9998
5.65413	13.2114
5.64797	13.4817
5.64182	13.7863
5.63569	13.8361
5.62957	13.7909
5.62347	13.8529
5.61737	13.8085
5.61129	13.7115
5.60522	13.6126
5.59917	13.3725
5.59313	13.0989
5.5871	12.8491
5.58109	12.5659
5.57509	12.2708
5.5691	12.0545
5.56312	11.8873
5.55716	11.6759
5.55121	11.5474
5.54528	11.5005
5.53935	11.4935
5.53344	11.4999
5.52754	11.4677
5.52166	11.4329
5.51578	11.3961
5.50992	11.3517
5.50407	11.3439
5.49823	11.3248
5.49241	11.283
5.4866	11.3365
5.4808	11.5156
5.47501	11.6914
5.46923	11.9592
5.46347	12.3276
5.45772	12.7909
5.45198	13.4
5.44625	14.0208
5.44054	14.6194
5.43484	15.1434
5.42914	15.5717
5.42347	15.8281
5.4178	15.9116
5.41214	15.8744
5.4065	15.7532
5.40087	15.5712
5.39525	15.3801
5.38964	15.2259
5.38404	15.1297
5.37846	14.9874
5.37288	14.946
5.36732	14.9945
5.36177	15.0412
5.35623	15.1391
5.35071	15.175
5.34519	15.2782
5.33968	15.4847
5.33419	15.6775
5.32871	15.8843
5.32324	16.1863
5.31778	16.5119
5.31233	16.9088
5.30689	17.1801
5.30147	17.2297
5.29605	17.2241
5.29065	17.3104
5.28525	17.32
5.27987	17.244
5.2745	17.1555
5.26914	17.004
5.26379	16.7421
5.25845	16.5205
5.25312	16.3972
5.24781	16.1354
5.2425	15.7613
5.23721	15.4612
5.23192	15.1205
5.22665	14.7679
5.22138	14.4725
5.21613	14.3321
5.21089	14.4141
5.20566	14.4956
5.20044	14.7004
5.19522	15.1085
5.19002	15.5453
5.18483	15.9322
5.17965	16.228
5.17448	16.5326
5.16933	16.8251
5.16418	16.9965
5.15904	17.1278
5.15391	17.2394
5.14879	17.2408
5.14368	17.2708
5.13859	17.3962
5.1335	17.5246
5.12842	17.6958
5.12335	17.9631
5.1183	18.4464
5.11325	19.0216
5.10821	19.7179
5.10318	20.7597
5.09817	21.9196
5.09316	23.142
5.08816	24.4411
5.08317	25.7392
5.07819	26.9113
5.07322	27.953
5.06826	28.8521
5.06331	29.7088
5.05837	30.4717
5.05344	31.106
5.04852	31.6392
5.04361	32.0997
5.03871	32.4602
5.03382	32.732
5.02894	32.8976
5.02406	33.0089
5.0192	33.0494
5.01435	33.0482
5.0095	33.1352
5.00467	33.1749
4.99984	33.1144
4.99502	33.1403
4.99021	33.1636
4.98542	33.1718
4.98063	33.1769
4.97585	33.1242
4.97108	32.9749
4.96632	32.8059
4.96156	32.5398
4.95682	32.1968
4.95209	31.767
4.94736	31.3988
4.94264	31.2256
4.93794	31.328
4.93324	31.7035
4.92855	32.2726
4.92387	32.8013
4.9192	33.3203
4.91453	33.8495
4.90988	34.4128
4.90524	35.0099
4.9006	35.5527
4.89597	36.0572
4.89135	36.577
4.88674	37.1353
4.88214	37.6661
4.87755	38.0529
4.87296	38.3692
4.86839	38.6722
4.86382	38.9673
4.85926	39.09
4.85471	39.1508
4.85017	39.1266
4.84564	39.0753
4.84111	39.0976
4.8366	39.2083
4.83209	39.3201
4.82759	39.4619
4.8231	39.5267
4.81862	39.5581
4.81415	39.6744
4.80968	39.8969
4.80522	40.09
4.80077	40.3042
4.79633	40.4973
4.7919	40.6851
4.78747	40.8698
4.78306	41.0848
4.77865	41.4188
4.77425	41.9141
4.76986	42.492
4.76547	43.1532
4.7611	43.8026
4.75673	44.3461
4.75237	44.8002
4.74802	45.0601
4.74367	45.014
4.73934	44.7868
4.73501	44.4194
4.73069	44.0322
4.72638	43.5994
4.72207	43.1645
4.71777	42.777
4.71348	42.5056
4.7092	42.3164
4.70493	42.1968
4.70066	42.3344
4.69641	42.6218
4.69216	42.9087
4.68791	43.2483
4.68368	43.5491
4.67945	43.748
4.67523	43.8528
4.67102	43.8859
4.66682	43.878
4.66262	43.7869
4.65843	43.6689
4.65425	43.5676
4.65007	43.5462
4.64591	43.7945
4.64175	44.3904
4.6376	45.1543
4.63345	46.11
4.62932	47.2555
4.62519	48.3861
4.62106	49.5436
4.61695	50.7081
4.61284	51.835
4.60874	52.8422
4.60465	53.7574
4.60056	54.5846
4.59648	55.2762
4.59241	55.8669
4.58835	56.3521
4.58429	56.6986
4.58024	56.9795
4.5762	57.2209
4.57216	57.4632
4.56814	57.7211
4.56411	57.9905
4.5601	58.2044
4.55609	58.4015
4.55209	58.594
4.5481	58.7909
4.54411	58.9252
4.54013	59.0172
4.53616	59.0416
4.5322	59.1292
4.52824	59.2406
4.52429	59.2339
4.52034	59.1826
4.51641	59.1296
4.51247	59.0474
4.50855	58.9912
4.50463	58.9222
4.50072	58.9205
4.49682	58.9299
4.49292	59.0102
4.48903	59.0667
4.48515	59.1093
4.48127	59.1685
4.4774	59.1742
4.47354	59.1018
4.46968	59.0652
4.46584	58.9988
4.46199	58.958
4.45815	59.0385
4.45432	59.2332
4.4505	59.4916
4.44668	59.9126
4.44287	60.4872
4.43907	61.1939
4.43527	61.9906
4.43148	62.7704
4.4277	63.4398
4.42392	63.9616
4.42015	64.4367
4.41638	64.867
4.41262	65.1234
4.40887	65.434
4.40513	65.7695
4.40139	66.2183
4.39765	66.7688
4.39393	67.2664
4.39021	67.6926
4.38649	68.0536
4.38278	68.3795
4.37908	68.5854
4.37539	68.7741
4.3717	68.9141
4.36801	68.9797
4.36434	69.0842
4.36067	69.2029
4.357	69.288
4.35335	69.3229
4.34969	69.3743
4.34605	69.411
4.34241	69.4641
4.33877	69.5114
4.33514	69.5812
4.33152	69.6715
4.32791	69.7059
4.3243	69.6956
4.32069	69.6922
4.3171	69.695
4.31351	69.7601
4.30992	69.8183
4.30634	69.8412
4.30277	69.868
4.2992	69.9217
4.29564	69.9713
4.29208	70.0849
4.28853	70.1992
4.28499	70.3022
4.28145	70.4001
4.27792	70.4655
4.27439	70.5609
4.27087	70.6968
4.26735	70.8261
4.26384	70.9594
4.26034	71.0753
4.25684	71.2568
4.25335	71.3289
4.24986	71.3233
4.24638	71.3238
4.24291	71.2902
4.23944	71.2087
4.23598	71.225
4.23252	71.229
4.22906	71.2597
4.22562	71.2297
4.22218	71.1766
4.21874	71.1577
4.21531	71.1963
4.21189	71.1982
4.20847	71.1753
4.20506	71.2997
4.20165	71.3928
4.19825	71.3509
4.19485	71.2734
4.19146	71.2011
4.18807	71.1879
4.18469	71.2226
4.18132	71.2196
4.17795	71.1707
4.17458	71.1235
4.17123	71.089
4.16787	71.0954
4.16453	71.1107
4.16118	71.1165
4.15785	71.1522
4.15451	71.2373
4.15119	71.3129
4.14787	71.2934
4.14455	71.2437
4.14124	71.2913
4.13794	71.3264
4.13464	71.3464
4.13134	71.3205
4.12805	71.3027
4.12477	71.3152
4.12149	71.3426
4.11822	71.357
4.11495	71.3129
4.11168	71.3031
4.10843	71.2851
4.10517	71.2007
4.10192	71.084
4.09868	71
4.09545	70.9451
4.09221	70.8239
4.08899	70.7265
4.08576	70.6328
4.08255	70.6245
4.07933	70.5706
4.07613	70.5367
4.07292	70.5711
4.06973	70.5792
4.06654	70.5226
4.06335	70.5182
4.06017	70.4592
4.05699	70.4372
4.05382	70.4886
4.05065	70.5694
4.04749	70.6506
4.04433	70.6808
4.04118	70.6773
4.03803	70.8287
4.03489	70.9693
4.03175	71.076
4.02862	71.2405
4.02549	71.473
4.02237	71.7583
4.01925	72.0319
4.01614	72.273
4.01303	72.5079
4.00993	72.6389
4.00683	72.8468
4.00373	73.0346
4.00064	73.181
3.99756	73.2245
3.99448	73.2656
3.9914	73.406
3.98833	73.4587
3.98527	73.4077
3.98221	73.406
3.97915	73.4261
3.9761	73.438
3.97305	73.4397
3.97001	73.4196
3.96697	73.4491
3.96394	73.5433
3.96091	73.5089
3.95789	73.4666
3.95487	73.4294
3.95186	73.375
3.94885	73.3106
3.94584	73.3458
3.94284	73.3138
3.93984	73.1915
3.93685	73.1045
3.93386	73.0459
3.93088	72.9694
3.9279	72.8962
3.92493	72.8787
3.92196	72.9072
3.919	72.9386
3.91604	72.9964
3.91308	73.0414
3.91013	73.0865
3.90718	73.0868
3.90424	73.1146
3.9013	73.1376
3.89837	73.1997
3.89544	73.2268
3.89252	73.3267
3.8896	73.4474
3.88668	73.5755
3.88377	73.7387
3.88086	73.8546
3.87796	73.9418
3.87506	74.0442
3.87217	74.1735
3.86928	74.4021
3.86639	74.5615
3.86351	74.751
3.86064	74.9666
3.85776	75.005
3.8549	75.0011
3.85203	75.0685
3.84917	75.1261
3.84631	75.2094
3.84346	75.3434
3.84062	75.4131
3.83777	75.4043
3.83494	75.5255
3.8321	75.6609
3.82927	75.6796
3.82644	75.7561
3.82362	75.9067
3.82081	75.9787
3.81799	76.1086
3.81518	76.2486
3.81238	76.3659
3.80958	76.5436
3.80678	76.723
3.80399	76.8767
3.8012	77.071
3.79841	77.2069
3.79563	77.435
3.79286	77.6058
3.79008	77.7654
3.78731	78.0064
3.78455	78.2746
3.78179	78.4775
3.77903	78.622
3.77628	78.7378
3.77353	78.8807
3.77079	79.0505
3.76805	79.2417
3.76531	79.3061
3.76258	79.3916
3.75985	79.5074
3.75713	79.6574
3.7544	79.7865
3.75169	79.8305
3.74898	79.8347
3.74627	79.9385
3.74356	79.9558
3.74086	79.9921
3.73816	79.9827
3.73547	80.0847
3.73278	80.126
3.7301	80.0859
3.72741	80.0367
3.72474	80.0784
3.72206	80.0832
3.71939	80.1521
3.71673	80.244
3.71406	80.3155
3.71141	80.2537
3.70875	80.3053
3.7061	79.8909
3.70345	79.1794
3.70081	79.452
3.69817	80.1365
3.69553	80.0332
3.6929	78.628
3.69027	74.0305
3.68765	73.8961
3.68503	78.3088
3.68241	79.6423
3.6798	79.6438
3.67719	79.5147
3.67458	79.5058
3.67198	79.4207
3.66938	79.3712
3.66678	79.1715
3.66419	79.137
3.66161	79.1981
3.65902	79.1985
3.65644	79.0294
3.65387	78.9287
3.65129	78.7751
3.64872	78.7005
3.64616	78.5956
3.64359	78.553
3.64103	78.5898
3.63848	78.6576
3.63593	78.6434
3.63338	78.7007
3.63084	78.7319
3.6283	78.8062
3.62576	78.879
3.62322	78.9657
3.62069	79.1722
3.61817	79.316
3.61564	79.3783
3.61312	79.4929
3.61061	79.5769
3.6081	79.6698
3.60559	79.801
3.60308	79.917
3.60058	79.9723
3.59808	80.0249
3.59558	80.0686
3.59309	80.1969
3.59061	80.2941
3.58812	80.3083
3.58564	80.3467
3.58316	80.4635
3.58069	80.5148
3.57822	80.5623
3.57575	80.5948
3.57328	80.6032
3.57082	80.6274
3.56836	80.6923
3.56591	80.6282
3.56346	80.5862
3.56101	80.5733
3.55857	80.5602
3.55613	80.5353
3.55369	80.5416
3.55126	80.4965
3.54883	80.4889
3.5464	80.4996
3.54397	80.4123
3.54155	80.2974
3.53914	80.293
3.53672	80.2475
3.53431	80.2131
3.5319	80.112
3.5295	79.9509
3.5271	79.8394
3.5247	79.6582
3.52231	79.3809
3.51991	79.1017
3.51753	78.7236
3.51514	78.2413
3.51276	77.6941
3.51038	77.0724
3.50801	76.3269
3.50563	75.7673
3.50327	75.4257
3.5009	75.0483
3.49854	74.7663
3.49618	74.5887
3.49382	74.5673
3.49147	74.5869
3.48912	74.4906
3.48677	74.4483
3.48443	74.5867
3.48209	74.8107
3.47975	75.1088
3.47742	75.5178
3.47509	75.9741
3.47276	76.4477
3.47044	76.8051
3.46812	77.0309
3.4658	77.2289
3.46348	77.373
3.46117	77.5194
3.45886	77.5344
3.45656	77.4165
3.45425	77.2997
3.45195	77.0672
3.44966	76.8522
3.44736	76.5646
3.44507	76.2118
3.44279	75.8358
3.4405	75.4695
3.43822	75.0781
3.43594	74.62
3.43367	74.0968
3.43139	73.5202
3.42912	72.8844
3.42686	72.1338
3.42459	71.4234
3.42233	71.0043
3.42007	70.6696
3.41782	70.3452
3.41557	70.0962
3.41332	69.9206
3.41108	69.8225
3.40883	69.7845
3.40659	69.7518
3.40435	69.6918
3.40212	69.6164
3.39989	69.5193
3.39766	69.3198
3.39544	69.0213
3.39322	68.5113
3.391	67.9277
3.38878	67.2757
3.38657	66.5397
3.38436	65.6373
3.38215	64.7358
3.37994	63.8291
3.37774	62.8973
3.37554	61.9553
3.37335	60.9624
3.37115	59.84
3.36896	58.6294
3.36678	57.4018
3.36459	56.0477
3.36241	54.2415
3.36023	52.2018
3.35805	50.5691
3.35588	49.7949
3.35371	50.1966
3.35154	51.6427
3.34938	53.7876
3.34721	56.3062
3.34505	58.9726
3.3429	61.3437
3.34074	63.042
3.33859	63.8906
3.33644	63.7574
3.3343	62.9161
3.33215	61.4471
3.33001	59.4546
3.32788	57.3255
3.32574	55.2164
3.32361	53.254
3.32148	51.4581
3.31936	49.9675
3.31723	48.6891
3.31511	47.5999
3.31299	46.9852
3.31088	46.8709
3.30876	47.3021
3.30665	48.3654
3.30455	50.0516
3.30244	52.381
3.30034	55.3369
3.29824	58.5484
3.29614	61.4525
3.29405	63.6262
3.29196	65.1629
3.28987	66.1377
3.28778	66.6517
3.2857	66.8343
3.28362	66.7595
3.28154	66.8175
3.27946	67.3458
3.27739	68.4814
3.27532	70.1897
3.27325	72.0905
3.27119	73.7345
3.26913	74.9621
3.26707	75.8611
3.26501	76.562
3.26295	77.1158
3.2609	77.4563
3.25885	77.6898
3.2568	77.8624
3.25476	77.9512
3.25272	78.0201
3.25068	78.053
3.24864	78.095
3.24661	77.9385
3.24458	77.751
3.24255	77.6944
3.24052	77.5613
3.2385	77.2718
3.23648	76.9842
3.23446	76.7425
3.23244	76.5116
3.23043	76.235
3.22841	75.8379
3.2264	75.4706
3.2244	75.1029
3.22239	74.8287
3.22039	74.6702
3.21839	74.5069
3.2164	74.4375
3.2144	74.4249
3.21241	74.3829
3.21042	74.252
3.20844	74.0089
3.20645	73.7089
3.20447	73.3174
3.20249	72.8312
3.20051	72.2887
3.19854	71.7724
3.19657	71.3163
3.1946	70.713
3.19263	70.0554
3.19067	69.2783
3.1887	68.3238
3.18674	67.5335
3.18479	67.1739
3.18283	67.0832
3.18088	67.0334
3.17893	66.807
3.17698	66.2796
3.17504	65.6395
3.17309	65.0793
3.17115	64.5954
3.16921	64.2874
3.16728	64.2351
3.16534	64.2286
3.16341	64.2269
3.16148	64.0443
3.15956	63.3037
3.15763	62.2498
3.15571	62.1534
3.15379	63.2686
3.15187	64.5132
3.14996	65.0939
3.14805	65.1125
3.14614	65.3136
3.14423	66.1524
3.14232	67.6418
3.14042	69.257
3.13852	70.6488
3.13662	71.6798
3.13472	72.4052
3.13283	72.9989
3.13094	73.4397
3.12905	73.7059
3.12716	73.8683
3.12528	73.9634
3.12339	73.8581
3.12151	73.7519
3.11964	73.5576
3.11776	73.2684
3.11589	73.0202
3.11401	72.7573
3.11214	72.5742
3.11028	72.349
3.10841	71.9518
3.10655	71.5788
3.10469	71.2414
3.10283	70.7365
3.10098	69.989
3.09912	69.0994
3.09727	68.4468
3.09542	68.3305
3.09358	68.6758
3.09173	69.2705
3.08989	69.8257
3.08805	70.0521
3.08621	69.7565
3.08437	69.2074
3.08254	68.6254
3.08071	68.3373
3.07888	68.3169
3.07705	68.1594
3.07523	68.0021
3.0734	68.2814
3.07158	68.8639
3.06977	69.2543
3.06795	69.053
3.06613	68.5412
3.06432	68.1122
3.06251	67.988
3.0607	68.0653
3.0589	68.0907
3.0571	68.0563
3.05529	67.9002
3.05349	67.5976
3.0517	67.3618
3.0499	67.2337
3.04811	67.2461
3.04632	67.427
3.04453	67.5655
3.04274	67.2852
3.04096	66.6645
3.03918	66.2359
3.0374	65.9745
3.03562	65.7669
3.03384	65.5204
3.03207	65.4606
3.03029	65.7854
3.02852	66.5749
3.02676	67.5472
3.02499	68.3505
3.02323	68.8922
3.02146	69.3117
3.0197	69.6235
3.01795	69.8849
3.01619	70.058
3.01444	70.1106
3.01269	70.1756
3.01094	69.9608
3.00919	69.4963
3.00744	69.1445
3.0057	68.8369
3.00396	68.5225
3.00222	68.1682
3.00048	67.8535
2.99875	67.7041
2.99701	67.5253
2.99528	67.3481
2.99355	67.1181
2.99183	66.8124
2.9901	66.5756
2.98838	66.3618
2.98666	66.2244
2.98494	66.2493
2.98322	66.5133
2.9815	66.9422
2.97979	67.4455
2.97808	67.9449
2.97637	68.058
2.97466	67.8705
2.97295	67.7449
2.97125	67.4647
2.96955	67.1728
2.96785	66.976
2.96615	66.8508
2.96446	66.6994
2.96276	66.5004
2.96107	66.3122
2.95938	66.1344
2.95769	66.1203
2.95601	66.1921
2.95432	66.2975
2.95264	66.3305
2.95096	66.3399
2.94928	66.3172
2.9476	66.1594
2.94593	65.8762
2.94425	65.7633
2.94258	65.8596
2.94092	66.0519
2.93925	66.2289
2.93758	66.3316
2.93592	66.4427
2.93426	66.5265
2.9326	66.4928
2.93094	66.2988
2.92928	66.2083
2.92763	66.3008
2.92598	66.5672
2.92433	66.9523
2.92268	67.0825
2.92103	66.9963
2.91939	66.7724
2.91775	66.5225
2.9161	66.2725
2.91447	65.81
2.91283	65.2703
2.91119	64.8339
2.90956	64.5553
2.90793	64.5553
2.9063	64.6702
2.90467	64.9557
2.90304	65.003
2.90142	64.8195
2.89979	64.6199
2.89817	64.3558
2.89656	64.1216
2.89494	63.8534
2.89332	63.6994
2.89171	63.6613
2.8901	63.8998
2.88849	64.2801
2.88688	64.4805
2.88527	64.0897
2.88367	63.2553
2.88206	62.8355
2.88046	63.1896
2.87886	63.7873
2.87727	64.063
2.87567	64.0495
2.87408	64.1062
2.87248	64.2728
2.87089	64.6417
2.8693	64.9634
2.86772	64.9701
2.86613	65.0778
2.86455	65.4029
2.86297	65.6669
2.86139	65.6271
2.85981	65.3699
2.85823	65.1933
2.85666	65.1976
2.85508	65.2548
2.85351	65.1574
2.85194	64.6671
2.85038	64.2712
2.84881	64.4928
2.84724	65.0966
2.84568	65.8542
2.84412	66.5061
2.84256	66.7998
2.841	66.7134
2.83945	66.6772
2.83789	66.6922
2.83634	66.5643
2.83479	66.3799
2.83324	66.2466
2.83169	66.1409
2.83015	66.0444
2.82861	65.9572
2.82706	65.8115
2.82552	65.7651
2.82398	65.7977
2.82245	65.7249
2.82091	65.502
2.81938	65.2107
2.81784	64.7258
2.81631	64.0475
2.81479	63.2316
2.81326	62.2462
2.81173	61.1434
2.81021	60.0639
2.80869	59.1015
2.80716	58.4803
2.80565	58.3188
2.80413	58.6174
2.80261	58.8577
2.8011	58.6647
2.79959	58.0788
2.79808	56.9466
2.79657	55.4733
2.79506	54.2408
2.79355	53.5673
2.79205	53.3342
2.79055	53.5309
2.78904	54.1665
2.78754	54.8918
2.78605	55.7536
2.78455	56.7252
2.78306	57.0153
2.78156	56.7989
2.78007	57.2389
2.77858	58.9647
2.77709	60.46
2.77561	61.4128
2.77412	62.2042
2.77264	62.0533
2.77116	62.3576
2.76968	63.4913
2.7682	64.0572
2.76672	64.1036
2.76524	64.2769
2.76377	64.4634
2.7623	64.0932
2.76083	63.3117
2.75936	63.4414
2.75789	63.8909
2.75642	64.1831
2.75496	63.4303
2.7535	61.5051
2.75203	60.3444
2.75057	59.7386
2.74912	59.2147
2.74766	57.5522
2.7462	51.8076
2.74475	46.1617
2.7433	48.7801
2.74185	52.3726
2.7404	51.9831
2.73895	50.0513
2.7375	47.7392
2.73606	45.2212
2.73462	40.7417
2.73318	32.5484
2.73174	26.3991
2.7303	30.371
2.72886	36.819
2.72742	39.0059
2.72599	37.7341
2.72456	34.8933
2.72313	30.0007
2.7217	23.0355
2.72027	15.9756
2.71884	16.5055
2.71742	25.154
2.71599	33.369
2.71457	38.813
2.71315	42.6665
2.71173	45.9428
2.71032	49.1117
2.7089	52.0933
2.70748	54.5705
2.70607	56.6938
2.70466	58.7137
2.70325	60.4836
2.70184	61.9303
2.70043	63.1078
2.69903	64.1584
2.69762	65.2494
2.69622	66.1602
2.69482	67.0263
2.69342	67.6195
2.69202	67.3908
2.69062	67.9333
2.68923	69.5625
2.68783	70.7447
2.68644	71.1697
2.68505	71.4675
2.68366	72.236
2.68227	72.8677
2.68089	72.9406
2.6795	72.8038
2.67812	72.8932
2.67673	73.9539
2.67535	75.4556
2.67397	76.4789
2.6726	77.1716
2.67122	78.0321
2.66984	78.2471
2.66847	78.0715
2.6671	78.5345
2.66572	78.8329
2.66435	78.6032
2.66299	78.1078
2.66162	77.968
2.66025	77.7171
2.65889	77.2628
2.65753	76.7231
2.65616	76.1818
2.65481	75.762
2.65345	75.6086
2.65209	75.4412
2.65073	74.9552
2.64938	74.2312
2.64803	73.7214
2.64667	73.6309
2.64532	73.4629
2.64397	73.1246
2.64263	73.0669
2.64128	73.1928
2.63994	73.4249
2.63859	73.5206
2.63725	73.5128
2.63591	73.4176
2.63457	73.5596
2.63323	73.6647
2.6319	73.738
2.63056	73.834
2.62923	73.4775
2.62789	73.2827
2.62656	73.1199
2.62523	72.5287
2.6239	72.0599
2.62258	71.759
2.62125	71.758
2.61993	71.6156
2.6186	71.3758
2.61728	71.4514
2.61596	71.5492
2.61464	71.7074
2.61332	71.913
2.61201	71.957
2.61069	72.0488
2.60938	71.7986
2.60807	71.1752
2.60675	70.5517
2.60544	69.5919
2.60414	68.3241
2.60283	67.9131
2.60152	68.118
2.60022	68.0511
2.59891	67.5183
2.59761	66.955
2.59631	67.2581
2.59501	68.3513
2.59371	68.2333
2.59242	67.4585
2.59112	66.9476
2.58983	66.4906
2.58853	66.1112
2.58724	65.8494
2.58595	65.1132
2.58466	64.4735
2.58338	63.9755
2.58209	63.5993
2.5808	63.3721
2.57952	62.6698
2.57824	61.7426
2.57695	61.0087
2.57567	61.4438
2.5744	63.0124
2.57312	64.1095
2.57184	63.7276
2.57057	62.9646
2.56929	62.4404
2.56802	62.3258
2.56675	62.4012
2.56548	62.8046
2.56421	63.6072
2.56294	64.1717
2.56168	64.2453
2.56041	63.87
2.55915	63.3774
2.55789	62.9018
2.55662	62.5213
2.55536	62.3262
2.5541	62.3806
2.55285	62.9751
2.55159	63.8296
2.55034	64.6309
2.54908	65.119
2.54783	65.4815
2.54658	66.0037
2.54533	66.0575
2.54408	65.6258
2.54283	64.9414
2.54159	64.1474
2.54034	63.2345
2.5391	62.5429
2.53785	62.5507
2.53661	62.8354
2.53537	62.6415
2.53413	62.2326
2.53289	62.0057
2.53166	61.7214
2.53042	61.0297
2.52919	60.3646
2.52795	60.4064
2.52672	61.171
2.52549	61.9827
2.52426	62.3326
2.52303	62.0725
2.52181	61.6661
2.52058	61.4091
2.51936	61.071
2.51813	60.5825
2.51691	60.0988
2.51569	59.9234
2.51447	60.0824
2.51325	60.5182
2.51203	61.2243
2.51082	62.2006
2.5096	63.0649
2.50839	63.5158
2.50717	63.8458
2.50596	64.0765
2.50475	63.8448
2.50354	62.8784
2.50233	61.4021
2.50113	60.138
2.49992	59.7238
2.49872	60.0117
2.49751	60.2129
2.49631	60.0222
2.49511	60.1029
2.49391	60.7787
2.49271	61.6932
2.49151	62.5659
2.49031	63.2278
2.48912	63.7536
2.48792	64.2045
2.48673	64.4692
2.48554	64.3808
2.48435	64.2202
2.48316	64.4228
2.48197	64.9369
2.48078	65.2906
2.4796	65.001
2.47841	63.981
2.47723	62.5846
2.47604	61.2064
2.47486	59.907
2.47368	58.6023
2.4725	57.4905
2.47132	56.378
2.47014	54.9837
2.46897	53.5543
2.46779	52.716
2.46662	52.6116
2.46545	52.9251
2.46427	53.0899
2.4631	53.0934
2.46193	53.5255
2.46077	54.579
2.4596	55.9762
2.45843	56.9976
2.45727	57.049
2.4561	56.6672
2.45494	56.7002
2.45378	57.213
2.45262	58.0502
2.45146	58.6271
2.4503	58.7317
2.44914	58.7717
2.44799	58.7634
2.44683	59.0296
2.44568	59.5242
2.44452	59.9696
2.44337	60.2732
2.44222	60.0789
2.44107	59.4369
2.43992	58.8786
2.43877	58.9462
2.43763	59.0206
2.43648	58.7416
2.43534	58.4171
2.43419	58.6289
2.43305	59.8307
2.43191	61.0755
2.43077	61.3346
2.42963	60.5122
2.42849	58.932
2.42736	57.4417
2.42622	56.8085
2.42509	57.4415
2.42395	59.202
2.42282	61.2356
2.42169	62.5847
2.42056	63.3569
2.41943	64.0715
2.4183	64.7012
2.41717	65.1144
2.41605	65.4833
2.41492	65.4644
2.4138	65.25
2.41267	65.4807
2.41155	65.8195
2.41043	66.0061
2.40931	65.8845
2.40819	65.3252
2.40707	64.513
2.40595	63.6062
2.40484	62.5046
2.40372	61.1791
2.40261	59.5891
2.4015	57.6292
2.40039	55.2646
2.39928	52.5712
2.39817	50.0518
2.39706	48.2146
2.39595	47.4138
2.39484	47.0852
2.39374	46.2868
2.39263	44.8495
2.39153	43.9346
2.39043	44.4788
2.38932	45.6033
2.38822	46.3634
2.38712	46.6181
2.38603	46.6989
2.38493	46.8385
2.38383	47.1099
2.38274	47.5056
2.38164	47.9868
2.38055	48.5574
2.37946	49.4669
2.37836	50.3663
2.37727	50.7523
2.37618	50.8937
2.3751	51.4755
2.37401	52.6204
2.37292	54.2453
2.37184	55.9298
2.37075	57.1931
2.36967	58.2033
2.36859	59.2006
2.3675	60.207
2.36642	61.1883
2.36534	62.2279
2.36427	63.0596
2.36319	63.6958
2.36211	64.137
2.36104	64.3353
2.35996	64.1466
2.35889	63.7526
2.35781	63.4656
2.35674	63.3312
2.35567	63.4474
2.3546	63.7913
2.35353	64.3176
2.35247	65.1438
2.3514	65.9842
2.35033	66.806
2.34927	67.7674
2.3482	68.7123
2.34714	69.3942
2.34608	69.866
2.34502	70.2784
2.34396	70.5437
2.3429	70.7111
2.34184	70.8102
2.34078	70.6668
2.33973	70.3139
2.33867	69.665
2.33762	68.7803
2.33656	67.5711
2.33551	66.0625
2.33446	64.6281
2.33341	63.089
2.33236	61.6283
2.33131	60.0101
2.33026	57.9555
2.32922	55.4522
2.32817	52.3578
2.32712	49.2025
2.32608	46.3832
2.32504	44.2437
2.324	42.9319
2.32295	42.4784
2.32191	42.3103
2.32087	41.9353
2.31984	40.9625
2.3188	39.3153
2.31776	37.1344
2.31673	34.3471
2.31569	31.4313
2.31466	29.4384
2.31362	28.5772
2.31259	28.6155
2.31156	28.9724
2.31053	29.7787
2.3095	30.8908
2.30847	32.008
2.30745	33.4556
2.30642	35.1109
2.3054	36.8688
2.30437	38.5074
2.30335	39.9808
2.30232	41.375
2.3013	42.8356
2.30028	44.3043
2.29926	45.5862
2.29824	46.7581
2.29722	47.5443
2.29621	47.4508
2.29519	46.1323
2.29417	43.7888
2.29316	41.0707
2.29215	38.5272
2.29113	36.6627
2.29012	36.01
2.28911	36.6104
2.2881	37.9679
2.28709	39.7292
2.28608	41.8305
2.28507	44.3492
2.28407	46.9347
2.28306	49.0408
2.28206	50.615
2.28105	52.1109
2.28005	53.8937
2.27905	55.3379
2.27805	56.4692
2.27705	57.7006
2.27605	58.9253
2.27505	60.0988
2.27405	61.4087
2.27305	62.4406
2.27206	63.3872
2.27106	64.4975
2.27007	65.4654
2.26907	66.3236
2.26808	67.2364
2.26709	68.1555
2.2661	68.9729
2.26511	69.843
2.26412	70.6098
2.26313	71.2714
2.26214	72.0429
2.26116	72.7516
2.26017	73.3783
2.25919	74.0266
2.2582	74.6603
2.25722	75.4091
2.25624	76.0759
2.25526	76.7114
2.25428	77.3736
2.2533	77.9672
2.25232	78.5068
2.25134	78.9596
2.25036	79.5456
2.24939	80.1808
2.24841	80.6524
2.24744	81.002
2.24646	81.2799
2.24549	81.4955
2.24452	81.5663
2.24355	81.5596
2.24257	81.4629
2.24161	81.2591
2.24064	80.9662
2.23967	80.4595
2.2387	79.723
2.23774	78.9932
2.23677	78.3012
2.23581	77.3199
2.23484	76.2059
2.23388	75.0077
2.23292	74.0199
2.23196	73.5248
2.231	73.4375
2.23004	73.848
2.22908	74.4019
2.22812	74.7402
2.22716	75.2298
2.22621	76.2417
2.22525	77.958
2.2243	79.741
2.22334	81.3137
2.22239	82.5634
2.22144	83.3481
2.22049	83.805
2.21953	83.9389
2.21859	84.0156
2.21764	84.2071
2.21669	84.2773
2.21574	84.4017
2.21479	84.4205
2.21385	84.3186
2.2129	84.3581
2.21196	84.519
2.21102	84.4684
2.21007	84.4044
2.20913	84.4178
2.20819	84.5652
2.20725	84.5796
2.20631	84.5352
2.20537	84.5466
2.20444	84.4403
2.2035	84.3948
2.20256	84.3467
2.20163	84.1997
2.20069	84.1356
2.19976	84.0778
2.19883	84.1079
2.19789	84.1515
2.19696	84.089
2.19603	83.9625
2.1951	83.9339
2.19417	83.9427
2.19325	83.8234
2.19232	83.6686
2.19139	83.5994
2.19047	83.4854
2.18954	83.3852
2.18862	83.4142
2.18769	83.2641
2.18677	83.0466
2.18585	82.9152
2.18493	82.6949
2.18401	82.2727
2.18309	81.7928
2.18217	81.2098
2.18125	80.6363
2.18033	80.14
2.17942	79.9637
2.1785	79.9713
2.17759	79.8171
2.17667	79.7407
2.17576	79.6193
2.17485	79.2513
2.17393	78.9612
2.17302	78.8649
2.17211	78.7253
2.1712	78.8401
2.17029	79.3763
2.16939	79.8217
2.16848	80.0125
2.16757	80.207
2.16667	80.518
2.16576	80.6409
2.16486	80.82
2.16395	81.0354
2.16305	81.0821
2.16215	80.9296
2.16125	81.0508
2.16035	81.283
2.15945	81.337
2.15855	81.2932
2.15765	81.2365
2.15675	81.1662
2.15586	81.2695
2.15496	81.5604
2.15406	81.6796
2.15317	81.6774
2.15228	81.5446
2.15138	81.294
2.15049	81.1333
2.1496	80.8901
2.14871	80.6547
2.14782	80.3446
2.14693	79.8705
2.14604	79.753
2.14515	79.7392
2.14427	79.3859
2.14338	79.0309
2.14249	78.9498
2.14161	79.0445
2.14072	78.9175
2.13984	78.7448
2.13896	78.4516
2.13808	78.4926
2.13719	78.6193
2.13631	78.4322
2.13543	78.3431
2.13455	78.4255
2.13368	78.2618
2.1328	78.1357
2.13192	78.069
2.13105	78.027
2.13017	77.8726
2.1293	77.6468
2.12842	77.4894
2.12755	77.3473
2.12668	77.5027
2.1258	78.1246
2.12493	78.7606
2.12406	79.3597
2.12319	79.988
2.12232	80.588
2.12145	80.9841
2.12059	81.2706
2.11972	81.396
2.11885	81.0749
2.11799	80.4998
2.11712	79.7862
2.11626	79.128
2.1154	78.9426
2.11453	79.4862
2.11367	80.455
2.11281	81.1511
2.11195	81.5857
2.11109	81.8038
2.11023	81.8865
2.10937	82.008
2.10851	82.0852
2.10766	82.2072
2.1068	82.1779
2.10594	82.1715
2.10509	82.1767
2.10423	82.1445
2.10338	82.1647
2.10253	82.1606
2.10168	82.059
2.10082	81.9568
2.09997	81.788
2.09912	81.8158
2.09827	81.7778
2.09742	81.5632
2.09658	81.3163
2.09573	81.1859
2.09488	81.2013
2.09404	81.2225
2.09319	80.9279
2.09235	80.6613
2.0915	80.6021
2.09066	80.9473
2.08982	80.7282
2.08897	80.2371
2.08813	80.1277
2.08729	80.1058
2.08645	80.0553
2.08561	80.0046
2.08477	79.9586
2.08394	79.8997
2.0831	79.4649
2.08226	78.9598
2.08143	78.5094
2.08059	78.1287
2.07976	77.9167
2.07892	77.1961
2.07809	76.5703
2.07726	76.6424
2.07643	77.17
2.07559	77.9972
2.07476	78.8549
2.07393	79.6763
2.0731	80.0936
2.07228	80.482
2.07145	81.2662
2.07062	82.2064
2.06979	83.1495
2.06897	83.9972
2.06814	84.2845
2.06732	84.2577
2.06649	84.3838
2.06567	84.7269
2.06485	84.981
2.06403	85.1921
2.0632	85.4941
2.06238	85.3785
2.06156	85.1714
2.06074	85.3593
2.05993	85.5203
2.05911	85.5499
2.05829	85.6207
2.05747	85.6668
2.05666	85.9055
2.05584	86.1671
2.05503	86.3132
2.05421	86.2509
2.0534	86.3135
2.05259	86.2689
2.05177	86.3141
2.05096	86.4887
2.05015	86.6247
2.04934	86.7402
2.04853	86.7564
2.04772	86.8476
2.04691	87.1163
2.04611	87.2691
2.0453	87.3507
2.04449	87.3697
2.04369	87.3781
2.04288	87.1802
2.04208	87.3819
2.04127	87.8501
2.04047	87.9388
2.03967	87.8219
2.03886	87.893
2.03806	88.1314
2.03726	88.1381
2.03646	88.1671
2.03566	88.2751
2.03486	88.4578
2.03407	88.3727
2.03327	88.3176
2.03247	88.4605
2.03167	88.4959
2.03088	88.6109
2.03008	88.7766
2.02929	88.5983
2.0285	88.3103
2.0277	88.2942
2.02691	88.2348
2.02612	88.0523
2.02533	87.8625
2.02453	87.7352
2.02374	87.769
2.02295	87.5906
2.02217	87.3509
2.02138	87.1007
2.02059	86.8607
2.0198	86.6925
2.01902	86.5301
2.01823	86.4101
2.01744	86.2829
2.01666	86.1212
2.01588	86.0212
2.01509	85.843
2.01431	85.7855
2.01353	85.8503
2.01275	85.8203
2.01196	85.9302
2.01118	86.0291
2.0104	86.2239
2.00963	86.3715
2.00885	86.6663
2.00807	87.0019
2.00729	87.1798
2.00651	87.4128
2.00574	87.4288
2.00496	87.5298
2.00419	87.7807
2.00341	87.9123
2.00264	87.881
2.00187	87.9102
2.00109	88.0067
2.00032	87.97
