Name: Andesite Porphyry
Type: Rock
Class: Igneous
Subclass:  Intermediate 
Particle Size: Solid surface
Sample No.: Ward30.txt
Owner: JPL
Wavelength range:  IR 
Origin: Ward's Collection of American Rocks.  Sample locality - Near Ward, Boulder county, Colorado.
Collected by:  Ward's Natural Science
Description: A light gray, porphyritic rock with phenocrysts of plagioclase
and hornblende in a fine crystalline groundmass.
Geologic age - Tertiary (Eocene).



Measurement: Hemispherical reflectance
First Column: X
Second Column: Y
X Units: Wavelength (micrometers)
Y Units: Reflectance (percent)
First X Value: 15.3871
Last X Value: 1.9998
Number of X Values: 2257
Additional information: None

15.3871   4.50500
15.3416   4.80423
15.2964   4.23997
15.2514   3.94490
15.2066   4.05134
15.1622   3.92030
15.1180   3.47934
15.0740   3.53517
15.0303   3.56263
14.9869   3.04655
14.9437   2.78246
14.9008   3.38471
14.8581   4.36341
14.8156   4.35755
14.7734   3.77267
14.7314   3.63475
14.6897   3.55979
14.6482   3.40927
14.6069   3.55529
14.5659   3.75589
14.5251   3.94507
14.4845   3.87633
14.4442   3.85449
14.4041   3.65968
14.3642   3.50829
14.3245   3.70735
14.2850   3.66030
14.2458   3.22564
14.2068   3.15678
14.1679   3.57647
14.1293   4.08107
14.0909   4.32628
14.0528   3.95468
14.0148   3.74484
13.9770   3.94113
13.9394   4.09395
13.9021   4.31430
13.8649   4.39187
13.8279   4.37227
13.7911   4.18302
13.7546   4.16449
13.7182   4.34882
13.6820   4.12597
13.6460   3.79142
13.6101   3.92773
13.5745   4.42806
13.5391   4.54299
13.5038   4.53511
13.4687   4.55741
13.4339   4.15669
13.3991   4.52151
13.3646   4.97401
13.3302   5.24093
13.2961   5.21700
13.2621   5.19796
13.2282   5.06423
13.1946   4.58597
13.1611   4.82070
13.1278   5.09610
13.0946   4.99583
13.0616   5.10164
13.0288   5.03641
12.9962   4.87760
12.9637   4.93313
12.9313   5.21229
12.8992   5.58578
12.8672   6.12400
12.8353   6.42318
12.8036   6.36190
12.7721   5.94216
12.7407   5.56850
12.7095   5.39600
12.6784   5.16614
12.6475   4.98315
12.6167   4.75841
12.5861   4.96525
12.5556   4.98950
12.5253   4.79238
12.4951   4.92871
12.4651   5.18706
12.4352   5.08767
12.4054   4.87324
12.3758   4.29671
12.3463   3.64155
12.3170   3.38382
12.2878   3.39454
12.2588   3.26575
12.2299   3.07934
12.2011   3.16127
12.1725   3.68504
12.1439   3.72891
12.1156   3.68234
12.0873   4.14186
12.0592   4.35682
12.0312   4.28235
12.0034   4.35249
11.9757   4.68100
11.9481   4.68863
11.9206   4.30692
11.8933   4.42852
11.8661   4.67598
11.8390   4.77895
11.8120   4.94212
11.7852   4.98802
11.7584   4.76799
11.7318   4.60671
11.7053   4.80667
11.6790   5.11269
11.6527   5.37597
11.6266   5.54606
11.6006   5.72426
11.5747   5.62669
11.5489   5.64139
11.5233   5.74923
11.4977   5.85131
11.4723   5.92288
11.4469   6.06172
11.4217   6.10815
11.3966   6.30045
11.3716   6.52920
11.3468   6.57620
11.3220   6.53074
11.2973   6.18157
11.2728   6.36587
11.2483   6.50224
11.2240   6.71968
11.1997   7.01682
11.1756   6.97931
11.1515   6.87657
11.1276   7.09285
11.1038   7.37477
11.0801   7.01502
11.0564   6.93147
11.0329   7.17851
11.0095   7.33575
10.9862   7.55005
10.9629   7.55011
10.9398   7.59356
10.9168   7.67839
10.8938   8.05536
10.8710   8.33791
10.8483   8.32666
10.8256   8.30710
10.8031   8.34852
10.7806   8.57987
10.7582   8.64043
10.7360   8.74988
10.7138   8.87050
10.6917   8.86081
10.6697   9.09223
10.6478   9.38133
10.6260   9.72173
10.6042   9.79184
10.5826   9.86673
10.5610   9.87361
10.5396   9.98554
10.5182  10.16550
10.4969  10.27310
10.4757  10.59910
10.4546  11.04720
10.4335  11.27800
10.4126  11.31580
10.3917  11.62690
10.3709  11.87640
10.3502  11.68040
10.3296  11.73300
10.3091  12.15320
10.2886  12.29860
10.2683  12.46140
10.2480  12.52930
10.2277  12.95000
10.2076  13.58930
10.1876  14.05340
10.1676  14.28970
10.1477  14.54780
10.1279  14.84650
10.1081  15.05490
10.0885  15.45030
10.0689  15.54220
10.0494  15.57420
10.0299  15.98980
10.0106  16.19810
 9.9913  16.30260
 9.9720  16.59930
 9.9529  16.77690
 9.9338  17.16990
 9.9148  17.38690
 9.8959  17.38700
 9.8771  17.46010
 9.8583  17.55620
 9.8396  17.55640
 9.8210  17.44670
 9.8024  17.25000
 9.7839  17.12260
 9.7655  17.34140
 9.7471  17.49200
 9.7288  17.73370
 9.7106  18.19950
 9.6925  18.66550
 9.6744  18.87890
 9.6564  18.99560
 9.6384  18.98810
 9.6205  18.83090
 9.6027  18.96320
 9.5850  19.32230
 9.5673  19.16040
 9.5497  18.85630
 9.5321  18.67800
 9.5146  18.65330
 9.4972  18.80270
 9.4798  18.87810
 9.4625  19.02450
 9.4453  18.85150
 9.4281  18.57700
 9.4110  18.95910
 9.3940  19.49820
 9.3770  19.58640
 9.3600  19.81880
 9.3432  19.99150
 9.3264  20.13180
 9.3096  20.46220
 9.2930  20.75850
 9.2763  20.62580
 9.2598  20.42200
 9.2432  20.25220
 9.2268  20.39240
 9.2104  20.16360
 9.1941  19.87420
 9.1778  19.95240
 9.1616  20.09960
 9.1454  20.23650
 9.1293  20.02090
 9.1133  19.78950
 9.0973  19.63470
 9.0814  19.61440
 9.0655  19.61750
 9.0497  19.25070
 9.0339  19.06670
 9.0182  19.10880
 9.0025  19.27930
 8.9870  19.16220
 8.9714  18.83640
 8.9559  18.84500
 8.9405  18.98170
 8.9251  19.07590
 8.9097  19.14880
 8.8945  18.79130
 8.8792  18.66290
 8.8641  19.15840
 8.8489  19.58730
 8.8338  19.35660
 8.8188  19.29140
 8.8039  19.56570
 8.7889  19.38370
 8.7741  19.18240
 8.7592  19.24510
 8.7445  19.42620
 8.7297  19.41420
 8.7151  19.18120
 8.7005  19.07800
 8.6859  18.76350
 8.6714  18.31560
 8.6569  17.68850
 8.6425  16.52010
 8.6281  16.38110
 8.6137  17.03370
 8.5994  17.74310
 8.5852  18.53700
 8.5710  19.10840
 8.5569  19.38510
 8.5428  19.38910
 8.5287  19.62490
 8.5147  19.95340
 8.5008  19.91750
 8.4869  19.69330
 8.4730  19.60580
 8.4592  19.80680
 8.4454  19.79570
 8.4316  19.52710
 8.4180  19.35870
 8.4043  19.34280
 8.3907  19.45160
 8.3772  19.48720
 8.3637  19.28350
 8.3502  19.00960
 8.3368  18.55990
 8.3234  18.39110
 8.3100  18.24280
 8.2967  17.92810
 8.2835  17.81760
 8.2703  17.44040
 8.2571  17.11940
 8.2440  16.27360
 8.2309  15.38530
 8.2179  15.33460
 8.2049  15.23570
 8.1919  14.57480
 8.1790  13.80550
 8.1661  13.17840
 8.1532  12.45040
 8.1404  11.67170
 8.1277  11.07100
 8.1150  10.00850
 8.1023   9.04705
 8.0897   8.65518
 8.0770   8.30354
 8.0645   7.49061
 8.0520   6.72052
 8.0395   6.23314
 8.0270   5.97040
 8.0146   5.62043
 8.0023   5.20648
 7.9899   4.87258
 7.9776   4.47570
 7.9654   3.88287
 7.9532   3.69965
 7.9410   3.71525
 7.9288   3.50829
 7.9167   2.98971
 7.9047   2.74231
 7.8926   2.91541
 7.8807   2.86452
 7.8687   2.68884
 7.8568   2.46876
 7.8449   1.98577
 7.8330   1.94310
 7.8212   2.17763
 7.8094   1.97095
 7.7977   1.85392
 7.7860   1.98757
 7.7743   1.85259
 7.7627   1.76465
 7.7511   1.91276
 7.7395   1.98131
 7.7280   1.80404
 7.7165   1.77796
 7.7050   1.63714
 7.6936   1.51664
 7.6822   1.63256
 7.6708   1.56354
 7.6595   1.47202
 7.6482   1.36312
 7.6369   1.54955
 7.6257   1.80676
 7.6145   1.83549
 7.6033   1.66995
 7.5922   1.58651
 7.5811   1.63380
 7.5700   1.44005
 7.5590   1.21395
 7.5480   1.16925
 7.5370   1.31656
 7.5261   1.49034
 7.5152   1.62201
 7.5043   1.62556
 7.4935   1.53279
 7.4826   1.54716
 7.4718   1.69835
 7.4611   1.54537
 7.4504   1.41524
 7.4397   1.24128
 7.4290   1.21180
 7.4184   1.47711
 7.4078   1.51351
 7.3972   1.54461
 7.3867   1.66455
 7.3762   1.55672
 7.3657   1.19010
 7.3553   1.46877
 7.3449   1.64810
 7.3345   1.46409
 7.3241   1.50919
 7.3138   1.67321
 7.3035   1.80459
 7.2932   1.60213
 7.2830   1.39332
 7.2727   1.34509
 7.2626   1.54410
 7.2524   1.78697
 7.2423   1.88685
 7.2322   1.78989
 7.2221   1.65446
 7.2120   1.61102
 7.2020   1.59264
 7.1921   1.81618
 7.1821   1.78472
 7.1722   1.65316
 7.1623   1.79886
 7.1524   1.75560
 7.1425   1.66922
 7.1327   1.73437
 7.1229   1.56209
 7.1131   1.49376
 7.1034   1.69503
 7.0937   1.86619
 7.0840   1.67172
 7.0743   1.66739
 7.0647   2.03330
 7.0551   2.22524
 7.0455   2.15708
 7.0359   2.15083
 7.0264   2.08848
 7.0169   2.01064
 7.0074   1.96452
 6.9979   1.86367
 6.9885   1.82566
 6.9791   2.02691
 6.9697   2.28326
 6.9604   2.26965
 6.9510   2.05457
 6.9417   1.80600
 6.9324   1.75172
 6.9232   2.00013
 6.9140   2.10981
 6.9047   2.13341
 6.8956   1.93639
 6.8864   1.68984
 6.8773   1.82083
 6.8682   2.06041
 6.8591   1.99156
 6.8500   1.88191
 6.8410   1.91911
 6.8320   1.79707
 6.8230   1.77236
 6.8140   1.87967
 6.8051   1.96854
 6.7962   2.08529
 6.7873   2.12730
 6.7784   2.09684
 6.7695   1.90876
 6.7607   1.99399
 6.7519   2.03336
 6.7431   1.99426
 6.7344   2.13139
 6.7256   2.10711
 6.7169   2.07650
 6.7082   2.13177
 6.6996   1.93062
 6.6909   1.97727
 6.6823   2.17399
 6.6737   2.02261
 6.6651   1.96565
 6.6566   1.99826
 6.6480   1.99013
 6.6395   1.82078
 6.6310   1.70298
 6.6226   1.80312
 6.6141   1.98569
 6.6057   1.95945
 6.5973   1.94327
 6.5889   2.13740
 6.5805   2.18241
 6.5722   2.16699
 6.5639   2.07463
 6.5556   2.11445
 6.5473   2.10704
 6.5390   2.07885
 6.5308   1.91831
 6.5226   1.91516
 6.5144   2.08951
 6.5062   2.23314
 6.4981   2.19864
 6.4900   2.01638
 6.4818   2.02309
 6.4737   2.13482
 6.4657   2.19582
 6.4576   2.35042
 6.4496   2.18223
 6.4416   2.13123
 6.4336   2.29360
 6.4256   2.23365
 6.4177   2.26067
 6.4097   2.31182
 6.4018   2.26491
 6.3939   2.30956
 6.3860   2.21318
 6.3782   1.96711
 6.3704   1.90469
 6.3625   2.20312
 6.3547   2.37868
 6.3470   2.34883
 6.3392   2.42666
 6.3315   2.52218
 6.3237   2.31442
 6.3160   2.04079
 6.3083   1.97863
 6.3007   2.36621
 6.2930   2.48934
 6.2854   2.38549
 6.2778   2.42812
 6.2702   2.46175
 6.2626   2.29974
 6.2551   2.12198
 6.2476   2.23405
 6.2400   2.40536
 6.2325   2.31659
 6.2251   2.15179
 6.2176   2.27239
 6.2101   2.14004
 6.2027   1.97660
 6.1953   1.94875
 6.1879   2.26652
 6.1805   2.60025
 6.1732   2.50750
 6.1658   2.23590
 6.1585   2.10728
 6.1512   2.33606
 6.1439   2.46194
 6.1367   2.29226
 6.1294   2.17252
 6.1222   2.05223
 6.1149   2.20202
 6.1077   2.33415
 6.1006   2.36645
 6.0934   2.52497
 6.0862   2.45251
 6.0791   2.39754
 6.0720   2.25788
 6.0649   2.10970
 6.0578   2.16713
 6.0507   2.17288
 6.0437   2.19707
 6.0366   2.26319
 6.0296   2.28237
 6.0226   2.21210
 6.0156   2.18194
 6.0087   2.24027
 6.0017   2.45022
 5.9948   2.44642
 5.9878   2.27182
 5.9809   2.18782
 5.9740   2.23420
 5.9672   2.26345
 5.9603   2.16586
 5.9535   2.17118
 5.9466   2.22557
 5.9398   2.35678
 5.9330   2.32720
 5.9262   2.26305
 5.9195   2.23841
 5.9127   2.32788
 5.9060   2.37697
 5.8993   2.61052
 5.8926   2.59298
 5.8859   2.48965
 5.8792   2.40646
 5.8726   2.17371
 5.8659   2.22695
 5.8593   2.45243
 5.8527   2.35471
 5.8461   2.34424
 5.8395   2.40624
 5.8329   2.35810
 5.8264   2.33459
 5.8198   2.29663
 5.8133   2.34553
 5.8068   2.58788
 5.8003   2.67538
 5.7938   2.43973
 5.7874   2.50364
 5.7809   2.60098
 5.7745   2.63684
 5.7680   2.73876
 5.7616   2.65163
 5.7552   2.58183
 5.7489   2.58638
 5.7425   2.61118
 5.7361   2.64458
 5.7298   2.63172
 5.7235   2.62455
 5.7172   2.62752
 5.7109   2.62209
 5.7046   2.71236
 5.6983   2.71374
 5.6921   2.80514
 5.6858   2.73958
 5.6796   2.55612
 5.6734   2.70581
 5.6672   2.77405
 5.6610   2.64323
 5.6548   2.68278
 5.6487   2.77634
 5.6425   2.83547
 5.6364   2.71461
 5.6303   2.55399
 5.6242   2.51090
 5.6181   2.73950
 5.6120   2.90337
 5.6059   2.78449
 5.5999   2.81734
 5.5938   2.80468
 5.5878   2.62647
 5.5818   2.62133
 5.5758   2.72135
 5.5698   2.88113
 5.5638   3.03300
 5.5578   3.09654
 5.5519   2.92336
 5.5460   2.77411
 5.5400   2.87603
 5.5341   2.86439
 5.5282   2.92510
 5.5223   2.75420
 5.5164   2.72226
 5.5106   2.87511
 5.5047   2.84326
 5.4989   2.73942
 5.4931   2.82313
 5.4873   3.00825
 5.4815   3.11456
 5.4757   3.28394
 5.4699   3.25723
 5.4641   3.15994
 5.4584   3.08416
 5.4527   3.21848
 5.4469   3.17612
 5.4412   3.06782
 5.4355   3.15394
 5.4298   3.15025
 5.4241   2.98265
 5.4185   2.83594
 5.4128   2.85240
 5.4072   3.07943
 5.4015   3.28275
 5.3959   3.34086
 5.3903   3.36528
 5.3847   3.36164
 5.3791   3.22205
 5.3735   3.06466
 5.3680   2.99634
 5.3624   2.98965
 5.3569   3.02249
 5.3514   2.92722
 5.3458   2.91776
 5.3403   3.02700
 5.3348   3.03782
 5.3294   3.03900
 5.3239   3.13182
 5.3184   3.19322
 5.3130   3.27201
 5.3075   3.35933
 5.3021   3.36529
 5.2967   3.28037
 5.2913   3.12772
 5.2859   3.21040
 5.2805   3.25764
 5.2751   3.27025
 5.2698   3.27125
 5.2644   3.21415
 5.2591   3.33088
 5.2538   3.47185
 5.2485   3.46367
 5.2431   3.48876
 5.2378   3.39618
 5.2326   3.31328
 5.2273   3.42386
 5.2220   3.51472
 5.2168   3.63588
 5.2115   3.45020
 5.2063   3.23934
 5.2011   3.40956
 5.1959   3.61559
 5.1907   3.75722
 5.1855   3.62803
 5.1803   3.40192
 5.1751   3.45796
 5.1700   3.60482
 5.1648   3.69307
 5.1597   3.65173
 5.1545   3.69706
 5.1494   3.81106
 5.1443   3.95902
 5.1392   3.81598
 5.1341   3.61404
 5.1291   3.80852
 5.1240   3.91763
 5.1189   3.79978
 5.1139   3.64586
 5.1088   3.61234
 5.1038   3.82836
 5.0988   4.05086
 5.0938   4.12810
 5.0888   4.01697
 5.0838   3.87445
 5.0788   3.76648
 5.0738   3.61888
 5.0689   3.70159
 5.0639   3.99400
 5.0590   4.04814
 5.0541   3.93605
 5.0491   3.94383
 5.0442   3.94977
 5.0393   3.84311
 5.0344   3.79462
 5.0296   3.87330
 5.0247   4.13745
 5.0198   4.09266
 5.0150   3.91184
 5.0101   3.97370
 5.0053   3.99629
 5.0004   3.81102
 4.9956   3.69058
 4.9908   3.79591
 4.9860   4.07037
 4.9812   4.04264
 4.9765   3.94575
 4.9717   4.06022
 4.9669   4.25294
 4.9622   4.20151
 4.9574   4.17792
 4.9527   4.21484
 4.9480   4.39893
 4.9432   4.55033
 4.9385   4.53784
 4.9338   4.55150
 4.9291   4.52331
 4.9245   4.41409
 4.9198   4.29523
 4.9151   4.24136
 4.9105   4.29058
 4.9058   4.50887
 4.9012   4.56828
 4.8966   4.79294
 4.8919   4.81193
 4.8873   4.55395
 4.8827   4.71495
 4.8781   5.08301
 4.8736   5.04792
 4.8690   4.79367
 4.8644   4.80196
 4.8599   4.97642
 4.8553   5.00515
 4.8508   5.20008
 4.8462   5.37315
 4.8417   4.99100
 4.8372   4.87168
 4.8327   4.95701
 4.8282   5.03731
 4.8237   5.20265
 4.8192   5.41694
 4.8147   5.49805
 4.8103   5.55738
 4.8058   5.56436
 4.8014   5.35334
 4.7969   5.29269
 4.7925   5.38535
 4.7881   5.22181
 4.7836   5.22727
 4.7792   5.37868
 4.7748   5.60343
 4.7704   5.65205
 4.7660   5.44716
 4.7617   5.45218
 4.7573   5.36621
 4.7530   5.27940
 4.7486   5.44067
 4.7443   5.71514
 4.7399   5.75909
 4.7356   5.63568
 4.7313   5.58832
 4.7270   5.56485
 4.7226   5.45713
 4.7184   5.69568
 4.7141   5.90687
 4.7098   5.81664
 4.7055   5.78853
 4.7012   5.82125
 4.6970   5.77110
 4.6927   5.79090
 4.6885   5.78164
 4.6842   5.89836
 4.6800   5.84839
 4.6758   5.80635
 4.6716   5.85311
 4.6674   5.92303
 4.6632   5.94701
 4.6590   5.92736
 4.6548   6.07613
 4.6506   6.16323
 4.6465   6.27654
 4.6423   6.45020
 4.6382   6.56778
 4.6340   6.57005
 4.6299   6.29680
 4.6258   6.16724
 4.6216   6.26343
 4.6175   6.33046
 4.6134   6.35007
 4.6093   6.47097
 4.6052   6.43753
 4.6011   6.40161
 4.5971   6.69699
 4.5930   6.81352
 4.5889   6.75792
 4.5849   6.78578
 4.5808   6.91375
 4.5768   6.90006
 4.5727   6.81668
 4.5687   6.81314
 4.5647   6.97786
 4.5607   6.95273
 4.5567   7.06228
 4.5526   7.12686
 4.5487   7.12824
 4.5447   7.08083
 4.5407   7.06268
 4.5367   7.10869
 4.5328   7.14903
 4.5288   7.28463
 4.5248   7.47655
 4.5209   7.44487
 4.5170   7.42717
 4.5130   7.37604
 4.5091   7.25449
 4.5052   7.41481
 4.5013   7.57009
 4.4974   7.39577
 4.4935   7.25371
 4.4896   7.22798
 4.4857   7.27219
 4.4818   7.39368
 4.4779   7.30094
 4.4741   7.44374
 4.4702   7.68900
 4.4664   7.75011
 4.4625   7.77199
 4.4587   7.47243
 4.4549   7.40627
 4.4510   7.73254
 4.4472   7.93394
 4.4434   8.02688
 4.4396   7.85328
 4.4358   7.83948
 4.4320   7.95583
 4.4282   8.11541
 4.4245   8.25096
 4.4207   8.01934
 4.4169   8.01330
 4.4132   8.35181
 4.4094   8.35387
 4.4057   8.33178
 4.4019   8.55824
 4.3982   8.66940
 4.3945   8.54907
 4.3907   8.38481
 4.3870   8.75127
 4.3833   8.90106
 4.3796   8.66261
 4.3759   8.85900
 4.3722   8.97271
 4.3685   8.96291
 4.3649   9.10763
 4.3612   9.16725
 4.3575   9.10206
 4.3539   8.99470
 4.3502   9.04887
 4.3466   9.26379
 4.3429   9.42223
 4.3393   9.31447
 4.3357   9.27856
 4.3320   9.35528
 4.3284   9.52960
 4.3248   9.65063
 4.3212   9.43080
 4.3176   9.29582
 4.3140   9.14023
 4.3105   9.07352
 4.3069   9.38873
 4.3033   9.47314
 4.2997   9.44555
 4.2962   9.48272
 4.2926   9.32178
 4.2890   9.26667
 4.2855   9.48585
 4.2820   9.61979
 4.2784   9.54695
 4.2749   9.16384
 4.2714   9.05099
 4.2679   9.37903
 4.2644   9.53528
 4.2609   9.69395
 4.2574   9.94128
 4.2539   9.78544
 4.2504   9.48405
 4.2469   9.57919
 4.2434   9.88365
 4.2400   9.69380
 4.2365   9.53633
 4.2330   9.77619
 4.2296   9.84428
 4.2261   9.83477
 4.2227   9.94313
 4.2193  10.25940
 4.2158  10.46390
 4.2124  10.60080
 4.2090  10.62530
 4.2056  10.50620
 4.2022  10.77520
 4.1988  11.11910
 4.1954  11.26440
 4.1920  11.18130
 4.1886  11.10500
 4.1852  11.15800
 4.1818  11.18060
 4.1785  11.15160
 4.1751  11.11720
 4.1717  11.21380
 4.1684  11.35110
 4.1650  11.60780
 4.1617  11.52050
 4.1584  11.21990
 4.1550  11.12230
 4.1517  11.36320
 4.1484  11.40640
 4.1451  11.40160
 4.1418  11.37630
 4.1384  11.44090
 4.1351  11.57300
 4.1319  11.69880
 4.1286  11.85100
 4.1253  11.79700
 4.1220  11.81610
 4.1187  11.72450
 4.1155  11.78470
 4.1122  11.89200
 4.1089  11.89610
 4.1057  12.01890
 4.1024  12.04400
 4.0992  12.34410
 4.0959  12.25260
 4.0927  12.07820
 4.0895  12.02920
 4.0863  11.90120
 4.0830  11.98120
 4.0798  12.20360
 4.0766  12.16080
 4.0734  12.00880
 4.0702  12.03000
 4.0670  12.22430
 4.0639  12.30200
 4.0607  12.14850
 4.0575  12.20840
 4.0543  12.35240
 4.0511  12.24730
 4.0480  12.09780
 4.0448  12.33820
 4.0417  12.52400
 4.0385  12.63380
 4.0354  12.43840
 4.0323  12.11360
 4.0291  12.21250
 4.0260  12.10660
 4.0229  12.10360
 4.0197  12.36960
 4.0166  12.34930
 4.0135  12.01930
 4.0104  12.18320
 4.0073  12.51590
 4.0042  12.58480
 4.0011  12.42700
 3.9981  12.25450
 3.9950  12.35460
 3.9919  12.29630
 3.9888  12.37030
 3.9857  12.24140
 3.9827  12.15430
 3.9796  12.20150
 3.9766  12.33100
 3.9735  12.62110
 3.9705  12.49130
 3.9675  12.40920
 3.9644  12.55740
 3.9614  12.47930
 3.9584  12.48840
 3.9554  12.62640
 3.9523  12.50290
 3.9493  12.44710
 3.9463  12.56520
 3.9433  12.48430
 3.9403  12.53120
 3.9373  12.68720
 3.9343  12.95900
 3.9314  12.93880
 3.9284  12.91160
 3.9254  13.02160
 3.9224  12.95290
 3.9195  12.83060
 3.9165  12.84390
 3.9136  12.63810
 3.9106  12.50220
 3.9077  12.71210
 3.9047  12.78190
 3.9018  13.11280
 3.8988  13.07330
 3.8959  12.73780
 3.8930  12.62480
 3.8901  12.63330
 3.8872  12.60870
 3.8842  12.72420
 3.8813  12.50380
 3.8784  12.48580
 3.8755  12.57090
 3.8726  12.53530
 3.8697  12.79840
 3.8669  12.99880
 3.8640  13.07140
 3.8611  12.81800
 3.8582  12.41510
 3.8554  12.60360
 3.8525  12.97610
 3.8496  12.97250
 3.8468  12.73350
 3.8439  12.80360
 3.8411  13.01660
 3.8382  13.21720
 3.8354  13.03780
 3.8326  13.05650
 3.8297  13.22910
 3.8269  12.87990
 3.8241  12.87950
 3.8213  13.08400
 3.8185  13.25020
 3.8157  13.16480
 3.8128  13.10020
 3.8100  12.88510
 3.8072  12.67780
 3.8045  12.73170
 3.8017  12.84120
 3.7989  13.05260
 3.7961  13.35370
 3.7933  13.15890
 3.7906  13.06930
 3.7878  13.13850
 3.7850  13.17340
 3.7822  13.25300
 3.7795  13.26930
 3.7767  13.13580
 3.7740  12.95810
 3.7713  12.81940
 3.7685  12.75320
 3.7658  12.84540
 3.7630  12.78500
 3.7603  12.73970
 3.7576  12.38880
 3.7549  12.99600
 3.7521  13.41760
 3.7494  12.96430
 3.7467  12.88470
 3.7440  12.91320
 3.7413  12.80640
 3.7386  12.95140
 3.7359  13.06830
 3.7332  12.71370
 3.7306  12.54640
 3.7279  12.69310
 3.7252  12.76380
 3.7225  12.59830
 3.7199  12.59970
 3.7172  12.84770
 3.7145  12.78140
 3.7119  12.65270
 3.7092  12.62300
 3.7066  12.35510
 3.7039  12.51740
 3.7013  12.67110
 3.6986  12.81330
 3.6960  12.87690
 3.6934  12.81710
 3.6907  12.69280
 3.6881  12.64270
 3.6855  12.71080
 3.6829  12.42020
 3.6803  12.23400
 3.6776  12.65040
 3.6750  12.94090
 3.6724  12.90400
 3.6698  12.95750
 3.6672  12.79870
 3.6646  12.45350
 3.6620  12.46420
 3.6595  12.36760
 3.6569  12.05510
 3.6543  12.07220
 3.6517  12.41400
 3.6492  12.67030
 3.6466  12.59890
 3.6440  12.47210
 3.6415  12.61100
 3.6389  12.41980
 3.6364  12.16620
 3.6338  12.36650
 3.6313  12.44170
 3.6287  12.40750
 3.6262  12.18940
 3.6237  12.06380
 3.6211  11.85310
 3.6186  11.83170
 3.6161  11.99830
 3.6136  12.18390
 3.6111  11.90010
 3.6085  11.49080
 3.6060  11.54250
 3.6035  11.73480
 3.6010  11.94040
 3.5985  12.09180
 3.5960  12.08190
 3.5935  12.09600
 3.5910  11.96550
 3.5886  11.86840
 3.5861  11.80710
 3.5836  11.53030
 3.5811  11.31060
 3.5787  11.38960
 3.5762  11.66780
 3.5737  11.68990
 3.5713  11.86260
 3.5688  11.83690
 3.5663  11.80840
 3.5639  11.88800
 3.5614  11.72540
 3.5590  11.24850
 3.5566  10.99550
 3.5541  11.37470
 3.5517  11.48320
 3.5493  11.36620
 3.5468  10.97450
 3.5444  11.18260
 3.5420  11.54940
 3.5396  11.41840
 3.5372  10.98600
 3.5347  10.63360
 3.5323  10.67710
 3.5299  10.68040
 3.5275  10.75970
 3.5251  10.67220
 3.5227  10.32650
 3.5203  10.35470
 3.5180  10.74440
 3.5156  10.91770
 3.5132  10.54560
 3.5108  10.40060
 3.5084  10.51510
 3.5061  10.51360
 3.5037  10.54660
 3.5013  10.33000
 3.4990  10.07070
 3.4966  10.39930
 3.4943  10.04590
 3.4919   9.72495
 3.4895  10.12920
 3.4872  10.06170
 3.4849   9.84990
 3.4825   9.68344
 3.4802   9.94994
 3.4778   9.91820
 3.4755   9.74551
 3.4732   9.92872
 3.4709  10.07140
 3.4685  10.05510
 3.4662  10.27620
 3.4639  10.30770
 3.4616  10.15520
 3.4593  10.01450
 3.4570   9.87740
 3.4547   9.82896
 3.4524   9.89912
 3.4501  10.15030
 3.4478  10.31250
 3.4455   9.79012
 3.4432   9.36875
 3.4409   9.38455
 3.4386   9.17974
 3.4364   9.20534
 3.4341   9.22706
 3.4318   9.00097
 3.4295   9.27901
 3.4273   9.67312
 3.4250   9.40336
 3.4228   9.19799
 3.4205   9.02744
 3.4182   8.94139
 3.4160   8.98189
 3.4137   9.01221
 3.4115   9.15378
 3.4093   9.23269
 3.4070   9.16339
 3.4048   9.16728
 3.4025   8.72329
 3.4003   8.70973
 3.3981   8.95701
 3.3958   8.96398
 3.3936   8.74911
 3.3914   8.87873
 3.3892   8.99265
 3.3870   8.48508
 3.3848   8.21916
 3.3826   8.51580
 3.3804   8.54650
 3.3782   8.46069
 3.3760   8.29890
 3.3738   8.43354
 3.3716   8.20447
 3.3694   8.52027
 3.3672   8.94415
 3.3650   8.54938
 3.3628   8.22462
 3.3606   8.30135
 3.3585   8.32024
 3.3563   8.48843
 3.3541   8.59222
 3.3520   8.59959
 3.3498   8.74017
 3.3476   8.41582
 3.3455   8.30345
 3.3433   8.09203
 3.3411   7.97881
 3.3390   8.05406
 3.3369   8.15029
 3.3347   7.95037
 3.3326   7.99827
 3.3304   8.18987
 3.3283   8.14170
 3.3262   8.19151
 3.3240   8.03117
 3.3219   7.60265
 3.3198   7.54511
 3.3176   8.01421
 3.3155   7.80634
 3.3134   7.53069
 3.3113   7.76828
 3.3092   8.11614
 3.3071   7.73605
 3.3049   7.62628
 3.3028   7.84103
 3.3007   7.74291
 3.2986   7.55271
 3.2965   7.41087
 3.2944   7.33376
 3.2924   7.39089
 3.2903   7.48891
 3.2882   7.46697
 3.2861   7.01667
 3.2840   6.66715
 3.2819   6.88132
 3.2799   7.19223
 3.2778   7.47136
 3.2757   7.62030
 3.2736   7.19384
 3.2716   7.55472
 3.2695   7.70019
 3.2675   7.43698
 3.2654   7.42719
 3.2634   7.52452
 3.2613   7.58112
 3.2593   7.12258
 3.2572   7.03647
 3.2552   7.27632
 3.2531   7.09977
 3.2511   7.26935
 3.2490   7.71061
 3.2470   7.51741
 3.2450   7.38521
 3.2429   7.57765
 3.2409   7.02544
 3.2389   6.86982
 3.2369   6.92950
 3.2348   6.44839
 3.2328   5.92581
 3.2308   5.67895
 3.2288   5.97394
 3.2268   6.54748
 3.2248   6.73309
 3.2228   6.69340
 3.2208   6.93704
 3.2188   6.94745
 3.2168   6.75044
 3.2148   6.51656
 3.2128   6.15074
 3.2108   6.15515
 3.2088   6.31819
 3.2068   6.52300
 3.2049   6.96791
 3.2029   6.87501
 3.2009   6.59050
 3.1989   6.03167
 3.1970   6.11112
 3.1950   6.62766
 3.1930   6.30273
 3.1911   6.27200
 3.1891   6.68164
 3.1871   6.66255
 3.1852   6.38759
 3.1832   6.14779
 3.1813   6.19765
 3.1793   6.30231
 3.1774   5.79082
 3.1754   5.77207
 3.1735   5.98658
 3.1715   5.79603
 3.1696   5.58558
 3.1677   5.59344
 3.1657   5.80657
 3.1638   5.97104
 3.1619   6.40227
 3.1599   6.46393
 3.1580   6.38168
 3.1561   6.12158
 3.1542   5.78913
 3.1523   5.29307
 3.1503   5.41898
 3.1484   5.85354
 3.1465   5.33774
 3.1446   5.13097
 3.1427   5.58086
 3.1408   5.36481
 3.1389   5.39348
 3.1370   5.45224
 3.1351   5.73587
 3.1332   6.12623
 3.1313   5.75909
 3.1294   5.57191
 3.1275   5.47187
 3.1257   5.38132
 3.1238   5.55581
 3.1219   5.48969
 3.1200   5.53828
 3.1181   5.05399
 3.1163   5.17932
 3.1144   4.94924
 3.1125   4.49510
 3.1107   4.44287
 3.1088   4.65555
 3.1069   5.52584
 3.1051   5.83267
 3.1032   5.62459
 3.1014   5.64026
 3.0995   5.56311
 3.0976   5.46394
 3.0958   5.46626
 3.0940   5.22473
 3.0921   4.63787
 3.0903   4.70275
 3.0884   4.74620
 3.0866   4.54489
 3.0848   4.44572
 3.0829   5.13633
 3.0811   5.48215
 3.0793   5.15232
 3.0774   5.34212
 3.0756   5.88439
 3.0738   6.19320
 3.0720   5.62657
 3.0701   4.81930
 3.0683   4.66219
 3.0665   5.07666
 3.0647   4.93983
 3.0629   4.84169
 3.0611   5.22288
 3.0593   5.30741
 3.0575   5.00361
 3.0557   5.40021
 3.0539   5.27983
 3.0521   4.74167
 3.0503   4.62496
 3.0485   5.21833
 3.0467   5.23666
 3.0449   4.97488
 3.0431   4.79843
 3.0413   4.76451
 3.0396   4.51133
 3.0378   4.77102
 3.0360   5.34091
 3.0342   5.22075
 3.0324   4.46346
 3.0307   4.58560
 3.0289   4.83528
 3.0271   4.98703
 3.0254   5.14244
 3.0236   4.97309
 3.0218   4.91145
 3.0201   4.63062
 3.0183   4.66089
 3.0166   4.63959
 3.0148   4.77016
 3.0130   4.49168
 3.0113   4.12494
 3.0096   4.60380
 3.0078   4.85352
 3.0061   4.72059
 3.0043   4.94147
 3.0026   4.49843
 3.0008   4.23064
 2.9991   4.89846
 2.9974   5.23414
 2.9956   4.50336
 2.9939   4.76107
 2.9922   5.67514
 2.9905   5.48166
 2.9887   5.40218
 2.9870   5.40755
 2.9853   4.80027
 2.9836   4.46798
 2.9819   4.25758
 2.9802   4.06191
 2.9784   4.70720
 2.9767   4.58723
 2.9750   4.04768
 2.9733   4.27275
 2.9716   4.20566
 2.9699   4.10027
 2.9682   4.26289
 2.9665   4.81010
 2.9648   5.77255
 2.9631   5.09071
 2.9614   4.39906
 2.9597   4.71559
 2.9581   4.81609
 2.9564   5.26025
 2.9547   5.69434
 2.9530   5.47005
 2.9513   4.55831
 2.9496   3.73006
 2.9480   4.06409
 2.9463   4.55371
 2.9446   4.84455
 2.9429   4.56271
 2.9413   4.43356
 2.9396   4.58082
 2.9379   4.51812
 2.9363   4.78269
 2.9346   5.05977
 2.9330   5.05996
 2.9313   5.23817
 2.9296   5.74077
 2.9280   5.28275
 2.9263   4.74823
 2.9247   4.61284
 2.9230   4.45645
 2.9214   4.22581
 2.9197   4.22435
 2.9181   4.85485
 2.9165   5.07225
 2.9148   4.61179
 2.9132   4.75532
 2.9116   4.82101
 2.9099   5.26576
 2.9083   5.32362
 2.9067   5.53369
 2.9050   5.78707
 2.9034   5.47536
 2.9018   5.23440
 2.9002   4.93527
 2.8985   4.72044
 2.8969   4.25506
 2.8953   4.46052
 2.8937   4.63953
 2.8921   4.38499
 2.8905   4.47256
 2.8888   4.63448
 2.8872   4.25746
 2.8856   3.70593
 2.8840   4.04498
 2.8824   4.40814
 2.8808   5.20629
 2.8792   5.54336
 2.8776   5.39557
 2.8760   6.02964
 2.8744   6.21795
 2.8728   5.13578
 2.8712   4.49026
 2.8697   4.83059
 2.8681   4.85489
 2.8665   4.87406
 2.8649   5.00726
 2.8633   4.82387
 2.8617   4.57066
 2.8602   4.39898
 2.8586   5.04094
 2.8570   5.14607
 2.8554   5.11396
 2.8539   5.33726
 2.8523   5.20931
 2.8507   4.71009
 2.8492   5.25980
 2.8476   5.45768
 2.8460   5.02772
 2.8445   4.66431
 2.8429   4.73311
 2.8413   4.52548
 2.8398   4.75699
 2.8382   4.75739
 2.8367   4.89754
 2.8351   5.10136
 2.8336   5.74387
 2.8320   6.18047
 2.8305   5.77048
 2.8289   5.24706
 2.8274   5.42165
 2.8259   5.46065
 2.8243   4.77515
 2.8228   4.58172
 2.8213   5.03866
 2.8197   5.72116
 2.8182   5.07161
 2.8167   4.94350
 2.8151   5.59698
 2.8136   5.01986
 2.8121   4.70131
 2.8106   4.47650
 2.8090   5.15550
 2.8075   5.58400
 2.8060   5.27641
 2.8045   5.63834
 2.8030   5.25663
 2.8014   4.10781
 2.7999   4.36201
 2.7984   4.69452
 2.7969   4.68855
 2.7954   5.83301
 2.7939   7.54012
 2.7924   6.76851
 2.7909   5.80892
 2.7894   5.07217
 2.7879   4.98187
 2.7864   5.03485
 2.7849   5.70809
 2.7834   5.39521
 2.7819   4.95333
 2.7804   4.86921
 2.7789   4.74352
 2.7774   5.17229
 2.7759   4.95388
 2.7745   4.45864
 2.7730   4.12582
 2.7715   4.10279
 2.7700   4.32311
 2.7685   5.03730
 2.7671   5.08448
 2.7656   5.26506
 2.7641   5.98617
 2.7626   5.20130
 2.7612   4.08489
 2.7597   4.35501
 2.7582   4.92958
 2.7568   5.68279
 2.7553   4.94453
 2.7538   4.27208
 2.7524   4.64272
 2.7509   5.13394
 2.7494   4.62095
 2.7480   4.33642
 2.7465   4.48276
 2.7451   4.70819
 2.7436   5.39764
 2.7422   6.47385
 2.7407   6.50379
 2.7393   6.02760
 2.7378   6.03931
 2.7364   5.78623
 2.7350   5.54487
 2.7335   5.83445
 2.7321   5.42189
 2.7306   5.39863
 2.7292   6.09142
 2.7278   6.34920
 2.7263   6.57792
 2.7249   6.61011
 2.7235   6.12558
 2.7220   6.46297
 2.7206   6.67426
 2.7192   6.02808
 2.7178   5.76130
 2.7163   5.85614
 2.7149   6.75039
 2.7135   7.05987
 2.7121   6.71581
 2.7106   7.07618
 2.7092   7.47939
 2.7078   6.91616
 2.7064   7.18645
 2.7050   7.63730
 2.7036   7.98695
 2.7022   8.13270
 2.7008   7.82771
 2.6994   7.44931
 2.6980   7.64396
 2.6965   8.29152
 2.6951   9.10149
 2.6938   9.89526
 2.6923   9.92804
 2.6910  10.69970
 2.6896  11.79810
 2.6882  12.12440
 2.6868  11.84290
 2.6854  12.06820
 2.6840  12.24750
 2.6826  12.34200
 2.6812  13.11960
 2.6798  13.71330
 2.6784  14.39160
 2.6771  15.06210
 2.6757  15.33630
 2.6743  14.96840
 2.6729  14.96100
 2.6715  16.05500
 2.6702  16.10830
 2.6688  15.63070
 2.6674  15.85110
 2.6660  15.71970
 2.6647  15.84160
 2.6633  15.97240
 2.6619  16.10490
 2.6606  16.17320
 2.6592  16.59430
 2.6578  16.69340
 2.6565  16.58160
 2.6551  16.55460
 2.6538  16.84120
 2.6524  16.86630
 2.6511  16.86380
 2.6497  16.80200
 2.6484  16.65770
 2.6470  16.42770
 2.6456  16.31750
 2.6443  16.67110
 2.6429  17.76780
 2.6416  17.99680
 2.6403  17.39360
 2.6389  16.41310
 2.6376  16.28880
 2.6362  17.14770
 2.6349  17.71390
 2.6336  17.74530
 2.6322  17.44200
 2.6309  17.46710
 2.6296  17.89890
 2.6282  17.69790
 2.6269  17.49030
 2.6256  17.49350
 2.6242  17.49280
 2.6229  17.49250
 2.6216  17.50980
 2.6203  17.43590
 2.6189  18.14370
 2.6176  18.56300
 2.6163  18.66820
 2.6150  18.09290
 2.6136  17.42180
 2.6123  17.56820
 2.6110  18.18980
 2.6097  19.06990
 2.6084  18.97010
 2.6071  18.57950
 2.6058  18.35380
 2.6044  18.42530
 2.6031  18.34580
 2.6018  18.20380
 2.6005  17.87300
 2.5992  18.12630
 2.5979  18.31430
 2.5966  17.95160
 2.5953  17.96870
 2.5940  17.98510
 2.5927  18.03350
 2.5914  17.89920
 2.5901  17.70320
 2.5888  17.48480
 2.5876  17.90940
 2.5863  18.77300
 2.5850  19.30920
 2.5837  18.89620
 2.5824  17.85310
 2.5811  17.04300
 2.5798  17.41400
 2.5785  18.14780
 2.5773  18.42880
 2.5760  18.15350
 2.5747  17.92630
 2.5734  18.17380
 2.5722  18.04650
 2.5709  17.53930
 2.5696  17.70900
 2.5683  17.85160
 2.5671  17.88150
 2.5658  17.90980
 2.5645  18.20910
 2.5633  18.53390
 2.5620  18.58440
 2.5607  18.36700
 2.5595  18.59630
 2.5582  19.24220
 2.5569  19.28490
 2.5557  18.94010
 2.5544  19.13120
 2.5532  19.67030
 2.5519  19.41280
 2.5507  18.54820
 2.5494  17.61020
 2.5481  17.68060
 2.5469  18.45310
 2.5456  18.75600
 2.5444  18.79280
 2.5431  18.48370
 2.5419  18.44590
 2.5406  18.82940
 2.5394  18.75060
 2.5382  18.07080
 2.5369  17.62330
 2.5357  17.88810
 2.5344  18.65070
 2.5332  19.07770
 2.5320  19.05590
 2.5307  19.32620
 2.5295  19.45210
 2.5283  19.60700
 2.5270  19.30040
 2.5258  18.08370
 2.5246  18.29300
 2.5233  19.17090
 2.5221  20.16020
 2.5209  19.73140
 2.5197  18.75670
 2.5184  18.98480
 2.5172  19.24840
 2.5160  19.47010
 2.5148  19.61240
 2.5136  19.21340
 2.5123  18.98860
 2.5111  19.12230
 2.5099  19.34550
 2.5087  19.59730
 2.5075  19.53810
 2.5063  19.44040
 2.5051  19.31850
 2.5038  18.92920
 2.5026  18.45880
 2.5014  18.52470
 2.5002  18.70520
 2.4990  18.95520
 2.4978  18.94920
 2.4966  19.03450
 2.4954  19.76360
 2.4942  19.91020
 2.4930  19.80680
 2.4918  19.83600
 2.4906  18.82740
 2.4894  18.47860
 2.4882  19.60350
 2.4870  20.18650
 2.4858  20.20570
 2.4846  20.03610
 2.4835  20.19590
 2.4823  20.05720
 2.4811  19.93580
 2.4799  20.04210
 2.4787  20.16750
 2.4775  20.31460
 2.4764  19.71010
 2.4752  19.32560
 2.4740  19.47250
 2.4728  19.61890
 2.4716  19.73400
 2.4705  19.83590
 2.4693  20.14230
 2.4681  20.10050
 2.4669  19.92800
 2.4657  19.92390
 2.4646  20.11750
 2.4634  20.04830
 2.4622  20.00420
 2.4611  19.89420
 2.4599  20.22440
 2.4587  20.36060
 2.4576  19.36370
 2.4564  19.30010
 2.4552  20.19500
 2.4541  20.52090
 2.4529  19.93640
 2.4518  19.47200
 2.4506  19.52950
 2.4494  20.58070
 2.4483  20.76470
 2.4471  19.88780
 2.4460  19.02090
 2.4448  19.90390
 2.4437  21.14820
 2.4425  21.02500
 2.4414  20.33980
 2.4402  19.63890
 2.4391  19.54310
 2.4379  19.35340
 2.4368  19.46540
 2.4356  19.61790
 2.4345  19.72190
 2.4333  20.40110
 2.4322  20.66300
 2.4311  20.69130
 2.4299  20.86020
 2.4288  21.01080
 2.4276  21.24730
 2.4265  21.32390
 2.4254  21.33210
 2.4242  21.43540
 2.4231  21.11440
 2.4220  21.19310
 2.4209  21.00630
 2.4197  20.77090
 2.4186  21.06370
 2.4175  20.92120
 2.4163  20.51260
 2.4152  20.45460
 2.4141  21.93850
 2.4130  22.19890
 2.4118  22.16620
 2.4107  21.83740
 2.4096  21.40120
 2.4085  20.74810
 2.4074  20.31710
 2.4063  20.93860
 2.4051  21.22480
 2.4040  21.53690
 2.4029  21.62730
 2.4018  20.72950
 2.4007  19.82980
 2.3996  19.54160
 2.3985  20.13660
 2.3973  20.70170
 2.3962  20.49010
 2.3951  20.79230
 2.3940  21.71030
 2.3929  21.56670
 2.3918  20.91290
 2.3907  21.26140
 2.3896  21.50710
 2.3885  21.06630
 2.3874  20.76580
 2.3863  20.84490
 2.3852  21.26690
 2.3841  21.34000
 2.3830  19.99520
 2.3819  19.41950
 2.3808  20.58570
 2.3798  20.61770
 2.3786  20.12870
 2.3776  20.08820
 2.3765  21.53990
 2.3754  22.14810
 2.3743  20.47520
 2.3732  20.42690
 2.3721  20.86980
 2.3710  20.35960
 2.3700  20.58300
 2.3689  20.94100
 2.3678  21.48790
 2.3667  21.76950
 2.3656  21.46070
 2.3645  20.06040
 2.3635  19.59090
 2.3624  20.09520
 2.3613  20.36170
 2.3603  20.19470
 2.3592  20.40430
 2.3581  20.58780
 2.3570  19.90670
 2.3560  19.03580
 2.3549  19.23000
 2.3538  19.21590
 2.3527  19.25100
 2.3517  19.88260
 2.3506  20.43370
 2.3495  21.15580
 2.3485  21.33700
 2.3474  21.18000
 2.3464  20.87780
 2.3453  20.32350
 2.3442  19.53470
 2.3432  20.07640
 2.3421  21.14860
 2.3411  20.81040
 2.3400  20.13050
 2.3390  19.90310
 2.3379  19.66250
 2.3369  19.65690
 2.3358  19.91340
 2.3347  19.63450
 2.3337  20.24640
 2.3326  21.21710
 2.3316  21.08730
 2.3306  20.56480
 2.3295  21.75480
 2.3285  22.25570
 2.3274  20.78870
 2.3264  20.10910
 2.3253  20.87540
 2.3243  22.29350
 2.3232  21.88030
 2.3222  20.80930
 2.3212  20.63820
 2.3201  21.25880
 2.3191  22.30960
 2.3180  22.53760
 2.3170  22.20910
 2.3160  22.27260
 2.3149  21.93070
 2.3139  21.44120
 2.3129  21.30050
 2.3118  22.02010
 2.3108  22.96490
 2.3098  21.66420
 2.3088  21.51980
 2.3077  22.85150
 2.3067  22.44360
 2.3057  21.13950
 2.3047  21.77130
 2.3036  22.21110
 2.3026  22.96870
 2.3016  23.34750
 2.3006  22.46230
 2.2995  23.03340
 2.2985  22.84130
 2.2975  23.08200
 2.2965  23.29360
 2.2955  22.47210
 2.2944  22.85230
 2.2934  22.90620
 2.2924  22.73840
 2.2914  23.54640
 2.2904  23.16340
 2.2894  21.65450
 2.2884  20.96520
 2.2874  22.55780
 2.2864  23.99860
 2.2854  23.59450
 2.2843  23.37480
 2.2833  23.13650
 2.2823  23.24490
 2.2813  23.26750
 2.2803  23.67290
 2.2793  24.08840
 2.2783  24.09770
 2.2773  23.84680
 2.2763  24.21110
 2.2753  23.48660
 2.2743  21.64440
 2.2733  21.73900
 2.2723  22.70250
 2.2713  23.38770
 2.2703  23.84730
 2.2694  23.88590
 2.2684  23.73030
 2.2674  23.00810
 2.2664  23.07350
 2.2654  24.14730
 2.2644  23.86190
 2.2634  22.36990
 2.2624  22.10350
 2.2614  22.86530
 2.2605  23.51340
 2.2595  24.49600
 2.2585  24.95300
 2.2575  24.41290
 2.2565  22.47980
 2.2555  22.56540
 2.2546  23.32510
 2.2536  23.07860
 2.2526  23.44830
 2.2516  22.95580
 2.2506  23.39280
 2.2497  23.69120
 2.2487  22.42940
 2.2477  22.66270
 2.2467  23.59980
 2.2458  23.33030
 2.2448  23.45600
 2.2438  23.03500
 2.2428  22.37940
 2.2419  22.96240
 2.2409  22.59140
 2.2399  22.02970
 2.2390  22.72700
 2.2380  24.02810
 2.2370  23.83610
 2.2361  23.16390
 2.2351  22.97480
 2.2342  23.74600
 2.2332  24.87160
 2.2322  24.31850
 2.2313  24.70920
 2.2303  24.97480
 2.2294  24.06230
 2.2284  23.54530
 2.2274  23.87840
 2.2265  23.75970
 2.2255  23.59160
 2.2246  23.30090
 2.2236  23.56780
 2.2227  23.88990
 2.2217  23.53970
 2.2208  24.83800
 2.2198  25.22540
 2.2189  24.30230
 2.2179  24.06720
 2.2170  24.04670
 2.2160  24.12820
 2.2151  24.50690
 2.2141  23.66500
 2.2132  23.15760
 2.2122  22.73980
 2.2113  21.54220
 2.2103  22.07490
 2.2094  22.78270
 2.2085  23.69450
 2.2075  23.34580
 2.2066  21.50010
 2.2056  21.28960
 2.2047  22.81860
 2.2038  22.87280
 2.2028  22.07220
 2.2019  22.13120
 2.2010  22.39060
 2.2000  22.25620
 2.1991  22.83220
 2.1982  24.25700
 2.1972  22.59940
 2.1963  21.78730
 2.1954  23.27090
 2.1944  24.24320
 2.1935  24.67650
 2.1926  23.95770
 2.1917  22.71920
 2.1907  23.41660
 2.1898  24.51190
 2.1889  24.41000
 2.1880  23.99680
 2.1870  23.32650
 2.1861  22.43420
 2.1852  23.74380
 2.1843  24.94840
 2.1833  25.29350
 2.1824  24.99260
 2.1815  23.71280
 2.1806  22.94150
 2.1797  23.25150
 2.1788  24.40080
 2.1778  25.25770
 2.1769  24.06430
 2.1760  24.64250
 2.1751  26.19690
 2.1742  25.59720
 2.1733  25.49100
 2.1724  25.49440
 2.1715  24.06970
 2.1706  23.38770
 2.1696  23.46620
 2.1687  23.48240
 2.1678  24.11560
 2.1669  25.61430
 2.1660  25.57660
 2.1651  25.67160
 2.1642  24.52980
 2.1633  23.64160
 2.1624  24.78570
 2.1615  25.33990
 2.1606  25.86650
 2.1597  25.75240
 2.1588  25.07530
 2.1579  25.39340
 2.1570  25.49990
 2.1561  25.83190
 2.1552  26.72360
 2.1543  25.36630
 2.1534  24.41180
 2.1525  24.96420
 2.1517  24.84640
 2.1507  23.99550
 2.1499  24.45060
 2.1490  25.14900
 2.1481  25.72510
 2.1472  26.83410
 2.1463  27.59260
 2.1454  27.22950
 2.1445  25.80620
 2.1436  24.39020
 2.1428  23.60800
 2.1419  24.40010
 2.1410  25.00700
 2.1401  25.74310
 2.1392  24.86690
 2.1383  25.32680
 2.1375  26.28070
 2.1366  25.99490
 2.1357  26.32990
 2.1348  27.08600
 2.1339  27.16600
 2.1331  26.09320
 2.1322  25.36760
 2.1313  24.88320
 2.1304  25.54550
 2.1296  26.26080
 2.1287  27.44090
 2.1278  28.04190
 2.1269  27.26840
 2.1261  26.42170
 2.1252  26.40000
 2.1243  26.49280
 2.1235  26.02060
 2.1226  25.78620
 2.1217  24.49180
 2.1208  24.44700
 2.1200  25.48120
 2.1191  25.10840
 2.1183  24.99580
 2.1174  25.25680
 2.1165  25.65280
 2.1157  26.42080
 2.1148  28.13420
 2.1139  26.91610
 2.1131  25.26530
 2.1122  25.25480
 2.1113  25.44590
 2.1105  26.58180
 2.1096  27.24930
 2.1088  27.84790
 2.1079  28.33220
 2.1071  26.73870
 2.1062  24.69980
 2.1054  24.92540
 2.1045  26.58390
 2.1036  27.82440
 2.1028  27.00870
 2.1019  25.48390
 2.1011  25.60580
 2.1002  24.13290
 2.0994  23.73600
 2.0985  25.95680
 2.0977  26.73450
 2.0968  26.26460
 2.0960  26.46200
 2.0951  27.11820
 2.0943  27.43950
 2.0934  25.95920
 2.0926  25.04020
 2.0918  25.05280
 2.0909  25.03280
 2.0901  25.05690
 2.0892  26.65220
 2.0884  27.62530
 2.0875  26.99240
 2.0867  26.13120
 2.0859  26.00440
 2.0850  26.57770
 2.0842  25.33920
 2.0833  24.43870
 2.0825  25.47840
 2.0817  26.78140
 2.0808  27.15130
 2.0800  26.07780
 2.0792  26.34280
 2.0783  26.75660
 2.0775  27.51720
 2.0767  27.77070
 2.0759  27.61930
 2.0750  26.70750
 2.0742  24.88040
 2.0734  25.18250
 2.0725  26.90000
 2.0717  27.68520
 2.0709  28.14040
 2.0701  26.90940
 2.0692  25.39440
 2.0684  27.23840
 2.0676  28.72770
 2.0667  27.78180
 2.0659  26.01050
 2.0651  24.41680
 2.0643  25.35510
 2.0635  27.06580
 2.0626  27.31870
 2.0618  26.04190
 2.0610  24.66320
 2.0602  25.95340
 2.0594  24.71270
 2.0585  25.40600
 2.0577  26.33560
 2.0569  26.15880
 2.0561  27.60470
 2.0553  27.18120
 2.0545  27.11640
 2.0537  27.22160
 2.0528  26.88170
 2.0520  25.96470
 2.0512  26.50480
 2.0504  27.84480
 2.0496  26.19300
 2.0488  25.03300
 2.0480  27.13530
 2.0472  26.98130
 2.0464  24.86800
 2.0456  24.41560
 2.0447  25.73150
 2.0439  23.89730
 2.0431  25.09640
 2.0423  27.86340
 2.0415  26.84860
 2.0407  28.01310
 2.0399  27.37910
 2.0391  25.26150
 2.0383  24.82350
 2.0375  23.20390
 2.0367  24.73320
 2.0359  26.71880
 2.0351  27.07340
 2.0343  26.84450
 2.0335  24.49950
 2.0327  24.34310
 2.0319  24.79760
 2.0311  24.51660
 2.0303  23.74630
 2.0295  23.47960
 2.0287  24.30700
 2.0280  25.29150
 2.0272  25.36420
 2.0264  24.88750
 2.0256  25.73160
 2.0248  27.00470
 2.0240  27.76860
 2.0232  26.85950
 2.0224  24.44430
 2.0216  24.08350
 2.0208  25.43600
 2.0200  22.85750
 2.0193  22.74930
 2.0185  25.68160
 2.0177  27.34950
 2.0169  26.82300
 2.0161  24.94990
 2.0153  26.34520
 2.0146  27.13690
 2.0138  26.66970
 2.0130  26.20250
 2.0122  25.04460
 2.0114  22.28120
 2.0107  25.31210
 2.0099  29.34840
 2.0091  27.31310
 2.0083  26.16070
 2.0075  26.28180
 2.0068  27.18590
 2.0060  26.42180
 2.0052  24.20380
 2.0044  24.37880
 2.0037  26.01950
 2.0029  26.16040
 2.0021  25.57610
 2.0013  26.27350
 2.0006  26.85810
 1.9998  27.09590
