Name: Fluorite CaF_2
Type: Mineral
Class: Halides
Subclass: 
Particle Size: 0-45um
Sample No.: H-2B
Owner: JPL
Wavelength range: IR
Origin: United Kingdom, England, Durham County, Weardal
Collected by Ward's
Description: 





Measurement: Hemispherical reflectance
First Column: X
Second Column: Y
X Units:  Wavelength (micrometers)
Y Units:  Reflectance (percent)
First X Value: 15.3853
Last X Value: 2.00032
Number of X Values: 2256
Additional information: h02ba.txt
 
15.3853	2.82091
15.3397	3.07948
15.2945	3.18845
15.2495	3.2776
15.2048	3.27861
15.1603	3.59229
15.1161	3.94478
15.0722	4.14458
15.0285	4.25425
14.9851	4.2862
14.9419	4.09582
14.8989	3.92501
14.8563	4.03378
14.8138	4.23324
14.7716	4.35719
14.7296	4.53526
14.6879	4.74355
14.6464	4.94434
14.6052	4.95236
14.5641	4.87595
14.5233	4.80796
14.4828	4.70019
14.4424	4.63591
14.4023	4.49238
14.3624	4.45691
14.3227	4.8945
14.2833	5.01069
14.244	5.05382
14.205	5.50423
14.1662	5.70136
14.1276	5.692
14.0892	5.67403
14.051	5.80235
14.0131	5.81463
13.9753	5.95234
13.9377	6.05008
13.9004	6.19412
13.8632	6.4957
13.8262	6.72191
13.7895	6.7752
13.7529	6.96773
13.7165	7.17335
13.6803	7.21842
13.6443	7.42092
13.6085	7.6931
13.5729	7.96847
13.5374	8.19772
13.5022	8.44743
13.4671	8.66152
13.4322	8.76291
13.3975	8.99416
13.363	9.23308
13.3286	9.45165
13.2944	9.66626
13.2604	9.92089
13.2266	10.2093
13.193	10.2759
13.1595	10.2123
13.1262	10.2418
13.093	10.5283
13.06	10.6103
13.0272	10.4536
12.9946	10.3603
12.9621	10.5005
12.9298	10.5957
12.8976	10.6509
12.8656	10.7047
12.8337	10.854
12.8021	11.0432
12.7705	11.2264
12.7391	11.4484
12.7079	11.6125
12.6769	11.7488
12.6459	11.801
12.6152	12.092
12.5845	12.3544
12.5541	12.4681
12.5238	12.6742
12.4936	12.8605
12.4635	13.1139
12.4337	13.4865
12.4039	13.9563
12.3743	14.6157
12.3448	15.2492
12.3155	15.9318
12.2863	16.633
12.2573	17.31
12.2284	17.9308
12.1996	18.4581
12.171	18.8559
12.1425	19.2788
12.1141	19.7918
12.0859	20.4026
12.0578	21.0358
12.0298	21.491
12.0019	21.739
11.9742	22.0207
11.9466	22.4188
11.9192	22.7818
11.8918	23.0546
11.8646	23.3148
11.8375	23.6111
11.8106	23.656
11.7837	23.7356
11.757	24.2292
11.7304	24.7741
11.7039	25.1653
11.6776	25.3449
11.6513	25.446
11.6252	25.6301
11.5992	25.7157
11.5733	25.5595
11.5475	25.2171
11.5219	24.7429
11.4963	23.7796
11.4709	22.4819
11.4455	21.3156
11.4203	20.2492
11.3952	19.7313
11.3702	20.4247
11.3454	21.9877
11.3206	23.5487
11.2959	25.1771
11.2714	27.0078
11.2469	28.2555
11.2226	28.753
11.1983	28.9987
11.1742	29.1585
11.1502	29.4095
11.1263	29.6331
11.1024	29.7831
11.0787	29.9538
11.0551	30.1833
11.0316	30.3985
11.0081	30.5165
10.9848	30.5688
10.9616	30.728
10.9385	30.9497
10.9154	31.0778
10.8925	31.2815
10.8697	31.5257
10.8469	31.5836
10.8243	31.5892
10.8017	31.68
10.7793	31.8455
10.7569	31.9174
10.7346	32.038
10.7125	32.1094
10.6904	32.1122
10.6684	32.2136
10.6465	32.199
10.6247	32.1465
10.6029	32.1732
10.5813	32.216
10.5597	32.257
10.5383	32.4301
10.5169	32.5505
10.4956	32.4977
10.4744	32.361
10.4533	32.3249
10.4323	32.2609
10.4113	32.3081
10.3904	32.3869
10.3697	32.3605
10.349	32.2839
10.3284	32.2357
10.3078	32.199
10.2874	32.2344
10.267	32.1598
10.2467	31.9292
10.2265	31.8303
10.2064	31.7937
10.1863	31.6886
10.1663	31.5234
10.1464	31.2852
10.1266	31.0196
10.1069	30.7732
10.0872	30.6085
10.0676	30.586
10.0481	30.5622
10.0287	30.4915
10.0093	30.3769
9.99005	30.201
9.97084	29.9835
9.95169	29.9905
9.93263	30.0111
9.91364	29.9835
9.89472	29.8341
9.87587	29.7245
9.8571	29.5715
9.83839	29.4473
9.81976	29.3458
9.80119	29.2531
9.78271	29.1265
9.76428	28.883
9.74592	28.7531
9.72764	28.7224
9.70943	28.6064
9.69128	28.5107
9.6732	28.4683
9.65518	28.305
9.63724	28.0923
9.61935	27.9763
9.60155	27.8693
9.5838	27.7512
9.56611	27.8538
9.5485	27.8216
9.53094	27.6916
9.51345	27.5434
9.49604	27.4216
9.47867	27.4741
9.46137	27.6264
9.44414	27.6615
9.42697	27.8261
9.40986	28.2562
9.39281	28.7049
9.37583	29.2702
9.35891	29.7412
9.34204	30.0094
9.32524	30.2303
9.3085	30.227
9.29182	30.1528
9.27519	30.0277
9.25863	29.7815
9.24213	29.5101
9.22568	29.302
9.2093	29.0767
9.19297	28.9051
9.17669	28.8272
9.16048	28.7076
9.14433	28.611
9.12823	28.6645
9.11218	28.8339
9.0962	28.8679
9.08027	28.7073
9.06439	28.6316
9.04858	28.6626
9.03281	28.71
9.0171	28.7978
9.00145	28.8055
8.98585	28.8229
8.9703	28.8582
8.9548	28.9165
8.93937	28.9994
8.92398	29.1559
8.90865	29.235
8.89337	29.2413
8.87814	29.3004
8.86296	29.4015
8.84784	29.529
8.83277	29.6319
8.81774	29.6573
8.80277	29.7352
8.78786	29.7925
8.77298	29.8908
8.75816	30.1726
8.7434	30.5515
8.72868	30.6801
8.714	30.6743
8.69938	30.8747
8.68481	30.9938
8.67029	30.9996
8.65581	31.0694
8.64139	31.0084
8.62701	30.9127
8.61268	31.0529
8.5984	31.6269
8.58416	32.2657
8.56997	32.6984
8.55583	33.1232
8.54174	33.5782
8.52769	33.8519
8.51368	34.0908
8.49973	34.4382
8.48582	34.7103
8.47195	34.89
8.45813	35.0287
8.44436	35.1037
8.43062	35.4057
8.41693	35.7288
8.4033	35.8331
8.3897	35.9524
8.37614	36.15
8.36264	36.3951
8.34917	36.6429
8.33574	36.8652
8.32236	37.0385
8.30903	37.3311
8.29573	37.7228
8.28248	38.0579
8.26927	38.4802
8.2561	39.0005
8.24298	39.4096
8.2299	39.9583
8.21685	40.6751
8.20385	41.0775
8.19089	41.4039
8.17797	41.7705
8.16509	42.0126
8.15225	42.1211
8.13946	42.2496
8.1267	42.4269
8.11398	42.466
8.10131	42.5569
8.08867	42.7153
8.07606	42.8564
8.0635	42.8981
8.05099	42.9626
8.0385	43.1788
8.02606	43.3733
8.01366	43.4642
8.00129	43.5696
7.98896	43.7589
7.97667	43.9909
7.96442	44.1638
7.9522	44.2588
7.94002	44.3453
7.92788	44.4363
7.91578	44.5782
7.90371	44.702
7.89168	44.7925
7.87969	44.7994
7.86773	44.8533
7.85581	44.9926
7.84392	45.1054
7.83207	45.2318
7.82026	45.3035
7.80849	45.3498
7.79674	45.5071
7.78503	45.614
7.77337	45.7095
7.76173	45.8275
7.75012	45.891
7.73856	45.8896
7.72703	45.9983
7.71553	46.0925
7.70406	46.1385
7.69263	46.1986
7.68123	46.2889
7.66987	46.2916
7.65855	46.3012
7.64725	46.3027
7.63598	46.2289
7.62475	46.1692
7.61356	46.1061
7.60239	45.949
7.59126	45.9158
7.58017	45.929
7.5691	45.8981
7.55806	45.953
7.54707	46.0831
7.5361	46.2129
7.52516	46.3044
7.51425	46.3625
7.50338	46.426
7.49253	46.4749
7.48172	46.5839
7.47094	46.6441
7.46019	46.5543
7.44947	46.1887
7.43879	46.0466
7.42813	45.9389
7.4175	45.7907
7.4069	45.6342
7.39634	45.4295
7.3858	45.2651
7.37529	45.0997
7.36482	44.8606
7.35437	44.7339
7.34396	44.59
7.33357	44.1379
7.32321	43.4408
7.31288	43.0584
7.30258	42.5819
7.29231	42.0347
7.28207	41.6697
7.27185	41.1972
7.26167	40.5671
7.25152	40.1524
7.24139	39.6623
7.23129	39.1592
7.22122	38.7122
7.21117	38.4019
7.20116	37.6781
7.19117	36.7902
7.18121	36.2371
7.17128	35.8953
7.16137	35.2459
7.1515	34.7688
7.14164	34.2195
7.13182	33.7176
7.12203	33.6015
7.11225	33.4117
7.10251	33.2146
7.0928	33.0622
7.08311	32.825
7.07344	32.727
7.06381	32.7308
7.0542	33.1004
7.04461	33.2876
7.03506	32.5668
7.02552	32.2651
7.01601	32.1105
7.00653	31.9853
6.99708	32.1557
6.98765	32.1443
6.97824	32.0254
6.96886	32.392
6.95951	32.8836
6.95018	32.3532
6.94087	32.0372
6.9316	32.0612
6.92234	32.1389
6.91311	32.315
6.90391	32.4837
6.89473	32.3846
6.88557	32.4545
6.87644	32.8172
6.86733	33.8817
6.85824	33.788
6.84918	32.7356
6.84015	32.4241
6.83114	32.862
6.82215	33.0254
6.81319	32.6912
6.80424	32.7676
6.79532	33.4866
6.78643	33.7542
6.77756	33.2756
6.76871	32.9685
6.75989	32.7606
6.75109	32.9054
6.74231	32.9227
6.73355	33.0829
6.72482	33.4916
6.71611	33.8758
6.70742	33.8167
6.69875	33.4226
6.69011	33.761
6.68149	34.3829
6.67289	34.2805
6.66431	33.9615
6.65576	33.9775
6.64722	35.0625
6.63871	36.6672
6.63022	36.3416
6.62175	35.5443
6.61331	35.6956
6.60488	36.0907
6.59648	36.9817
6.5881	37.7214
6.57974	38.6856
6.5714	39.7532
6.56308	39.5905
6.55478	39.8682
6.54651	40.2588
6.53825	40.5738
6.53001	41.3112
6.5218	42.5606
6.51361	42.7686
6.50544	43.6108
6.49729	46.018
6.48915	46.7864
6.48104	46.0604
6.47295	45.7554
6.46488	45.379
6.45683	45.5574
6.4488	45.9413
6.44079	46.3181
6.4328	47.0371
6.42482	47.9651
6.41687	50.1679
6.40894	49.6537
6.40103	47.4643
6.39314	47.0929
6.38526	47.2063
6.37741	47.6437
6.36957	48.1893
6.36176	47.5106
6.35396	47.6041
6.34618	48.7247
6.33843	48.0888
6.33069	46.9917
6.32297	46.7888
6.31527	46.6816
6.30758	46.6132
6.29992	46.5068
6.29227	46.4999
6.28465	46.3951
6.27704	46.4108
6.26945	46.4159
6.26188	46.335
6.25432	46.2519
6.24679	46.3422
6.23927	46.472
6.23177	46.5515
6.22429	46.5313
6.21683	46.5178
6.20938	46.4288
6.20195	46.3935
6.19454	46.8214
6.18715	47.9172
6.17978	47.4251
6.17242	46.5285
6.16508	46.9345
6.15776	47.3291
6.15045	47.0773
6.14317	47.1313
6.1359	47.019
6.12864	46.9984
6.12141	47.9633
6.11419	49.1864
6.10699	48.4116
6.0998	47.5261
6.09263	47.4581
6.08549	47.7846
6.07835	48.8905
6.07123	49.5371
6.06413	48.8534
6.05705	49.7477
6.04998	52.24
6.04293	50.7904
6.0359	48.932
6.02888	48.7366
6.02187	49.1072
6.01489	49.6864
6.00792	49.4466
6.00096	49.3907
5.99403	50.327
5.98711	50.6771
5.9802	50.1636
5.97331	50.5859
5.96644	50.8406
5.95958	50.0773
5.95274	50.1407
5.94591	50.8262
5.9391	52.5821
5.9323	52.1521
5.92552	50.7767
5.91876	50.6356
5.91201	50.6414
5.90528	51.1606
5.89856	52.7949
5.89186	52.8977
5.88517	53.6806
5.8785	54.0962
5.87184	52.4139
5.8652	52.5503
5.85857	52.5636
5.85196	52.3607
5.84536	52.36
5.83878	52.852
5.83221	53.7159
5.82566	54.8374
5.81912	54.9518
5.81259	53.7558
5.80608	53.341
5.79959	53.546
5.79311	53.6232
5.78665	53.8671
5.78019	54.2086
5.77376	55.0267
5.76734	56.4822
5.76093	55.5289
5.75453	54.5808
5.74815	55.0777
5.74179	54.8419
5.73543	54.663
5.7291	54.6374
5.72277	54.9455
5.71646	55.3989
5.71017	55.6491
5.70389	54.9395
5.69762	54.7415
5.69136	54.9727
5.68513	54.7264
5.6789	54.9969
5.67268	54.9632
5.66648	54.417
5.6603	54.6806
5.65413	54.9881
5.64797	55.3039
5.64182	55.733
5.63569	54.856
5.62957	54.1516
5.62347	53.989
5.61737	53.9616
5.61129	53.7742
5.60522	53.6442
5.59917	53.3245
5.59313	52.8238
5.5871	52.7902
5.58109	53.0352
5.57509	52.5604
5.5691	51.8796
5.56312	51.8632
5.55716	52.1933
5.55121	52.7232
5.54528	53.056
5.53935	53.3755
5.53344	53.6782
5.52754	54.1166
5.52166	54.418
5.51578	54.4249
5.50992	54.365
5.50407	54.5217
5.49823	54.5977
5.49241	54.6506
5.4866	54.7737
5.4808	55.1892
5.47501	55.2021
5.46923	55.4124
5.46347	55.6387
5.45772	55.2124
5.45198	55.0387
5.44625	55.1283
5.44054	55.0821
5.43484	54.9903
5.42914	55.2135
5.42347	55.8471
5.4178	55.4835
5.41214	54.8229
5.4065	54.5416
5.40087	54.337
5.39525	54.1747
5.38964	53.9771
5.38404	53.8113
5.37846	53.6392
5.37288	53.5105
5.36732	53.3983
5.36177	53.377
5.35623	53.6857
5.35071	53.9433
5.34519	53.5499
5.33968	53.2557
5.33419	53.3217
5.32871	53.331
5.32324	53.3337
5.31778	53.4011
5.31233	53.4802
5.30689	53.5791
5.30147	53.6544
5.29605	53.8265
5.29065	53.9691
5.28525	53.879
5.27987	53.96
5.2745	54.0188
5.26914	54.0615
5.26379	54.1694
5.25845	54.3377
5.25312	54.5144
5.24781	54.6988
5.2425	54.8671
5.23721	54.9832
5.23192	55.0236
5.22665	55.0565
5.22138	55.227
5.21613	55.6478
5.21089	55.701
5.20566	55.485
5.20044	55.5396
5.19522	55.43
5.19002	55.4005
5.18483	55.4411
5.17965	55.4471
5.17448	55.4112
5.16933	55.3834
5.16418	55.3343
5.15904	55.2986
5.15391	55.419
5.14879	55.675
5.14368	55.5547
5.13859	55.3878
5.1335	55.3502
5.12842	55.2982
5.12335	55.2778
5.1183	55.2747
5.11325	55.3158
5.10821	55.2931
5.10318	55.3072
5.09817	55.296
5.09316	55.2698
5.08816	55.2653
5.08317	55.255
5.07819	55.153
5.07322	55.1475
5.06826	55.1597
5.06331	55.0747
5.05837	55.0171
5.05344	55.0561
5.04852	55.0779
5.04361	55.0693
5.03871	55.0743
5.03382	55.0861
5.02894	55.1413
5.02406	55.1827
5.0192	55.1678
5.01435	55.0953
5.0095	55.0595
5.00467	55.0489
4.99984	55.088
4.99502	55.1155
4.99021	55.1364
4.98542	55.1939
4.98063	55.2484
4.97585	55.3295
4.97108	55.384
4.96632	55.4027
4.96156	55.5305
4.95682	55.6536
4.95209	55.6632
4.94736	55.6738
4.94264	55.7126
4.93794	55.7519
4.93324	55.8016
4.92855	55.8361
4.92387	55.823
4.9192	55.8747
4.91453	55.9642
4.90988	56.0316
4.90524	56.0792
4.9006	56.1205
4.89597	56.2175
4.89135	56.2641
4.88674	56.2558
4.88214	56.2601
4.87755	56.2662
4.87296	56.3351
4.86839	56.3523
4.86382	56.3518
4.85926	56.377
4.85471	56.3948
4.85017	56.4006
4.84564	56.4636
4.84111	56.5818
4.8366	56.5617
4.83209	56.4752
4.82759	56.499
4.8231	56.5709
4.81862	56.5454
4.81415	56.5229
4.80968	56.5434
4.80522	56.574
4.80077	56.6239
4.79633	56.6026
4.7919	56.5866
4.78747	56.5948
4.78306	56.6244
4.77865	56.6308
4.77425	56.5722
4.76986	56.5403
4.76547	56.5738
4.7611	56.6008
4.75673	56.5765
4.75237	56.5459
4.74802	56.5734
4.74367	56.5406
4.73934	56.5682
4.73501	56.6347
4.73069	56.6431
4.72638	56.5817
4.72207	56.5912
4.71777	56.6104
4.71348	56.6039
4.7092	56.5664
4.70493	56.5527
4.70066	56.5595
4.69641	56.5944
4.69216	56.5847
4.68791	56.622
4.68368	56.6312
4.67945	56.6293
4.67523	56.6172
4.67102	56.5725
4.66682	56.5832
4.66262	56.6241
4.65843	56.6185
4.65425	56.6023
4.65007	56.6213
4.64591	56.6879
4.64175	56.6839
4.6376	56.6816
4.63345	56.7404
4.62932	56.7534
4.62519	56.7455
4.62106	56.7737
4.61695	56.6965
4.61284	56.7222
4.60874	56.767
4.60465	56.7695
4.60056	56.8043
4.59648	56.8637
4.59241	56.848
4.58835	56.7772
4.58429	56.7658
4.58024	56.8101
4.5762	56.8345
4.57216	56.8523
4.56814	56.8415
4.56411	56.8345
4.5601	56.9307
4.55609	56.9678
4.55209	56.8964
4.5481	56.8867
4.54411	56.8845
4.54013	56.8877
4.53616	56.8866
4.5322	56.8897
4.52824	56.8514
4.52429	56.8504
4.52034	56.9274
4.51641	56.9395
4.51247	56.9016
4.50855	56.8492
4.50463	56.8321
4.50072	56.8474
4.49682	56.8414
4.49292	56.888
4.48903	56.8712
4.48515	56.9125
4.48127	56.964
4.4774	56.9182
4.47354	56.8973
4.46968	56.9276
4.46584	56.9547
4.46199	56.9723
4.45815	56.9656
4.45432	56.9528
4.4505	56.946
4.44668	56.9551
4.44287	56.9499
4.43907	57.0145
4.43527	57.0327
4.43148	57.051
4.4277	57.083
4.42392	57.0912
4.42015	57.0635
4.41638	57.0746
4.41262	57.0296
4.40887	57.0233
4.40513	57.1064
4.40139	57.1348
4.39765	57.104
4.39393	57.0648
4.39021	57.1269
4.38649	57.1962
4.38278	57.1858
4.37908	57.1269
4.37539	57.1524
4.3717	57.1637
4.36801	57.1133
4.36434	57.1417
4.36067	57.1943
4.357	57.2718
4.35335	57.2881
4.34969	57.2973
4.34605	57.2794
4.34241	57.2713
4.33877	57.3017
4.33514	57.3721
4.33152	57.4274
4.32791	57.4544
4.3243	57.4922
4.32069	57.5023
4.3171	57.509
4.31351	57.516
4.30992	57.5223
4.30634	57.589
4.30277	57.665
4.2992	57.741
4.29564	57.7932
4.29208	57.8763
4.28853	57.9058
4.28499	57.8734
4.28145	57.8766
4.27792	57.8806
4.27439	57.7949
4.27087	57.7298
4.26735	57.66
4.26384	57.5863
4.26034	57.5171
4.25684	57.512
4.25335	57.6132
4.24986	57.8109
4.24638	58.0046
4.24291	58.1119
4.23944	58.151
4.23598	58.2081
4.23252	58.2045
4.22906	58.1085
4.22562	58.0774
4.22218	58.0626
4.21874	57.9508
4.21531	57.8581
4.21189	57.7779
4.20847	57.6876
4.20506	57.5884
4.20165	57.562
4.19825	57.5774
4.19485	57.5308
4.19146	57.461
4.18807	57.4858
4.18469	57.5232
4.18132	57.4815
4.17795	57.5137
4.17458	57.5664
4.17123	57.5648
4.16787	57.5374
4.16453	57.4903
4.16118	57.4629
4.15785	57.4547
4.15451	57.514
4.15119	57.6429
4.14787	57.6229
4.14455	57.5731
4.14124	57.5383
4.13794	57.5559
4.13464	57.5988
4.13134	57.5565
4.12805	57.501
4.12477	57.5155
4.12149	57.5206
4.11822	57.5469
4.11495	57.5419
4.11168	57.5217
4.10843	57.5597
4.10517	57.5564
4.10192	57.5381
4.09868	57.5603
4.09545	57.5617
4.09221	57.548
4.08899	57.5903
4.08576	57.5983
4.08255	57.5656
4.07933	57.5438
4.07613	57.491
4.07292	57.4652
4.06973	57.4595
4.06654	57.4683
4.06335	57.4938
4.06017	57.4589
4.05699	57.4238
4.05382	57.4127
4.05065	57.4744
4.04749	57.4653
4.04433	57.4111
4.04118	57.3223
4.03803	57.2614
4.03489	57.2366
4.03175	57.2067
4.02862	57.1108
4.02549	57.053
4.02237	57.038
4.01925	56.9947
4.01614	56.9224
4.01303	56.8835
4.00993	56.8189
4.00683	56.7492
4.00373	56.6022
4.00064	56.4545
3.99756	56.3268
3.99448	56.2627
3.9914	56.1632
3.98833	56.0098
3.98527	55.9265
3.98221	55.8916
3.97915	55.8384
3.9761	55.8379
3.97305	55.8724
3.97001	55.9057
3.96697	55.9239
3.96394	55.9516
3.96091	56.0469
3.95789	56.1918
3.95487	56.2566
3.95186	56.3236
3.94885	56.4698
3.94584	56.6478
3.94284	56.732
3.93984	56.8904
3.93685	57.0428
3.93386	57.0507
3.93088	57.0355
3.9279	57.0287
3.92493	57.0638
3.92196	57.0663
3.919	57.0873
3.91604	57.1418
3.91308	57.1692
3.91013	57.153
3.90718	57.1287
3.90424	57.1222
3.9013	57.1173
3.89837	57.1344
3.89544	57.1579
3.89252	57.1666
3.8896	57.1932
3.88668	57.2049
3.88377	57.161
3.88086	57.1219
3.87796	57.0914
3.87506	57.1496
3.87217	57.2366
3.86928	57.264
3.86639	57.2534
3.86351	57.2296
3.86064	57.255
3.85776	57.2348
3.8549	57.2333
3.85203	57.2613
3.84917	57.2832
3.84631	57.3167
3.84346	57.3342
3.84062	57.2947
3.83777	57.3014
3.83494	57.3543
3.8321	57.4056
3.82927	57.383
3.82644	57.3612
3.82362	57.3803
3.82081	57.4415
3.81799	57.5842
3.81518	57.6579
3.81238	57.6759
3.80958	57.6562
3.80678	57.6296
3.80399	57.6663
3.8012	57.6214
3.79841	57.6217
3.79563	57.6934
3.79286	57.7264
3.79008	57.7767
3.78731	57.827
3.78455	57.8131
3.78179	57.807
3.77903	57.8235
3.77628	57.8171
3.77353	57.7968
3.77079	57.7866
3.76805	57.7528
3.76531	57.7773
3.76258	57.8019
3.75985	57.768
3.75713	57.819
3.7544	57.8692
3.75169	57.8243
3.74898	57.7704
3.74627	57.7914
3.74356	57.8085
3.74086	57.8103
3.73816	57.8245
3.73547	57.8119
3.73278	57.7704
3.7301	57.788
3.72741	57.7819
3.72474	57.8005
3.72206	57.8524
3.71939	57.8513
3.71673	57.8166
3.71406	57.8166
3.71141	57.8575
3.70875	57.7772
3.7061	57.6819
3.70345	57.6932
3.70081	57.7589
3.69817	57.8147
3.69553	57.7803
3.6929	57.7728
3.69027	57.7976
3.68765	57.7661
3.68503	57.7626
3.68241	57.7515
3.6798	57.7417
3.67719	57.7797
3.67458	57.7714
3.67198	57.7578
3.66938	57.7618
3.66678	57.7622
3.66419	57.7556
3.66161	57.7445
3.65902	57.7803
3.65644	57.7793
3.65387	57.7442
3.65129	57.7488
3.64872	57.7581
3.64616	57.76
3.64359	57.7088
3.64103	57.6617
3.63848	57.5969
3.63593	57.5743
3.63338	57.678
3.63084	57.7425
3.6283	57.726
3.62576	57.7434
3.62322	57.7555
3.62069	57.6811
3.61817	57.6598
3.61564	57.764
3.61312	57.7372
3.61061	57.6798
3.6081	57.6569
3.60559	57.6979
3.60308	57.6963
3.60058	57.6366
3.59808	57.5957
3.59558	57.6035
3.59309	57.6332
3.59061	57.5981
3.58812	57.5907
3.58564	57.6259
3.58316	57.6558
3.58069	57.626
3.57822	57.5797
3.57575	57.5737
3.57328	57.5461
3.57082	57.5535
3.56836	57.5193
3.56591	57.5042
3.56346	57.5032
3.56101	57.4583
3.55857	57.4385
3.55613	57.4872
3.55369	57.4999
3.55126	57.466
3.54883	57.4928
3.5464	57.5429
3.54397	57.491
3.54155	57.3781
3.53914	57.2585
3.53672	57.1955
3.53431	57.2287
3.5319	57.2372
3.5295	57.1599
3.5271	57.102
3.5247	57.0524
3.52231	57.0089
3.51991	56.9523
3.51753	56.9019
3.51514	56.9124
3.51276	56.9128
3.51038	56.8024
3.50801	56.719
3.50563	56.5545
3.50327	56.4138
3.5009	56.3756
3.49854	56.3897
3.49618	56.4158
3.49382	56.3699
3.49147	56.3072
3.48912	56.2899
3.48677	56.2666
3.48443	56.2419
3.48209	56.2059
3.47975	56.1606
3.47742	56.2227
3.47509	56.2505
3.47276	56.2167
3.47044	56.2419
3.46812	56.2921
3.4658	56.3564
3.46348	56.4385
3.46117	56.5342
3.45886	56.5648
3.45656	56.4602
3.45425	56.3591
3.45195	56.387
3.44966	56.473
3.44736	56.494
3.44507	56.4623
3.44279	56.4426
3.4405	56.4021
3.43822	56.33
3.43594	56.2789
3.43367	56.2818
3.43139	56.1915
3.42912	56.1551
3.42686	56.1997
3.42459	56.1912
3.42233	56.1076
3.42007	56.0396
3.41782	55.9614
3.41557	55.9128
3.41332	55.9469
3.41108	55.9387
3.40883	55.9031
3.40659	55.9797
3.40435	56.0668
3.40212	56.0019
3.39989	55.914
3.39766	55.9782
3.39544	56.106
3.39322	56.0857
3.391	56.0554
3.38878	56.0576
3.38657	56.0523
3.38436	56.0009
3.38215	55.9729
3.37994	55.9916
3.37774	55.9732
3.37554	55.9131
3.37335	55.8297
3.37115	55.869
3.36896	55.959
3.36678	55.927
3.36459	55.8041
3.36241	55.7924
3.36023	55.8813
3.35805	55.9559
3.35588	55.9665
3.35371	55.8262
3.35154	55.7708
3.34938	55.8753
3.34721	55.9005
3.34505	55.8493
3.3429	55.8535
3.34074	55.9431
3.33859	56.0798
3.33644	56.1707
3.3343	56.1671
3.33215	56.1683
3.33001	56.211
3.32788	56.2503
3.32574	56.2608
3.32361	56.2603
3.32148	56.1985
3.31936	56.1343
3.31723	56.1857
3.31511	56.2278
3.31299	56.1669
3.31088	56.1271
3.30876	56.0633
3.30665	56.0756
3.30455	56.1322
3.30244	56.1078
3.30034	56.0839
3.29824	56.1102
3.29614	56.0638
3.29405	55.9568
3.29196	55.9035
3.28987	55.8494
3.28778	55.8574
3.2857	55.9344
3.28362	55.9119
3.28154	55.8342
3.27946	55.7868
3.27739	55.7752
3.27532	55.7295
3.27325	55.7598
3.27119	55.7163
3.26913	55.6691
3.26707	55.6506
3.26501	55.5999
3.26295	55.5634
3.2609	55.5735
3.25885	55.5969
3.2568	55.4766
3.25476	55.371
3.25272	55.4592
3.25068	55.4348
3.24864	55.3699
3.24661	55.3466
3.24458	55.321
3.24255	55.3274
3.24052	55.2733
3.2385	55.1928
3.23648	55.1324
3.23446	55.1045
3.23244	55.127
3.23043	55.1026
3.22841	54.9702
3.2264	54.9453
3.2244	54.9626
3.22239	54.9416
3.22039	54.8889
3.21839	54.7457
3.2164	54.6611
3.2144	54.6551
3.21241	54.6504
3.21042	54.6912
3.20844	54.6277
3.20645	54.5433
3.20447	54.5417
3.20249	54.5772
3.20051	54.511
3.19854	54.4321
3.19657	54.4299
3.1946	54.3754
3.19263	54.22
3.19067	54.175
3.1887	54.1059
3.18674	53.9318
3.18479	53.8803
3.18283	53.8953
3.18088	53.9316
3.17893	53.8973
3.17698	53.8467
3.17504	53.8116
3.17309	53.7249
3.17115	53.7003
3.16921	53.6015
3.16728	53.5159
3.16534	53.443
3.16341	53.3276
3.16148	53.2354
3.15956	53.1883
3.15763	53.2248
3.15571	53.1966
3.15379	53.092
3.15187	53.0927
3.14996	53.0544
3.14805	52.961
3.14614	52.8984
3.14423	52.8409
3.14232	52.8133
3.14042	52.7531
3.13852	52.716
3.13662	52.6854
3.13472	52.5676
3.13283	52.5338
3.13094	52.5128
3.12905	52.4278
3.12716	52.3459
3.12528	52.2794
3.12339	52.2148
3.12151	52.122
3.11964	52.0947
3.11776	52.0984
3.11589	52.0327
3.11401	51.8955
3.11214	51.8132
3.11028	51.8323
3.10841	51.805
3.10655	51.6927
3.10469	51.6423
3.10283	51.7167
3.10098	51.6808
3.09912	51.4989
3.09727	51.3663
3.09542	51.3821
3.09358	51.4172
3.09173	51.3415
3.08989	51.3206
3.08805	51.3403
3.08621	51.2377
3.08437	51.155
3.08254	51.172
3.08071	51.1822
3.07888	51.0869
3.07705	51.029
3.07523	51.0383
3.0734	51.068
3.07158	51.0297
3.06977	50.8976
3.06795	50.8732
3.06613	50.768
3.06432	50.6891
3.06251	50.6921
3.0607	50.6689
3.0589	50.6819
3.0571	50.7021
3.05529	50.5664
3.05349	50.5618
3.0517	50.5145
3.0499	50.4491
3.04811	50.3829
3.04632	50.2951
3.04453	50.3616
3.04274	50.4022
3.04096	50.279
3.03918	50.2252
3.0374	50.1874
3.03562	50.1805
3.03384	50.1738
3.03207	50.1363
3.03029	50.0599
3.02852	49.9875
3.02676	49.9106
3.02499	49.9158
3.02323	49.9394
3.02146	49.8576
3.0197	49.7535
3.01795	49.7405
3.01619	49.7474
3.01444	49.6686
3.01269	49.6042
3.01094	49.5626
3.00919	49.4655
3.00744	49.4203
3.0057	49.4854
3.00396	49.539
3.00222	49.3996
3.00048	49.2762
2.99875	49.2561
2.99701	49.1816
2.99528	49.0568
2.99355	49.1085
2.99183	49.0577
2.9901	49.0296
2.98838	49.0363
2.98666	48.9815
2.98494	48.9068
2.98322	48.8214
2.9815	48.8219
2.97979	48.791
2.97808	48.7137
2.97637	48.7017
2.97466	48.5392
2.97295	48.5156
2.97125	48.6089
2.96955	48.5672
2.96785	48.449
2.96615	48.4426
2.96446	48.4535
2.96276	48.4695
2.96107	48.4452
2.95938	48.3439
2.95769	48.3494
2.95601	48.3594
2.95432	48.4171
2.95264	48.3614
2.95096	48.3758
2.94928	48.3458
2.9476	48.3138
2.94593	48.2592
2.94425	48.1998
2.94258	48.1867
2.94092	48.2074
2.93925	48.2294
2.93758	48.2398
2.93592	48.2402
2.93426	48.1792
2.9326	48.1575
2.93094	48.2359
2.92928	48.2711
2.92763	48.234
2.92598	48.2328
2.92433	48.2791
2.92268	48.3768
2.92103	48.3606
2.91939	48.3867
2.91775	48.4641
2.9161	48.4205
2.91447	48.4121
2.91283	48.4839
2.91119	48.5194
2.90956	48.4899
2.90793	48.5071
2.9063	48.5086
2.90467	48.5682
2.90304	48.6723
2.90142	48.7717
2.89979	48.7945
2.89817	48.83
2.89656	48.8293
2.89494	48.7733
2.89332	48.7542
2.89171	48.8072
2.8901	48.9405
2.88849	49.0902
2.88688	49.123
2.88527	48.9752
2.88367	48.9007
2.88206	49.0085
2.88046	49.1556
2.87886	49.1536
2.87727	49.2499
2.87567	49.2562
2.87408	49.2609
2.87248	49.4315
2.87089	49.332
2.8693	49.143
2.86772	49.1866
2.86613	49.3639
2.86455	49.5339
2.86297	49.6616
2.86139	49.7924
2.85981	49.901
2.85823	49.9755
2.85666	50.0815
2.85508	50.2273
2.85351	50.2968
2.85194	50.3265
2.85038	50.4553
2.84881	50.493
2.84724	50.4696
2.84568	50.52
2.84412	50.4952
2.84256	50.6272
2.841	50.864
2.83945	50.9872
2.83789	51.0698
2.83634	51.2516
2.83479	51.4233
2.83324	51.4545
2.83169	51.4831
2.83015	51.5786
2.82861	51.7018
2.82706	51.6661
2.82552	51.6911
2.82398	51.8608
2.82245	51.9927
2.82091	52.2415
2.81938	52.3474
2.81784	52.1682
2.81631	52.2232
2.81479	52.4692
2.81326	52.6004
2.81173	52.6184
2.81021	52.6793
2.80869	52.8291
2.80716	52.9589
2.80565	53.1677
2.80413	53.6678
2.80261	53.9189
2.8011	53.5183
2.79959	53.2569
2.79808	53.3534
2.79657	53.5448
2.79506	53.6535
2.79355	53.734
2.79205	53.7639
2.79055	53.8755
2.78904	54.4044
2.78754	54.9984
2.78605	54.9045
2.78455	54.5947
2.78306	54.7033
2.78156	54.8636
2.78007	54.7188
2.77858	54.6805
2.77709	54.8303
2.77561	54.9022
2.77412	54.9963
2.77264	55.3984
2.77116	56.0066
2.76968	56.0125
2.7682	56.0274
2.76672	55.9764
2.76524	55.9517
2.76377	56.4873
2.7623	56.7554
2.76083	56.2295
2.75936	56.0434
2.75789	56.4679
2.75642	57.686
2.75496	57.9829
2.7535	56.8916
2.75203	56.7189
2.75057	56.66
2.74912	56.7107
2.74766	56.829
2.7462	56.8788
2.74475	57.0712
2.7433	57.6971
2.74185	58.7707
2.7404	59.5319
2.73895	59.0825
2.7375	57.9591
2.73606	58.1899
2.73462	58.6313
2.73318	58.0108
2.73174	57.7919
2.7303	57.8792
2.72886	57.97
2.72742	58.3298
2.72599	59.3297
2.72456	60.1701
2.72313	59.5487
2.7217	60.014
2.72027	60.8846
2.71884	59.5818
2.71742	59.0139
2.71599	58.7554
2.71457	58.7125
2.71315	58.9527
2.71173	60.229
2.71032	60.678
2.7089	59.9328
2.70748	59.1848
2.70607	59.0035
2.70466	59.0347
2.70325	59.075
2.70184	59.5143
2.70043	59.5377
2.69903	59.2325
2.69762	59.3289
2.69622	59.9582
2.69482	60.7783
2.69342	60.7904
2.69202	59.7556
2.69062	59.3327
2.68923	59.5504
2.68783	59.7607
2.68644	59.9521
2.68505	59.9801
2.68366	60.0758
2.68227	59.8387
2.68089	59.9459
2.6795	60.774
2.67812	61.1168
2.67673	61.5503
2.67535	60.888
2.67397	60.0676
2.6726	60.2573
2.67122	62.1952
2.66984	62.4347
2.66847	61.14
2.6671	62.0915
2.66572	62.3912
2.66435	61.4112
2.66299	60.2081
2.66162	60.1497
2.66025	60.269
2.65889	60.1066
2.65753	59.6695
2.65616	60.0931
2.65481	60.1421
2.65345	60.3035
2.65209	60.4165
2.65073	59.8342
2.64938	59.5919
2.64803	59.6547
2.64667	60.0311
2.64532	60.2613
2.64397	59.709
2.64263	59.6894
2.64128	59.8171
2.63994	59.7447
2.63859	59.6713
2.63725	59.748
2.63591	59.7544
2.63457	60.1099
2.63323	60.2142
2.6319	60.6117
2.63056	61.6217
2.62923	60.7958
2.62789	60.5202
2.62656	61.1045
2.62523	60.1729
2.6239	59.6749
2.62258	59.8198
2.62125	60.9019
2.61993	61.2353
2.6186	60.6639
2.61728	61.4834
2.61596	61.082
2.61464	60.1355
2.61332	60.192
2.61201	60.105
2.61069	60.3258
2.60938	60.5573
2.60807	60.6368
2.60675	60.9982
2.60544	61.4831
2.60414	61.0365
2.60283	60.5705
2.60152	60.3028
2.60022	60.0336
2.59891	59.8215
2.59761	60.1742
2.59631	61.8195
2.59501	63.7966
2.59371	62.3389
2.59242	60.4056
2.59112	59.9772
2.58983	60.2423
2.58853	60.6395
2.58724	60.8508
2.58595	60.4882
2.58466	61.0391
2.58338	61.1555
2.58209	60.5078
2.5808	60.4791
2.57952	59.8699
2.57824	60.1222
2.57695	60.6911
2.57567	60.3348
2.5744	60.4843
2.57312	60.778
2.57184	60.1351
2.57057	60.4127
2.56929	60.638
2.56802	60.0941
2.56675	59.8689
2.56548	60.3072
2.56421	60.9166
2.56294	61.0296
2.56168	61.0266
2.56041	60.4712
2.55915	59.8259
2.55789	59.6739
2.55662	59.7431
2.55536	59.8129
2.5541	60.0108
2.55285	60.2497
2.55159	60.1598
2.55034	59.9192
2.54908	59.893
2.54783	60.0424
2.54658	59.9204
2.54533	59.9049
2.54408	60.1296
2.54283	60.1457
2.54159	59.8518
2.54034	59.7752
2.5391	59.7983
2.53785	59.8312
2.53661	59.9963
2.53537	59.912
2.53413	59.851
2.53289	59.9509
2.53166	59.8817
2.53042	59.7557
2.52919	59.757
2.52795	59.766
2.52672	59.7608
2.52549	59.8518
2.52426	59.8282
2.52303	59.7432
2.52181	59.7739
2.52058	59.8846
2.51936	59.7875
2.51813	59.8064
2.51691	59.9709
2.51569	59.9388
2.51447	59.7559
2.51325	59.6638
2.51203	59.8458
2.51082	59.8349
2.5096	59.6665
2.50839	59.773
2.50717	59.8919
2.50596	59.8804
2.50475	59.793
2.50354	59.7961
2.50233	59.8262
2.50113	59.8254
2.49992	59.8378
2.49872	59.8329
2.49751	59.9148
2.49631	59.9181
2.49511	59.8627
2.49391	59.8264
2.49271	59.8152
2.49151	59.8987
2.49031	59.9392
2.48912	59.8833
2.48792	59.8922
2.48673	59.8098
2.48554	59.8592
2.48435	59.9536
2.48316	59.962
2.48197	59.8766
2.48078	59.8145
2.4796	59.8574
2.47841	59.9126
2.47723	59.8203
2.47604	59.8345
2.47486	59.8398
2.47368	59.8039
2.4725	59.8813
2.47132	59.8956
2.47014	59.9262
2.46897	59.9319
2.46779	59.9384
2.46662	59.858
2.46545	59.8891
2.46427	59.9837
2.4631	60.0032
2.46193	60.0684
2.46077	59.9222
2.4596	59.7527
2.45843	59.7859
2.45727	59.8291
2.4561	59.8562
2.45494	59.8788
2.45378	59.9129
2.45262	59.963
2.45146	59.9206
2.4503	59.8406
2.44914	59.7713
2.44799	59.8471
2.44683	59.9223
2.44568	60.0132
2.44452	60.0432
2.44337	59.9836
2.44222	59.941
2.44107	59.9079
2.43992	59.9255
2.43877	59.914
2.43763	59.9554
2.43648	59.9681
2.43534	59.9682
2.43419	59.9685
2.43305	59.8586
2.43191	59.8152
2.43077	59.8363
2.42963	60.0023
2.42849	60.0294
2.42736	59.9845
2.42622	59.9561
2.42509	59.9026
2.42395	59.9972
2.42282	60.0065
2.42169	59.8737
2.42056	59.8066
2.41943	59.889
2.4183	60.0498
2.41717	60.0904
2.41605	60.0679
2.41492	60.0286
2.4138	60.0205
2.41267	60.042
2.41155	59.9839
2.41043	59.9565
2.40931	60.0853
2.40819	60.149
2.40707	60.0442
2.40595	59.9932
2.40484	59.9716
2.40372	59.9473
2.40261	59.9687
2.4015	60.0634
2.40039	60.1418
2.39928	60.1209
2.39817	60.0133
2.39706	59.8885
2.39595	59.9959
2.39484	60.077
2.39374	60.0648
2.39263	60.0447
2.39153	60.0052
2.39043	60.0602
2.38932	60.1276
2.38822	60.2006
2.38712	60.1953
2.38603	60.1599
2.38493	60.0412
2.38383	59.9638
2.38274	60.0627
2.38164	60.1644
2.38055	60.1769
2.37946	60.127
2.37836	60.2255
2.37727	60.3491
2.37618	60.0958
2.3751	59.899
2.37401	59.9126
2.37292	59.9449
2.37184	59.9532
2.37075	59.9584
2.36967	60.038
2.36859	60.1361
2.3675	60.1599
2.36642	60.1681
2.36534	60.1516
2.36427	60.1163
2.36319	60.0399
2.36211	59.9768
2.36104	60.097
2.35996	60.1698
2.35889	60.1416
2.35781	60.1508
2.35674	60.1703
2.35567	60.1119
2.3546	60.1709
2.35353	60.1172
2.35247	60.1071
2.3514	60.1487
2.35033	60.0763
2.34927	60.1082
2.3482	60.1957
2.34714	60.1658
2.34608	60.1713
2.34502	60.0107
2.34396	60.0225
2.3429	60.1572
2.34184	60.168
2.34078	60.286
2.33973	60.2991
2.33867	60.247
2.33762	60.2923
2.33656	60.2196
2.33551	60.2764
2.33446	60.308
2.33341	60.1891
2.33236	60.1999
2.33131	60.2232
2.33026	60.1433
2.32922	60.1605
2.32817	60.2118
2.32712	60.1583
2.32608	60.0836
2.32504	60.0482
2.324	60.1409
2.32295	60.1761
2.32191	60.1492
2.32087	60.072
2.31984	60.0828
2.3188	60.0558
2.31776	60.0905
2.31673	60.2889
2.31569	60.4371
2.31466	60.3063
2.31362	60.1713
2.31259	60.2054
2.31156	60.1942
2.31053	60.1691
2.3095	60.1623
2.30847	60.1785
2.30745	60.1457
2.30642	60.1398
2.3054	60.2171
2.30437	60.1967
2.30335	60.0865
2.30232	60.1556
2.3013	60.3124
2.30028	60.2951
2.29926	60.137
2.29824	60.1106
2.29722	60.2297
2.29621	60.2342
2.29519	60.2136
2.29417	60.2622
2.29316	60.202
2.29215	60.2144
2.29113	60.3121
2.29012	60.2652
2.28911	60.1879
2.2881	60.2485
2.28709	60.2768
2.28608	60.1794
2.28507	60.2081
2.28407	60.2521
2.28306	60.2566
2.28206	60.2421
2.28105	60.2584
2.28005	60.1992
2.27905	60.1408
2.27805	60.2442
2.27705	60.2438
2.27605	60.1297
2.27505	60.2012
2.27405	60.4208
2.27305	60.4207
2.27206	60.2991
2.27106	60.3719
2.27007	60.3852
2.26907	60.3725
2.26808	60.3739
2.26709	60.2247
2.2661	60.1546
2.26511	60.249
2.26412	60.3079
2.26313	60.2253
2.26214	60.2434
2.26116	60.2601
2.26017	60.2333
2.25919	60.2596
2.2582	60.2968
2.25722	60.2865
2.25624	60.3193
2.25526	60.3275
2.25428	60.3752
2.2533	60.184
2.25232	60.1019
2.25134	60.2385
2.25036	60.2785
2.24939	60.2185
2.24841	60.2267
2.24744	60.3007
2.24646	60.3844
2.24549	60.4378
2.24452	60.3844
2.24355	60.4148
2.24257	60.4165
2.24161	60.3454
2.24064	60.2533
2.23967	60.1355
2.2387	60.172
2.23774	60.2708
2.23677	60.3644
2.23581	60.3872
2.23484	60.3616
2.23388	60.3611
2.23292	60.3986
2.23196	60.3538
2.231	60.2037
2.23004	60.2246
2.22908	60.318
2.22812	60.3
2.22716	60.3145
2.22621	60.2708
2.22525	60.2478
2.2243	60.379
2.22334	60.4474
2.22239	60.3881
2.22144	60.3029
2.22049	60.1804
2.21953	60.3006
2.21859	60.3719
2.21764	60.3218
2.21669	60.3291
2.21574	60.4025
2.21479	60.4454
2.21385	60.4818
2.2129	60.3782
2.21196	60.2952
2.21102	60.3037
2.21007	60.3053
2.20913	60.2622
2.20819	60.3769
2.20725	60.4322
2.20631	60.3908
2.20537	60.3807
2.20444	60.3841
2.2035	60.502
2.20256	60.5103
2.20163	60.4305
2.20069	60.3768
2.19976	60.2633
2.19883	60.2834
2.19789	60.3756
2.19696	60.3063
2.19603	60.2363
2.1951	60.386
2.19417	60.4488
2.19325	60.4536
2.19232	60.5095
2.19139	60.4595
2.19047	60.2281
2.18954	60.2323
2.18862	60.4396
2.18769	60.5895
2.18677	60.5757
2.18585	60.3745
2.18493	60.3583
2.18401	60.3844
2.18309	60.3691
2.18217	60.5035
2.18125	60.6129
2.18033	60.5117
2.17942	60.4683
2.1785	60.523
2.17759	60.4867
2.17667	60.5094
2.17576	60.5367
2.17485	60.4113
2.17393	60.3748
2.17302	60.3897
2.17211	60.3789
2.1712	60.3807
2.17029	60.4144
2.16939	60.494
2.16848	60.5362
2.16757	60.5433
2.16667	60.5283
2.16576	60.3977
2.16486	60.3342
2.16395	60.3592
2.16305	60.3318
2.16215	60.3735
2.16125	60.3557
2.16035	60.3006
2.15945	60.3627
2.15855	60.4359
2.15765	60.4975
2.15675	60.5181
2.15586	60.4236
2.15496	60.3938
2.15406	60.5056
2.15317	60.4619
2.15228	60.3063
2.15138	60.4428
2.15049	60.6053
2.1496	60.583
2.14871	60.4999
2.14782	60.3522
2.14693	60.2479
2.14604	60.4509
2.14515	60.6091
2.14427	60.5291
2.14338	60.3636
2.14249	60.3797
2.14161	60.3555
2.14072	60.3688
2.13984	60.4077
2.13896	60.4223
2.13808	60.3776
2.13719	60.5168
2.13631	60.5352
2.13543	60.5431
2.13455	60.4583
2.13368	60.3378
2.1328	60.2974
2.13192	60.3258
2.13105	60.3886
2.13017	60.5239
2.1293	60.5538
2.12842	60.4183
2.12755	60.5691
2.12668	60.6488
2.1258	60.5145
2.12493	60.6494
2.12406	60.7275
2.12319	60.5562
2.12232	60.4925
2.12145	60.4405
2.12059	60.4101
2.11972	60.4401
2.11885	60.3981
2.11799	60.4501
2.11712	60.3684
2.11626	60.3919
2.1154	60.5322
2.11453	60.364
2.11367	60.3438
2.11281	60.467
2.11195	60.4113
2.11109	60.3512
2.11023	60.4141
2.10937	60.5731
2.10851	60.5568
2.10766	60.5628
2.1068	60.4869
2.10594	60.5295
2.10509	60.6039
2.10423	60.5789
2.10338	60.592
2.10253	60.551
2.10168	60.5246
2.10082	60.5941
2.09997	60.6179
2.09912	60.5452
2.09827	60.4084
2.09742	60.4782
2.09658	60.463
2.09573	60.4533
2.09488	60.5444
2.09404	60.6129
2.09319	60.6855
2.09235	60.7063
2.0915	60.7141
2.09066	60.6518
2.08982	60.579
2.08897	60.302
2.08813	60.1845
2.08729	60.5001
2.08645	60.7833
2.08561	60.7288
2.08477	60.5392
2.08394	60.4767
2.0831	60.624
2.08226	60.532
2.08143	60.3573
2.08059	60.4634
2.07976	60.5971
2.07892	60.7778
2.07809	60.7087
2.07726	60.3809
2.07643	60.4507
2.07559	60.565
2.07476	60.7449
2.07393	60.5762
2.0731	60.3337
2.07228	60.4793
2.07145	60.7218
2.07062	60.6167
2.06979	60.5006
2.06897	60.5563
2.06814	60.8121
2.06732	60.9446
2.06649	60.8194
2.06567	60.6883
2.06485	60.3554
2.06403	60.4027
2.0632	60.4215
2.06238	60.3879
2.06156	60.5376
2.06074	60.721
2.05993	60.5863
2.05911	60.4852
2.05829	60.5137
2.05747	60.5061
2.05666	60.447
2.05584	60.4013
2.05503	60.4099
2.05421	60.4948
2.0534	60.4405
2.05259	60.6112
2.05177	60.6201
2.05096	60.5617
2.05015	60.7069
2.04934	60.7958
2.04853	60.7538
2.04772	60.5449
2.04691	60.4174
2.04611	60.5236
2.0453	60.7274
2.04449	60.9518
2.04369	60.8083
2.04288	60.6525
2.04208	60.6163
2.04127	60.5007
2.04047	60.5219
2.03967	60.6315
2.03886	60.7517
2.03806	60.6361
2.03726	60.4568
2.03646	60.5249
2.03566	60.7876
2.03486	60.9625
2.03407	60.9372
2.03327	60.6843
2.03247	60.5228
2.03167	60.4329
2.03088	60.4138
2.03008	60.4832
2.02929	60.6783
2.0285	60.7219
2.0277	60.6854
2.02691	60.8501
2.02612	60.7057
2.02533	60.4114
2.02453	60.4375
2.02374	60.4702
2.02295	60.5078
2.02217	60.6466
2.02138	60.6891
2.02059	60.4467
2.0198	60.5523
2.01902	60.6393
2.01823	60.5498
2.01744	60.7638
2.01666	60.8047
2.01588	60.6445
2.01509	60.6069
2.01431	60.6975
2.01353	60.6186
2.01275	60.4631
2.01196	60.4102
2.01118	60.4674
2.0104	60.501
2.00963	60.489
2.00885	60.6115
2.00807	60.6768
2.00729	60.6192
2.00651	60.4703
2.00574	60.5059
2.00496	60.6372
2.00419	60.6575
2.00341	60.6079
2.00264	60.6787
2.00187	60.8246
2.00109	60.8618
2.00032	60.7411
