Name: Triphylite Li(Mn,Fe)PO_4
Type: Mineral
Class: Phosphates
Subclass: 
Particle Size: 0-45um
Sample No.: P-4A
Owner: JPL
Wavelength range: IR
Origin: USA, New Hampshire, North Graton, Palermo Mine
Collected by Burminco
Description: 





Measurement: Hemispherical reflectance
First Column: X
Second Column: Y
X Units:  Wavelength (micrometers)
Y Units:  Reflectance (percent)
First X Value: 15.3853
Last X Value: 2.00032
Number of X Values: 2256
Additional information: p04aa.txt
 
15.3853	6.15616
15.3397	5.7089
15.2945	5.09243
15.2495	4.37703
15.2048	3.54181
15.1603	2.88228
15.1161	2.78202
15.0722	2.8668
15.0285	2.71678
14.9851	2.87918
14.9419	3.42303
14.8989	3.73098
14.8563	3.66683
14.8138	4.10399
14.7716	4.71945
14.7296	5.0135
14.6879	5.08423
14.6464	5.51938
14.6052	6.20628
14.5641	6.62691
14.5233	6.78485
14.4828	7.06195
14.4424	7.41613
14.4023	7.8809
14.3624	8.30796
14.3227	8.75666
14.2833	9.01517
14.244	9.43677
14.205	10.0276
14.1662	10.333
14.1276	10.5131
14.0892	10.7726
14.051	11.0488
14.0131	11.3075
13.9753	11.6049
13.9377	11.9652
13.9004	12.2032
13.8632	12.3153
13.8262	12.4504
13.7895	12.654
13.7529	12.9506
13.7165	13.3181
13.6803	13.5508
13.6443	13.6991
13.6085	13.8882
13.5729	14.1572
13.5374	14.4434
13.5022	14.5356
13.4671	14.7387
13.4322	14.8282
13.3975	14.8212
13.363	15.1133
13.3286	15.2797
13.2944	15.365
13.2604	15.5917
13.2266	15.808
13.193	15.8731
13.1595	16.043
13.1262	16.176
13.093	16.2038
13.06	16.3252
13.0272	16.636
12.9946	16.6838
12.9621	16.5825
12.9298	16.6186
12.8976	16.6335
12.8656	16.6074
12.8337	16.5455
12.8021	16.4561
12.7705	16.5906
12.7391	16.8398
12.7079	16.8703
12.6769	16.8653
12.6459	16.9587
12.6152	16.944
12.5845	16.9007
12.5541	16.7786
12.5238	16.7401
12.4936	16.8058
12.4635	17.0242
12.4337	17.3187
12.4039	17.4772
12.3743	17.5595
12.3448	17.7772
12.3155	17.9181
12.2863	17.7783
12.2573	17.6219
12.2284	17.5939
12.1996	17.6603
12.171	17.568
12.1425	17.451
12.1141	17.3507
12.0859	17.2471
12.0578	17.2067
12.0298	17.2336
12.0019	17.2219
11.9742	17.06
11.9466	16.887
11.9192	16.9252
11.8918	16.8958
11.8646	16.8355
11.8375	16.7016
11.8106	16.5882
11.7837	16.4729
11.757	16.2326
11.7304	16.0642
11.7039	15.959
11.6776	15.787
11.6513	15.4779
11.6252	15.1399
11.5992	14.9848
11.5733	14.9253
11.5475	14.8895
11.5219	14.8186
11.4963	14.7243
11.4709	14.6339
11.4455	14.5331
11.4203	14.3459
11.3952	14.0519
11.3702	13.7652
11.3454	13.4785
11.3206	13.1332
11.2959	12.906
11.2714	12.8719
11.2469	12.5931
11.2226	12.2187
11.1983	11.9662
11.1742	11.8148
11.1502	11.5682
11.1263	11.2411
11.1024	10.9956
11.0787	10.6874
11.0551	10.4217
11.0316	10.1612
11.0081	9.93803
10.9848	9.73772
10.9616	9.58822
10.9385	9.46695
10.9154	9.22073
10.8925	8.92474
10.8697	8.8081
10.8469	8.76961
10.8243	8.79418
10.8017	8.80567
10.7793	8.76566
10.7569	8.77092
10.7346	8.97673
10.7125	9.0794
10.6904	9.11922
10.6684	9.09825
10.6465	8.98995
10.6247	8.81703
10.6029	8.51615
10.5813	8.15352
10.5597	8.06247
10.5383	8.28209
10.5169	8.77849
10.4956	9.24914
10.4744	9.51095
10.4533	9.68264
10.4323	9.75232
10.4113	9.75084
10.3904	9.79676
10.3697	9.80701
10.349	9.83446
10.3284	9.96322
10.3078	9.98961
10.2874	9.9806
10.267	9.99101
10.2467	9.94654
10.2265	9.89792
10.2064	9.86946
10.1863	9.87373
10.1663	9.9558
10.1464	10.0078
10.1266	10.1162
10.1069	10.3021
10.0872	10.5044
10.0676	10.6792
10.0481	10.8151
10.0287	11.0521
10.0093	11.3326
9.99005	11.5707
9.97084	11.6485
9.95169	11.6926
9.93263	11.7538
9.91364	11.8877
9.89472	12.0141
9.87587	12.0013
9.8571	11.9884
9.83839	12.0809
9.81976	12.1572
9.80119	12.1529
9.78271	12.2035
9.76428	12.3091
9.74592	12.4677
9.72764	12.6446
9.70943	12.6648
9.69128	12.7753
9.6732	13.0835
9.65518	13.1514
9.63724	13.2263
9.61935	13.3302
9.60155	13.3727
9.5838	13.5405
9.56611	13.6176
9.5485	13.5738
9.53094	13.5702
9.51345	13.6108
9.49604	13.6616
9.47867	13.6021
9.46137	13.4948
9.44414	13.4224
9.42697	13.3444
9.40986	13.1876
9.39281	13.0615
9.37583	12.9049
9.35891	12.8344
9.34204	12.6532
9.32524	12.4201
9.3085	12.0662
9.29182	11.727
9.27519	11.5072
9.25863	11.1282
9.24213	10.3034
9.22568	9.36732
9.2093	8.36465
9.19297	7.16692
9.17669	6.352
9.16048	6.61375
9.14433	7.6166
9.12823	8.73976
9.11218	9.73701
9.0962	10.2275
9.08027	10.4996
9.06439	10.7742
9.04858	10.806
9.03281	10.7065
9.0171	10.7332
9.00145	10.8271
8.98585	10.8129
8.9703	10.5856
8.9548	10.1346
8.93937	9.50954
8.92398	8.7861
8.90865	8.39912
8.89337	8.28527
8.87814	8.17326
8.86296	8.12829
8.84784	8.10359
8.83277	8.03906
8.81774	8.05008
8.80277	8.1598
8.78786	8.12192
8.77298	8.09074
8.75816	8.20403
8.7434	8.39939
8.72868	8.50316
8.714	8.75054
8.69938	9.02071
8.68481	9.19459
8.67029	9.44609
8.65581	9.76768
8.64139	10.0421
8.62701	10.1178
8.61268	10.1551
8.5984	10.192
8.58416	9.99728
8.56997	9.45113
8.55583	8.63981
8.54174	7.7284
8.52769	6.88901
8.51368	6.01027
8.49973	5.18222
8.48582	4.44208
8.47195	3.80697
8.45813	3.2361
8.44436	2.87001
8.43062	2.52429
8.41693	2.19391
8.4033	1.94644
8.3897	1.83601
8.37614	1.59723
8.36264	1.44135
8.34917	1.4126
8.33574	1.36027
8.32236	1.28642
8.30903	1.26047
8.29573	1.22376
8.28248	1.30564
8.26927	1.25269
8.2561	1.2473
8.24298	1.31318
8.2299	1.33012
8.21685	1.32156
8.20385	1.38037
8.19089	1.51364
8.17797	1.64731
8.16509	1.81683
8.15225	1.88852
8.13946	1.92408
8.1267	2.0575
8.11398	2.2581
8.10131	2.44235
8.08867	2.58049
8.07606	2.6673
8.0635	2.7443
8.05099	2.96097
8.0385	3.22653
8.02606	3.39563
8.01366	3.47104
8.00129	3.59804
7.98896	3.75449
7.97667	3.96144
7.96442	4.11924
7.9522	4.30731
7.94002	4.4508
7.92788	4.55543
7.91578	4.72426
7.90371	4.82727
7.89168	4.94639
7.87969	5.20087
7.86773	5.44737
7.85581	5.61312
7.84392	5.78777
7.83207	6.04837
7.82026	6.26792
7.80849	6.52436
7.79674	6.7463
7.78503	6.95787
7.77337	7.22512
7.76173	7.45455
7.75012	7.65008
7.73856	7.87151
7.72703	8.08136
7.71553	8.28241
7.70406	8.47094
7.69263	8.74113
7.68123	9.0073
7.66987	9.21346
7.65855	9.41278
7.64725	9.68874
7.63598	9.9178
7.62475	10.11
7.61356	10.3873
7.60239	10.6208
7.59126	10.8711
7.58017	11.0601
7.5691	11.0979
7.55806	11.2696
7.54707	11.52
7.5361	11.7215
7.52516	11.9325
7.51425	12.0942
7.50338	12.2362
7.49253	12.3673
7.48172	12.4864
7.47094	12.5592
7.46019	12.6338
7.44947	12.6955
7.43879	12.7983
7.42813	12.9233
7.4175	13.0875
7.4069	13.33
7.39634	13.5229
7.3858	13.6417
7.37529	13.7866
7.36482	13.9578
7.35437	14.0181
7.34396	14.1714
7.33357	14.2888
7.32321	14.2757
7.31288	14.2904
7.30258	14.3095
7.29231	14.3622
7.28207	14.5067
7.27185	14.5693
7.26167	14.5752
7.25152	14.6083
7.24139	14.6887
7.23129	14.7762
7.22122	14.78
7.21117	14.8886
7.20116	14.9485
7.19117	14.9602
7.18121	15.0643
7.17128	15.2574
7.16137	15.2138
7.1515	15.2142
7.14164	15.2337
7.13182	15.1882
7.12203	15.2123
7.11225	15.194
7.10251	15.1263
7.0928	15.1162
7.08311	15.1803
7.07344	15.2034
7.06381	15.3305
7.0542	15.6001
7.04461	15.838
7.03506	15.6739
7.02552	15.5075
7.01601	15.4348
7.00653	15.4906
6.99708	15.6998
6.98765	15.7742
6.97824	15.7458
6.96886	15.9889
6.95951	16.1937
6.95018	15.8797
6.94087	15.7754
6.9316	15.7816
6.92234	15.8451
6.91311	16.0941
6.90391	16.1857
6.89473	16.0456
6.88557	16.1083
6.87644	16.3654
6.86733	17.0581
6.85824	17.0831
6.84918	16.5383
6.84015	16.3807
6.83114	16.611
6.82215	16.6865
6.81319	16.5776
6.80424	16.6811
6.79532	17.0105
6.78643	17.0927
6.77756	16.8997
6.76871	16.8027
6.75989	16.7061
6.75109	16.7575
6.74231	16.6823
6.73355	16.6462
6.72482	16.8283
6.71611	17.0095
6.70742	16.8565
6.69875	16.5006
6.69011	16.6156
6.68149	16.8708
6.67289	16.7596
6.66431	16.6212
6.65576	16.5961
6.64722	16.9891
6.63871	17.6522
6.63022	17.3995
6.62175	16.8765
6.61331	16.7273
6.60488	16.7411
6.59648	16.9897
6.5881	17.12
6.57974	17.3996
6.5714	17.6419
6.56308	17.225
6.55478	17.0782
6.54651	16.838
6.53825	16.5656
6.53001	16.592
6.5218	16.8122
6.51361	16.6156
6.50544	16.8535
6.49729	17.8607
6.48915	18.2005
6.48104	18.0006
6.47295	17.939
6.46488	17.8687
6.45683	17.9894
6.4488	18.167
6.44079	18.2617
6.4328	18.5099
6.42482	18.8953
6.41687	19.7694
6.40894	19.4106
6.40103	18.4395
6.39314	18.27
6.38526	18.0823
6.37741	18.0738
6.36957	18.22
6.36176	17.8953
6.35396	17.8804
6.34618	18.3447
6.33843	18.0635
6.33069	17.5882
6.32297	17.5589
6.31527	17.5395
6.30758	17.556
6.29992	17.5575
6.29227	17.5643
6.28465	17.5586
6.27704	17.5253
6.26945	17.5434
6.26188	17.5516
6.25432	17.5705
6.24679	17.5261
6.23927	17.4205
6.23177	17.5217
6.22429	17.5554
6.21683	17.5573
6.20938	17.5189
6.20195	17.4369
6.19454	17.5302
6.18715	17.8842
6.17978	17.677
6.17242	17.4185
6.16508	17.7232
6.15776	17.771
6.15045	17.5108
6.14317	17.5746
6.1359	17.5058
6.12864	17.4377
6.12141	17.8392
6.11419	18.3679
6.10699	18.0675
6.0998	17.7191
6.09263	17.6682
6.08549	17.8136
6.07835	18.2444
6.07123	18.3984
6.06413	18.0305
6.05705	18.3823
6.04998	19.46
6.04293	18.7691
6.0359	17.8327
6.02888	17.6324
6.02187	17.6754
6.01489	17.8563
6.00792	17.7804
6.00096	17.7175
5.99403	17.967
5.98711	18.1328
5.9802	17.9288
5.97331	18.008
5.96644	18.0425
5.95958	17.7207
5.95274	17.6979
5.94591	17.908
5.9391	18.6472
5.9323	18.5508
5.92552	17.9707
5.91876	17.8658
5.91201	17.763
5.90528	17.9248
5.89856	18.5847
5.89186	18.5573
5.88517	18.8687
5.8785	19.0397
5.87184	18.2872
5.8652	18.2301
5.85857	18.1719
5.85196	18.0544
5.84536	18.0371
5.83878	18.1239
5.83221	18.4331
5.82566	18.9269
5.81912	18.8092
5.81259	18.09
5.80608	17.8512
5.79959	17.8886
5.79311	17.8846
5.78665	17.9697
5.78019	18.012
5.77376	18.2615
5.76734	18.8605
5.76093	18.5805
5.75453	18.1982
5.74815	18.3306
5.74179	18.2388
5.73543	18.2465
5.7291	18.2451
5.72277	18.3928
5.71646	18.6115
5.71017	18.6337
5.70389	18.3329
5.69762	18.3227
5.69136	18.366
5.68513	18.3314
5.6789	18.5883
5.67268	18.6311
5.66648	18.3909
5.6603	18.5173
5.65413	18.7093
5.64797	18.9479
5.64182	19.1824
5.63569	18.811
5.62957	18.5345
5.62347	18.4887
5.61737	18.5431
5.61129	18.5814
5.60522	18.6672
5.59917	18.6709
5.59313	18.5495
5.5871	18.7153
5.58109	19.0572
5.57509	18.9502
5.5691	18.6349
5.56312	18.6352
5.55716	18.7833
5.55121	18.8462
5.54528	18.7601
5.53935	18.7462
5.53344	18.7506
5.52754	18.8575
5.52166	18.8593
5.51578	18.7846
5.50992	18.7941
5.50407	18.9067
5.49823	18.9201
5.49241	18.8651
5.4866	18.7961
5.4808	19.0158
5.47501	19.0012
5.46923	19.0158
5.46347	19.1221
5.45772	18.9451
5.45198	18.8972
5.44625	19.0248
5.44054	19.0628
5.43484	18.9966
5.42914	19.108
5.42347	19.4068
5.4178	19.3301
5.41214	19.1313
5.4065	19.0029
5.40087	18.9343
5.39525	18.9234
5.38964	18.9191
5.38404	18.9617
5.37846	18.9495
5.37288	18.8456
5.36732	18.7439
5.36177	18.7671
5.35623	18.886
5.35071	18.9094
5.34519	18.5401
5.33968	18.2256
5.33419	18.1232
5.32871	17.9056
5.32324	17.6233
5.31778	17.3126
5.31233	17.0031
5.30689	16.6751
5.30147	16.3208
5.29605	16.0617
5.29065	16.0085
5.28525	16.0185
5.27987	16.0249
5.2745	16.1565
5.26914	16.31
5.26379	16.3736
5.25845	16.3959
5.25312	16.3894
5.24781	16.3714
5.2425	16.2475
5.23721	16.1637
5.23192	16.0911
5.22665	15.8042
5.22138	15.5842
5.21613	15.6074
5.21089	15.4735
5.20566	15.2211
5.20044	15.1283
5.19522	15.0285
5.19002	14.8574
5.18483	14.7273
5.17965	14.7134
5.17448	14.7091
5.16933	14.7381
5.16418	14.8484
5.15904	14.9639
5.15391	15.1569
5.14879	15.3807
5.14368	15.5321
5.13859	15.6624
5.1335	15.7673
5.12842	15.8601
5.12335	15.9352
5.1183	15.8544
5.11325	15.6893
5.10821	15.6242
5.10318	15.6388
5.09817	15.6755
5.09316	15.7123
5.08816	15.7705
5.08317	15.973
5.07819	16.1494
5.07322	16.2049
5.06826	16.2077
5.06331	16.2541
5.05837	16.3561
5.05344	16.4116
5.04852	16.4105
5.04361	16.3743
5.03871	16.3837
5.03382	16.4933
5.02894	16.6481
5.02406	16.8429
5.0192	17.0561
5.01435	17.2135
5.0095	17.2423
5.00467	17.3085
4.99984	17.3652
4.99502	17.3993
4.99021	17.4945
4.98542	17.5606
4.98063	17.5658
4.97585	17.6053
4.97108	17.5599
4.96632	17.5622
4.96156	17.6444
4.95682	17.7148
4.95209	17.817
4.94736	18.0122
4.94264	18.1316
4.93794	18.077
4.93324	17.904
4.92855	17.7556
4.92387	17.7228
4.9192	17.6927
4.91453	17.6808
4.90988	17.6913
4.90524	17.6529
4.9006	17.6817
4.89597	17.6759
4.89135	17.5678
4.88674	17.4934
4.88214	17.5023
4.87755	17.5517
4.87296	17.6959
4.86839	17.955
4.86382	18.1316
4.85926	18.3266
4.85471	18.5925
4.85017	18.8204
4.84564	18.9842
4.84111	19.1006
4.8366	19.2009
4.83209	19.2473
4.82759	19.2675
4.8231	19.2476
4.81862	19.3321
4.81415	19.4022
4.80968	19.3697
4.80522	19.4444
4.80077	19.531
4.79633	19.6149
4.7919	19.7988
4.78747	20.0835
4.78306	20.3783
4.77865	20.5954
4.77425	20.8187
4.76986	21.0723
4.76547	21.3308
4.7611	21.5879
4.75673	21.8054
4.75237	22.0269
4.74802	22.285
4.74367	22.5614
4.73934	22.762
4.73501	22.9761
4.73069	23.1837
4.72638	23.24
4.72207	23.336
4.71777	23.3681
4.71348	23.3437
4.7092	23.3127
4.70493	23.192
4.70066	23.0762
4.69641	23.0373
4.69216	22.9572
4.68791	22.8482
4.68368	22.7738
4.67945	22.6446
4.67523	22.5636
4.67102	22.5357
4.66682	22.5277
4.66262	22.5568
4.65843	22.6292
4.65425	22.8716
4.65007	23.1238
4.64591	23.2921
4.64175	23.4696
4.6376	23.7211
4.63345	23.982
4.62932	24.1895
4.62519	24.3619
4.62106	24.4566
4.61695	24.5238
4.61284	24.599
4.60874	24.7299
4.60465	24.921
4.60056	25.135
4.59648	25.2644
4.59241	25.4031
4.58835	25.5916
4.58429	25.7984
4.58024	25.9203
4.5762	26.0022
4.57216	26.1369
4.56814	26.2545
4.56411	26.3645
4.5601	26.3967
4.55609	26.4833
4.55209	26.598
4.5481	26.6054
4.54411	26.5523
4.54013	26.5365
4.53616	26.5926
4.5322	26.7527
4.52824	26.8265
4.52429	26.826
4.52034	26.7832
4.51641	26.7248
4.51247	26.6836
4.50855	26.7184
4.50463	26.7305
4.50072	26.7256
4.49682	26.7028
4.49292	26.7327
4.48903	26.8185
4.48515	26.9105
4.48127	26.9153
4.4774	26.9507
4.47354	27.0469
4.46968	27.0718
4.46584	27.2259
4.46199	27.5501
4.45815	27.8259
4.45432	28.091
4.4505	28.3423
4.44668	28.6768
4.44287	29.0091
4.43907	29.3786
4.43527	29.7652
4.43148	30.0264
4.4277	30.3031
4.42392	30.6534
4.42015	30.9988
4.41638	31.3793
4.41262	31.6181
4.40887	31.7924
4.40513	31.9806
4.40139	32.152
4.39765	32.2911
4.39393	32.4454
4.39021	32.5919
4.38649	32.7998
4.38278	32.9757
4.37908	33.1426
4.37539	33.3079
4.3717	33.3754
4.36801	33.4061
4.36434	33.5443
4.36067	33.6708
4.357	33.8092
4.35335	33.9428
4.34969	34.0421
4.34605	34.1954
4.34241	34.2631
4.33877	34.2979
4.33514	34.3481
4.33152	34.4311
4.32791	34.5125
4.3243	34.5948
4.32069	34.6444
4.3171	34.6793
4.31351	34.748
4.30992	34.8349
4.30634	34.872
4.30277	34.8553
4.2992	34.8808
4.29564	34.9506
4.29208	34.9879
4.28853	35.0112
4.28499	34.9814
4.28145	35.0318
4.27792	35.0696
4.27439	34.983
4.27087	35.0009
4.26735	35.1615
4.26384	35.2941
4.26034	35.571
4.25684	35.8477
4.25335	36.005
4.24986	36.0414
4.24638	36.0714
4.24291	36.0747
4.23944	36.0993
4.23598	36.23
4.23252	36.3306
4.22906	36.4852
4.22562	36.6478
4.22218	36.8392
4.21874	37.0749
4.21531	37.3417
4.21189	37.5676
4.20847	37.798
4.20506	37.9492
4.20165	38.0036
4.19825	38.1008
4.19485	38.2398
4.19146	38.3549
4.18807	38.4696
4.18469	38.5642
4.18132	38.6331
4.17795	38.7577
4.17458	38.8043
4.17123	38.8647
4.16787	39.0378
4.16453	39.0976
4.16118	39.174
4.15785	39.3732
4.15451	39.4769
4.15119	39.5303
4.14787	39.5703
4.14455	39.5833
4.14124	39.7259
4.13794	39.9385
4.13464	39.9737
4.13134	40.0039
4.12805	40.1036
4.12477	40.1742
4.12149	40.2967
4.11822	40.3881
4.11495	40.4431
4.11168	40.5101
4.10843	40.6157
4.10517	40.7465
4.10192	40.8323
4.09868	40.9206
4.09545	41.0389
4.09221	41.121
4.08899	41.2317
4.08576	41.3122
4.08255	41.4282
4.07933	41.4667
4.07613	41.4906
4.07292	41.615
4.06973	41.7923
4.06654	41.8618
4.06335	41.854
4.06017	41.8776
4.05699	41.9808
4.05382	42.0948
4.05065	42.2099
4.04749	42.2884
4.04433	42.3064
4.04118	42.3511
4.03803	42.4904
4.03489	42.595
4.03175	42.6856
4.02862	42.7683
4.02549	42.8324
4.02237	42.9668
4.01925	43.0513
4.01614	43.0338
4.01303	43.1707
4.00993	43.3331
4.00683	43.2788
4.00373	43.276
4.00064	43.4791
3.99756	43.6769
3.99448	43.7426
3.9914	43.7058
3.98833	43.7188
3.98527	43.806
3.98221	43.979
3.97915	44.1172
3.9761	44.2028
3.97305	44.2838
3.97001	44.3524
3.96697	44.4442
3.96394	44.5236
3.96091	44.5636
3.95789	44.6427
3.95487	44.77
3.95186	44.8886
3.94885	44.9989
3.94584	45.0771
3.94284	45.1342
3.93984	45.23
3.93685	45.3723
3.93386	45.4208
3.93088	45.4077
3.9279	45.551
3.92493	45.7079
3.92196	45.6867
3.919	45.7559
3.91604	45.9226
3.91308	45.9676
3.91013	45.9973
3.90718	46.088
3.90424	46.1556
3.9013	46.2628
3.89837	46.3866
3.89544	46.4326
3.89252	46.5107
3.8896	46.5856
3.88668	46.6183
3.88377	46.7228
3.88086	46.8434
3.87796	46.9488
3.87506	47.0349
3.87217	47.0958
3.86928	47.1445
3.86639	47.2537
3.86351	47.3521
3.86064	47.4146
3.85776	47.4523
3.8549	47.4827
3.85203	47.5535
3.84917	47.6142
3.84631	47.6503
3.84346	47.7095
3.84062	47.8957
3.83777	48.1081
3.83494	48.1551
3.8321	48.184
3.82927	48.2705
3.82644	48.3293
3.82362	48.4195
3.82081	48.4883
3.81799	48.5726
3.81518	48.576
3.81238	48.5795
3.80958	48.6925
3.80678	48.8445
3.80399	48.9778
3.8012	49.0315
3.79841	49.0434
3.79563	49.1379
3.79286	49.1947
3.79008	49.2126
3.78731	49.3905
3.78455	49.5065
3.78179	49.5041
3.77903	49.5733
3.77628	49.5983
3.77353	49.6655
3.77079	49.7429
3.76805	49.8579
3.76531	49.9842
3.76258	50.031
3.75985	50.0601
3.75713	50.142
3.7544	50.2323
3.75169	50.3492
3.74898	50.421
3.74627	50.4877
3.74356	50.5318
3.74086	50.5719
3.73816	50.6219
3.73547	50.7154
3.73278	50.8135
3.7301	50.8666
3.72741	50.8924
3.72474	50.9827
3.72206	51.0195
3.71939	51.0758
3.71673	51.2063
3.71406	51.2713
3.71141	51.3314
3.70875	51.335
3.7061	51.3051
3.70345	51.3682
3.70081	51.4946
3.69817	51.576
3.69553	51.6757
3.6929	51.803
3.69027	51.816
3.68765	51.8836
3.68503	51.9553
3.68241	51.9816
3.6798	52.0444
3.67719	52.1404
3.67458	52.2747
3.67198	52.3126
3.66938	52.3388
3.66678	52.4138
3.66419	52.4481
3.66161	52.4853
3.65902	52.5615
3.65644	52.6195
3.65387	52.6125
3.65129	52.5922
3.64872	52.7002
3.64616	52.8175
3.64359	52.8939
3.64103	52.9674
3.63848	52.9835
3.63593	53.0478
3.63338	53.1488
3.63084	53.1973
3.6283	53.2401
3.62576	53.288
3.62322	53.2949
3.62069	53.309
3.61817	53.4337
3.61564	53.5908
3.61312	53.5882
3.61061	53.5683
3.6081	53.657
3.60559	53.7422
3.60308	53.7364
3.60058	53.6893
3.59808	53.7088
3.59558	53.809
3.59309	53.9636
3.59061	54.0113
3.58812	53.9854
3.58564	54.0826
3.58316	54.0725
3.58069	54.0329
3.57822	54.1542
3.57575	54.2359
3.57328	54.2576
3.57082	54.357
3.56836	54.4549
3.56591	54.4167
3.56346	54.4244
3.56101	54.5177
3.55857	54.5444
3.55613	54.504
3.55369	54.4809
3.55126	54.5042
3.54883	54.5082
3.5464	54.4903
3.54397	54.5085
3.54155	54.6064
3.53914	54.6237
3.53672	54.6305
3.53431	54.6707
3.5319	54.6594
3.5295	54.6742
3.5271	54.7484
3.5247	54.8194
3.52231	54.8476
3.51991	54.8571
3.51753	54.8989
3.51514	54.9089
3.51276	54.9462
3.51038	55.0603
3.50801	55.0505
3.50563	54.9726
3.50327	55.058
3.5009	55.1222
3.49854	55.0761
3.49618	55.0543
3.49382	55.1449
3.49147	55.2064
3.48912	55.2564
3.48677	55.3104
3.48443	55.3786
3.48209	55.4509
3.47975	55.5041
3.47742	55.4912
3.47509	55.5046
3.47276	55.6109
3.47044	55.6939
3.46812	55.7123
3.4658	55.8015
3.46348	55.9627
3.46117	56.0306
3.45886	56.02
3.45656	55.9583
3.45425	55.9849
3.45195	56.0769
3.44966	56.1147
3.44736	56.1346
3.44507	56.1859
3.44279	56.2838
3.4405	56.2617
3.43822	56.1856
3.43594	56.2717
3.43367	56.3588
3.43139	56.3668
3.42912	56.4356
3.42686	56.511
3.42459	56.4753
3.42233	56.4653
3.42007	56.5
3.41782	56.5254
3.41557	56.6118
3.41332	56.6267
3.41108	56.6348
3.40883	56.7022
3.40659	56.749
3.40435	56.7015
3.40212	56.7386
3.39989	56.8662
3.39766	56.8775
3.39544	56.8856
3.39322	56.8712
3.391	56.866
3.38878	56.8712
3.38657	56.853
3.38436	56.876
3.38215	56.9725
3.37994	57.0387
3.37774	57.0612
3.37554	57.1178
3.37335	57.2102
3.37115	57.2152
3.36896	57.1501
3.36678	57.1406
3.36459	57.1191
3.36241	57.1849
3.36023	57.2637
3.35805	57.334
3.35588	57.3129
3.35371	57.2523
3.35154	57.2442
3.34938	57.2657
3.34721	57.3058
3.34505	57.3884
3.3429	57.5104
3.34074	57.554
3.33859	57.4466
3.33644	57.4252
3.3343	57.5274
3.33215	57.5137
3.33001	57.4638
3.32788	57.5054
3.32574	57.5173
3.32361	57.5757
3.32148	57.6501
3.31936	57.6563
3.31723	57.6887
3.31511	57.6632
3.31299	57.6251
3.31088	57.6761
3.30876	57.6941
3.30665	57.6858
3.30455	57.6539
3.30244	57.6807
3.30034	57.7913
3.29824	57.8305
3.29614	57.8467
3.29405	57.7976
3.29196	57.7349
3.28987	57.7558
3.28778	57.8088
3.2857	57.828
3.28362	57.7935
3.28154	57.7832
3.27946	57.8131
3.27739	57.8128
3.27532	57.7673
3.27325	57.7354
3.27119	57.7554
3.26913	57.7043
3.26707	57.6964
3.26501	57.6911
3.26295	57.7932
3.2609	57.8775
3.25885	57.8024
3.2568	57.6586
3.25476	57.5076
3.25272	57.5678
3.25068	57.673
3.24864	57.6567
3.24661	57.6362
3.24458	57.6268
3.24255	57.6146
3.24052	57.6043
3.2385	57.6502
3.23648	57.6446
3.23446	57.5858
3.23244	57.5817
3.23043	57.6075
3.22841	57.5416
3.2264	57.4841
3.2244	57.4126
3.22239	57.3408
3.22039	57.3843
3.21839	57.4317
3.2164	57.3431
3.2144	57.289
3.21241	57.3069
3.21042	57.265
3.20844	57.2848
3.20645	57.2409
3.20447	57.1286
3.20249	57.1543
3.20051	57.1105
3.19854	57.0392
3.19657	57.0908
3.1946	57.1162
3.19263	57.0869
3.19067	56.9468
3.1887	56.7749
3.18674	56.7775
3.18479	56.7491
3.18283	56.685
3.18088	56.6557
3.17893	56.6064
3.17698	56.6179
3.17504	56.6128
3.17309	56.7022
3.17115	56.712
3.16921	56.5816
3.16728	56.5163
3.16534	56.4795
3.16341	56.3489
3.16148	56.3246
3.15956	56.3631
3.15763	56.3533
3.15571	56.2604
3.15379	56.1772
3.15187	56.105
3.14996	56.1085
3.14805	56.102
3.14614	56.0838
3.14423	56.0752
3.14232	56.1449
3.14042	56.1466
3.13852	56.0618
3.13662	55.9721
3.13472	55.9381
3.13283	55.9432
3.13094	55.913
3.12905	55.8895
3.12716	55.8362
3.12528	55.8131
3.12339	55.8111
3.12151	55.7474
3.11964	55.721
3.11776	55.6621
3.11589	55.6763
3.11401	55.636
3.11214	55.5501
3.11028	55.541
3.10841	55.5151
3.10655	55.5263
3.10469	55.5235
3.10283	55.4121
3.10098	55.4343
3.09912	55.4816
3.09727	55.4338
3.09542	55.3714
3.09358	55.3868
3.09173	55.3419
3.08989	55.253
3.08805	55.2242
3.08621	55.2238
3.08437	55.054
3.08254	55.0939
3.08071	55.2543
3.07888	55.2291
3.07705	55.1441
3.07523	55.0547
3.0734	55.0615
3.07158	55.0771
3.06977	55.093
3.06795	55.1579
3.06613	55.1116
3.06432	55.051
3.06251	55.1297
3.0607	55.2106
3.0589	55.1242
3.0571	54.9998
3.05529	54.9993
3.05349	54.9446
3.0517	54.9313
3.0499	54.976
3.04811	55.0175
3.04632	55.02
3.04453	54.9341
3.04274	54.9279
3.04096	55.0704
3.03918	55.118
3.0374	54.9386
3.03562	54.8131
3.03384	54.802
3.03207	54.8775
3.03029	55.0021
3.02852	54.9264
3.02676	54.8664
3.02499	54.9486
3.02323	54.867
3.02146	54.7674
3.0197	54.8596
3.01795	54.9164
3.01619	54.9268
3.01444	54.7735
3.01269	54.7478
3.01094	54.7719
3.00919	54.7487
3.00744	54.7719
3.0057	54.7004
3.00396	54.7134
3.00222	54.7695
3.00048	54.7306
2.99875	54.7461
2.99701	54.7556
2.99528	54.8107
2.99355	54.6951
2.99183	54.5763
2.9901	54.6803
2.98838	54.8498
2.98666	54.9291
2.98494	54.7711
2.98322	54.7864
2.9815	54.8363
2.97979	54.7591
2.97808	54.7286
2.97637	54.7108
2.97466	54.763
2.97295	54.8615
2.97125	54.8794
2.96955	54.8583
2.96785	54.8493
2.96615	54.857
2.96446	54.8157
2.96276	54.8194
2.96107	54.9767
2.95938	55.1498
2.95769	55.1252
2.95601	55.1129
2.95432	55.0609
2.95264	55.0028
2.95096	55.0159
2.94928	55.1845
2.9476	55.2514
2.94593	55.0921
2.94425	55.0196
2.94258	55.0781
2.94092	55.2201
2.93925	55.3506
2.93758	55.3332
2.93592	55.3948
2.93426	55.3383
2.9326	55.3218
2.93094	55.4872
2.92928	55.6307
2.92763	55.6552
2.92598	55.6521
2.92433	55.689
2.92268	55.7552
2.92103	55.6904
2.91939	55.6575
2.91775	55.6535
2.9161	55.7728
2.91447	55.9963
2.91283	56.1249
2.91119	56.1109
2.90956	56.0855
2.90793	56.2076
2.9063	56.3502
2.90467	56.405
2.90304	56.4422
2.90142	56.6088
2.89979	56.6986
2.89817	56.7049
2.89656	56.7502
2.89494	56.7493
2.89332	56.9134
2.89171	57.0993
2.8901	57.1762
2.88849	57.2149
2.88688	57.2372
2.88527	57.3475
2.88367	57.5185
2.88206	57.6854
2.88046	57.8022
2.87886	57.8636
2.87727	58.027
2.87567	58.1433
2.87408	58.1115
2.87248	58.1981
2.87089	58.264
2.8693	58.3137
2.86772	58.4694
2.86613	58.5044
2.86455	58.6134
2.86297	58.7392
2.86139	58.858
2.85981	58.9351
2.85823	59.1109
2.85666	59.3853
2.85508	59.5381
2.85351	59.6136
2.85194	59.7027
2.85038	59.8308
2.84881	59.8642
2.84724	60.016
2.84568	60.2364
2.84412	60.4082
2.84256	60.5082
2.841	60.671
2.83945	60.9141
2.83789	61.0876
2.83634	61.2198
2.83479	61.4306
2.83324	61.4449
2.83169	61.5057
2.83015	61.5249
2.82861	61.7812
2.82706	62.1043
2.82552	62.141
2.82398	62.2915
2.82245	62.5971
2.82091	62.8291
2.81938	63.0745
2.81784	63.2352
2.81631	63.5095
2.81479	63.7416
2.81326	63.7587
2.81173	63.8726
2.81021	64.1075
2.80869	64.3738
2.80716	64.5666
2.80565	65.0173
2.80413	65.7612
2.80261	66.1558
2.8011	65.7785
2.79959	65.6897
2.79808	65.9998
2.79657	66.1601
2.79506	66.3856
2.79355	66.7824
2.79205	67.0955
2.79055	67.3804
2.78904	68.1257
2.78754	69.0154
2.78605	68.9908
2.78455	68.6654
2.78306	69.0975
2.78156	69.5491
2.78007	69.5977
2.77858	69.6845
2.77709	69.9541
2.77561	70.0719
2.77412	70.2274
2.77264	70.8233
2.77116	71.6548
2.76968	71.7425
2.7682	71.8988
2.76672	72.0577
2.76524	72.0164
2.76377	72.6927
2.7623	73.0409
2.76083	72.4982
2.75936	72.4133
2.75789	72.9872
2.75642	74.6075
2.75496	75.085
2.7535	73.7706
2.75203	73.6189
2.75057	73.7643
2.74912	73.8737
2.74766	74.0889
2.7462	74.397
2.74475	74.6586
2.7433	75.2257
2.74185	76.514
2.7404	77.8068
2.73895	77.6736
2.7375	76.4687
2.73606	76.4933
2.73462	76.9596
2.73318	76.5079
2.73174	76.5496
2.7303	76.7553
2.72886	76.8634
2.72742	77.2981
2.72599	78.5921
2.72456	79.8116
2.72313	79.2114
2.7217	79.9028
2.72027	80.8928
2.71884	79.5143
2.71742	78.9521
2.71599	78.7002
2.71457	78.7332
2.71315	79.0308
2.71173	80.4981
2.71032	81.0202
2.7089	80.1915
2.70748	79.4843
2.70607	79.3149
2.70466	79.5893
2.70325	79.8595
2.70184	80.4607
2.70043	80.4293
2.69903	80.1055
2.69762	80.5611
2.69622	81.5901
2.69482	82.5713
2.69342	82.6612
2.69202	81.6171
2.69062	81.2557
2.68923	81.5119
2.68783	81.8296
2.68644	82.1487
2.68505	82.1954
2.68366	82.3914
2.68227	82.2545
2.68089	82.5271
2.6795	83.6676
2.67812	84.0639
2.67673	84.5058
2.67535	83.7191
2.67397	82.8918
2.6726	83.222
2.67122	85.5592
2.66984	85.9153
2.66847	84.4194
2.6671	85.5189
2.66572	85.9241
2.66435	84.7966
2.66299	83.3136
2.66162	83.3337
2.66025	83.6806
2.65889	83.6149
2.65753	82.9956
2.65616	83.3067
2.65481	83.3787
2.65345	83.7057
2.65209	83.8439
2.65073	83.1581
2.64938	82.9094
2.64803	83.08
2.64667	83.5056
2.64532	83.694
2.64397	83.2629
2.64263	83.3511
2.64128	83.364
2.63994	83.195
2.63859	83.0701
2.63725	83.1728
2.63591	83.3145
2.63457	83.8291
2.63323	83.9094
2.6319	84.4351
2.63056	85.6522
2.62923	84.6132
2.62789	84.2712
2.62656	85.0545
2.62523	84.0482
2.6239	83.4857
2.62258	83.6176
2.62125	84.9333
2.61993	85.3544
2.6186	84.7174
2.61728	85.7244
2.61596	85.2231
2.61464	84.0563
2.61332	84.1614
2.61201	84.0201
2.61069	84.2723
2.60938	84.5617
2.60807	84.7326
2.60675	85.5749
2.60544	86.2852
2.60414	85.4626
2.60283	84.7671
2.60152	84.5283
2.60022	84.182
2.59891	84.0126
2.59761	84.6187
2.59631	86.6019
2.59501	88.7645
2.59371	86.9274
2.59242	84.6751
2.59112	84.2526
2.58983	84.6597
2.58853	85.0369
2.58724	85.2682
2.58595	84.9509
2.58466	85.7989
2.58338	85.9807
2.58209	85.1229
2.5808	84.9798
2.57952	84.3604
2.57824	84.6299
2.57695	85.2366
2.57567	84.8901
2.5744	85.1807
2.57312	85.5069
2.57184	84.6235
2.57057	84.9507
2.56929	85.2208
2.56802	84.6437
2.56675	84.4305
2.56548	84.9213
2.56421	85.657
2.56294	85.9136
2.56168	85.9777
2.56041	85.3831
2.55915	84.592
2.55789	84.3326
2.55662	84.2918
2.55536	84.332
2.5541	84.6386
2.55285	85.0426
2.55159	84.9924
2.55034	84.6829
2.54908	84.5262
2.54783	84.7509
2.54658	84.6675
2.54533	84.6359
2.54408	84.8311
2.54283	84.9567
2.54159	84.6758
2.54034	84.4921
2.5391	84.6317
2.53785	84.783
2.53661	84.9475
2.53537	84.8592
2.53413	84.7751
2.53289	84.8167
2.53166	84.8095
2.53042	84.7024
2.52919	84.591
2.52795	84.6285
2.52672	84.7009
2.52549	84.7504
2.52426	84.832
2.52303	84.8779
2.52181	84.8428
2.52058	84.8402
2.51936	84.8182
2.51813	84.7625
2.51691	84.7425
2.51569	84.7771
2.51447	84.8358
2.51325	84.8223
2.51203	84.8148
2.51082	84.9083
2.5096	85.0005
2.50839	84.9787
2.50717	84.9884
2.50596	85.0351
2.50475	85.0314
2.50354	84.9383
2.50233	84.994
2.50113	85.1169
2.49992	85.1011
2.49872	85.0702
2.49751	85.1327
2.49631	85.1261
2.49511	85.0553
2.49391	85.0769
2.49271	85.1043
2.49151	85.1444
2.49031	85.1721
2.48912	85.2365
2.48792	85.2872
2.48673	85.2001
2.48554	85.1433
2.48435	85.1524
2.48316	85.2245
2.48197	85.3045
2.48078	85.3709
2.4796	85.3657
2.47841	85.4106
2.47723	85.4124
2.47604	85.3034
2.47486	85.3323
2.47368	85.3543
2.4725	85.2598
2.47132	85.2399
2.47014	85.2781
2.46897	85.2674
2.46779	85.2435
2.46662	85.2843
2.46545	85.3957
2.46427	85.5076
2.4631	85.5242
2.46193	85.3974
2.46077	85.3667
2.4596	85.502
2.45843	85.554
2.45727	85.5083
2.4561	85.5012
2.45494	85.5711
2.45378	85.5482
2.45262	85.5197
2.45146	85.5308
2.4503	85.6092
2.44914	85.6223
2.44799	85.6389
2.44683	85.6196
2.44568	85.6238
2.44452	85.5869
2.44337	85.6831
2.44222	85.7071
2.44107	85.7264
2.43992	85.6694
2.43877	85.6113
2.43763	85.5444
2.43648	85.6237
2.43534	85.7959
2.43419	85.7758
2.43305	85.6622
2.43191	85.7443
2.43077	85.8999
2.42963	85.96
2.42849	85.8944
2.42736	85.8958
2.42622	85.8558
2.42509	85.7946
2.42395	85.766
2.42282	85.7166
2.42169	85.6891
2.42056	85.767
2.41943	85.897
2.4183	85.9244
2.41717	85.9366
2.41605	85.8261
2.41492	85.8341
2.4138	85.7912
2.41267	85.8063
2.41155	85.8597
2.41043	85.8482
2.40931	85.8382
2.40819	85.8438
2.40707	85.9318
2.40595	85.9089
2.40484	85.9147
2.40372	85.9173
2.40261	85.8473
2.4015	85.8813
2.40039	85.8961
2.39928	85.9372
2.39817	86.0566
2.39706	86.0495
2.39595	85.9014
2.39484	85.8247
2.39374	85.909
2.39263	85.9662
2.39153	86.0213
2.39043	86.1349
2.38932	86.1934
2.38822	86.2182
2.38712	86.2055
2.38603	86.1555
2.38493	86.1401
2.38383	86.1117
2.38274	86.0882
2.38164	86.0002
2.38055	86.042
2.37946	86.1811
2.37836	86.167
2.37727	86.1311
2.37618	86.1554
2.3751	86.2171
2.37401	86.2165
2.37292	86.2267
2.37184	86.1962
2.37075	86.1506
2.36967	86.1652
2.36859	86.1618
2.3675	86.2071
2.36642	86.2014
2.36534	86.2088
2.36427	86.2738
2.36319	86.2814
2.36211	86.2672
2.36104	86.2635
2.35996	86.2643
2.35889	86.3137
2.35781	86.2504
2.35674	86.1752
2.35567	86.147
2.3546	86.2387
2.35353	86.3102
2.35247	86.3017
2.3514	86.2611
2.35033	86.2718
2.34927	86.3384
2.3482	86.4578
2.34714	86.461
2.34608	86.4278
2.34502	86.4342
2.34396	86.4244
2.3429	86.3568
2.34184	86.2078
2.34078	86.2994
2.33973	86.4402
2.33867	86.393
2.33762	86.3675
2.33656	86.3986
2.33551	86.4025
2.33446	86.285
2.33341	86.2826
2.33236	86.332
2.33131	86.4017
2.33026	86.4117
2.32922	86.4783
2.32817	86.402
2.32712	86.3342
2.32608	86.3623
2.32504	86.3679
2.324	86.3963
2.32295	86.4468
2.32191	86.4414
2.32087	86.429
2.31984	86.4758
2.3188	86.5117
2.31776	86.464
2.31673	86.4716
2.31569	86.5422
2.31466	86.4798
2.31362	86.4289
2.31259	86.4745
2.31156	86.4846
2.31053	86.4959
2.3095	86.5461
2.30847	86.5307
2.30745	86.4643
2.30642	86.5216
2.3054	86.5149
2.30437	86.5145
2.30335	86.6118
2.30232	86.5798
2.3013	86.4089
2.30028	86.3568
2.29926	86.3288
2.29824	86.4138
2.29722	86.4753
2.29621	86.533
2.29519	86.5234
2.29417	86.5015
2.29316	86.4673
2.29215	86.4517
2.29113	86.458
2.29012	86.4757
2.28911	86.492
2.2881	86.5993
2.28709	86.5599
2.28608	86.3198
2.28507	86.3126
2.28407	86.4071
2.28306	86.3415
2.28206	86.3702
2.28105	86.4179
2.28005	86.4649
2.27905	86.4549
2.27805	86.3733
2.27705	86.4347
2.27605	86.4455
2.27505	86.4614
2.27405	86.4861
2.27305	86.405
2.27206	86.4058
2.27106	86.4583
2.27007	86.5674
2.26907	86.4592
2.26808	86.3503
2.26709	86.3481
2.2661	86.4396
2.26511	86.4575
2.26412	86.4076
2.26313	86.4155
2.26214	86.5442
2.26116	86.6722
2.26017	86.5357
2.25919	86.4133
2.2582	86.4593
2.25722	86.5298
2.25624	86.5402
2.25526	86.4121
2.25428	86.2688
2.2533	86.2786
2.25232	86.3839
2.25134	86.4778
2.25036	86.5729
2.24939	86.5631
2.24841	86.4253
2.24744	86.4171
2.24646	86.4382
2.24549	86.4461
2.24452	86.479
2.24355	86.3555
2.24257	86.2924
2.24161	86.4769
2.24064	86.5123
2.23967	86.4124
2.2387	86.4235
2.23774	86.4694
2.23677	86.4826
2.23581	86.4019
2.23484	86.3851
2.23388	86.3837
2.23292	86.4026
2.23196	86.3961
2.231	86.4353
2.23004	86.3494
2.22908	86.3772
2.22812	86.4635
2.22716	86.4807
2.22621	86.4502
2.22525	86.3929
2.2243	86.3751
2.22334	86.4606
2.22239	86.5941
2.22144	86.45
2.22049	86.2167
2.21953	86.2415
2.21859	86.4239
2.21764	86.468
2.21669	86.4126
2.21574	86.4736
2.21479	86.5941
2.21385	86.6038
2.2129	86.4759
2.21196	86.3186
2.21102	86.3033
2.21007	86.4439
2.20913	86.353
2.20819	86.312
2.20725	86.2829
2.20631	86.2547
2.20537	86.3078
2.20444	86.38
2.2035	86.5046
2.20256	86.4328
2.20163	86.3755
2.20069	86.4849
2.19976	86.4857
2.19883	86.4245
2.19789	86.4324
2.19696	86.3791
2.19603	86.3717
2.1951	86.3902
2.19417	86.2083
2.19325	86.2883
2.19232	86.4479
2.19139	86.3678
2.19047	86.3488
2.18954	86.3343
2.18862	86.2709
2.18769	86.3928
2.18677	86.4826
2.18585	86.3595
2.18493	86.2658
2.18401	86.2891
2.18309	86.3015
2.18217	86.2403
2.18125	86.1435
2.18033	86.1828
2.17942	86.1838
2.1785	86.227
2.17759	86.2103
2.17667	86.1217
2.17576	86.0955
2.17485	86.2397
2.17393	86.3893
2.17302	86.2835
2.17211	86.264
2.1712	86.2159
2.17029	86.0696
2.16939	86.1678
2.16848	86.4038
2.16757	86.3104
2.16667	86.0869
2.16576	86.148
2.16486	86.3006
2.16395	86.1897
2.16305	86.0336
2.16215	86.0819
2.16125	86.092
2.16035	86.2608
2.15945	86.186
2.15855	86.0134
2.15765	86.0458
2.15675	86.1961
2.15586	86.0651
2.15496	86.0225
2.15406	86.1359
2.15317	86.1195
2.15228	85.9384
2.15138	85.9251
2.15049	85.9986
2.1496	86.0149
2.14871	85.9289
2.14782	85.8892
2.14693	85.8015
2.14604	85.8555
2.14515	85.994
2.14427	86.0115
2.14338	85.9419
2.14249	85.9657
2.14161	86.0448
2.14072	86.0452
2.13984	85.9024
2.13896	85.9521
2.13808	86.0235
2.13719	85.9509
2.13631	85.9313
2.13543	86.0261
2.13455	85.9773
2.13368	85.7916
2.1328	85.6533
2.13192	85.6003
2.13105	85.594
2.13017	85.7049
2.1293	85.715
2.12842	85.7921
2.12755	85.8266
2.12668	85.8033
2.1258	85.8772
2.12493	85.885
2.12406	85.7734
2.12319	85.712
2.12232	85.6776
2.12145	85.669
2.12059	85.6261
2.11972	85.6016
2.11885	85.5253
2.11799	85.5096
2.11712	85.6431
2.11626	85.6156
2.1154	85.5072
2.11453	85.5674
2.11367	85.5219
2.11281	85.5175
2.11195	85.7155
2.11109	85.8029
2.11023	85.6266
2.10937	85.366
2.10851	85.2959
2.10766	85.491
2.1068	85.4213
2.10594	85.2027
2.10509	85.2853
2.10423	85.3645
2.10338	85.353
2.10253	85.5239
2.10168	85.4984
2.10082	85.4552
2.09997	85.4573
2.09912	85.1999
2.09827	85.0464
2.09742	85.2908
2.09658	85.4729
2.09573	85.4072
2.09488	85.2748
2.09404	85.2426
2.09319	85.2374
2.09235	85.3434
2.0915	85.5387
2.09066	85.3219
2.08982	85.1114
2.08897	85.3103
2.08813	85.211
2.08729	84.8911
2.08645	84.9041
2.08561	85.1072
2.08477	85.1285
2.08394	85.1042
2.0831	85.2197
2.08226	85.1918
2.08143	85.2619
2.08059	85.2433
2.07976	85.1805
2.07892	84.94
2.07809	84.8397
2.07726	84.8353
2.07643	84.7761
2.07559	84.9855
2.07476	85.1108
2.07393	84.9319
2.0731	84.9498
2.07228	85.002
2.07145	84.9708
2.07062	84.9422
2.06979	84.9959
2.06897	85.3224
2.06814	85.2862
2.06732	85.0759
2.06649	84.9195
2.06567	84.8495
2.06485	84.9016
2.06403	84.8027
2.0632	84.6801
2.06238	84.707
2.06156	84.6038
2.06074	84.6224
2.05993	84.632
2.05911	84.7736
2.05829	84.8865
2.05747	84.8196
2.05666	84.6898
2.05584	84.5056
2.05503	84.421
2.05421	84.5385
2.0534	84.5649
2.05259	84.5093
2.05177	84.5551
2.05096	84.5515
2.05015	84.4955
2.04934	84.4151
2.04853	84.4055
2.04772	84.4165
2.04691	84.367
2.04611	84.4346
2.0453	84.4373
2.04449	84.3638
2.04369	84.2817
2.04288	84.1948
2.04208	84.276
2.04127	84.211
2.04047	84.0642
2.03967	84.0768
2.03886	84.1321
2.03806	84.2016
2.03726	84.1982
2.03646	83.9898
2.03566	83.872
2.03486	83.9401
2.03407	84.0334
2.03327	84.1663
2.03247	84.2799
2.03167	84.1939
2.03088	83.9742
2.03008	83.8474
2.02929	83.8803
2.0285	83.8034
2.0277	83.7387
2.02691	83.7651
2.02612	83.7615
2.02533	83.7371
2.02453	83.8077
2.02374	83.8352
2.02295	83.8246
2.02217	83.8006
2.02138	83.7285
2.02059	83.5774
2.0198	83.3905
2.01902	83.3896
2.01823	83.4714
2.01744	83.5189
2.01666	83.5196
2.01588	83.5011
2.01509	83.4073
2.01431	83.3364
2.01353	83.4845
2.01275	83.4259
2.01196	83.3114
2.01118	83.42
2.0104	83.4267
2.00963	83.3502
2.00885	83.2491
2.00807	83.2126
2.00729	83.2495
2.00651	83.2798
2.00574	83.1721
2.00496	83.2678
2.00419	83.3823
2.00341	83.1526
2.00264	83.0153
2.00187	83.061
2.00109	83.0859
2.00032	83.2109
