Name: Tourmaline-Mica Schist
Type: Rock
Class: Metamorphic
Subclass:  Schist 
Particle Size: Solid surface
Sample No.: Ward89.txt
Owner: JPL
Wavelength range:  IR 
Origin: Ward's Collection of American Rocks.  Sample locality - near Custer, Black Hills, South Dakota.  Collected by - JPL.
Collected by:  Ward's Natural Science
Description: A light-colored schistose rock composed of small flakes of
white mica, and grains of quartz.  Abundant black prismatic tourmaline
crystals are arranged more or less parallel to the schistosity.



Measurement: Hemispherical reflectance
First Column: X
Second Column: Y
X Units: Wavelength (micrometers)
Y Units: Reflectance (percent)
First X Value: 15.3871
Last X Value: 1.9998
Number of X Values: 2257
Additional information: None

15.3871   3.95562
15.3416   4.17807
15.2964   4.26005
15.2514   4.36458
15.2066   4.21464
15.1622   3.98420
15.1180   3.80124
15.0740   3.93714
15.0303   4.02760
14.9869   3.95526
14.9437   4.20432
14.9008   4.48226
14.8581   4.61081
14.8156   4.49094
14.7734   4.34595
14.7314   4.48780
14.6897   4.72389
14.6482   4.72682
14.6069   4.66653
14.5659   5.12014
14.5251   5.69067
14.4845   5.71885
14.4442   5.79116
14.4041   6.02994
14.3642   5.85042
14.3245   5.52993
14.2850   5.64919
14.2458   5.84093
14.2068   6.00869
14.1679   6.35630
14.1293   6.70303
14.0909   6.78887
14.0528   6.80001
14.0148   6.76596
13.9770   6.66097
13.9394   6.38555
13.9021   6.13089
13.8649   5.91292
13.8279   5.59968
13.7911   5.18587
13.7546   4.84404
13.7182   4.72281
13.6820   4.80479
13.6460   4.80632
13.6101   4.67727
13.5745   4.68604
13.5391   4.90742
13.5038   5.20811
13.4687   5.34069
13.4339   5.53427
13.3991   5.99665
13.3646   6.29918
13.3302   6.29099
13.2961   6.26533
13.2621   6.37944
13.2282   6.57247
13.1946   6.66837
13.1611   6.78607
13.1278   6.88909
13.0946   7.05282
13.0616   7.30968
13.0288   7.72995
12.9962   8.11954
12.9637   8.86001
12.9313   9.73209
12.8992  10.79770
12.8672  11.96390
12.8353  12.65410
12.8036  12.94990
12.7721  13.00550
12.7407  12.64350
12.7095  11.69810
12.6784  10.66530
12.6475  10.12660
12.6167   9.98041
12.5861  10.28330
12.5556  10.69240
12.5253  10.66130
12.4951  10.24020
12.4651   9.61849
12.4352   8.70277
12.4054   7.41342
12.3758   5.91852
12.3463   4.45822
12.3170   3.61745
12.2878   3.48533
12.2588   3.61236
12.2299   3.68032
12.2011   3.74711
12.1725   3.88896
12.1439   4.09176
12.1156   4.31829
12.0873   4.67426
12.0592   4.74168
12.0312   4.58277
12.0034   4.76566
11.9757   5.09500
11.9481   5.18606
11.9206   5.04000
11.8933   5.07296
11.8661   5.32141
11.8390   5.55076
11.8120   5.75035
11.7852   5.89821
11.7584   5.87170
11.7318   5.81596
11.7053   5.93627
11.6790   6.13364
11.6527   6.14661
11.6266   6.14140
11.6006   6.30764
11.5747   6.45299
11.5489   6.45396
11.5233   6.54881
11.4977   6.62563
11.4723   6.74302
11.4469   7.02514
11.4217   7.14886
11.3966   7.14934
11.3716   7.24545
11.3468   7.45428
11.3220   7.47443
11.2973   7.47430
11.2728   7.58331
11.2483   7.78035
11.2240   7.86368
11.1997   8.02932
11.1756   8.27273
11.1515   8.37344
11.1276   8.46771
11.1038   8.53597
11.0801   8.50954
11.0564   8.60627
11.0329   8.72331
11.0095   8.86605
10.9862   8.98007
10.9629   9.24265
10.9398   9.44378
10.9168   9.45419
10.8938   9.46832
10.8710   9.52420
10.8483   9.72922
10.8256   9.97563
10.8031  10.15220
10.7806  10.32630
10.7582  10.46070
10.7360  10.70070
10.7138  10.92250
10.6917  11.02740
10.6697  11.20450
10.6478  11.36350
10.6260  11.58570
10.6042  11.96580
10.5826  12.31140
10.5610  12.56160
10.5396  12.85520
10.5182  13.26740
10.4969  13.71940
10.4757  13.96390
10.4546  14.09990
10.4335  14.46050
10.4126  14.82330
10.3917  15.24400
10.3709  15.71620
10.3502  16.00770
10.3296  16.13540
10.3091  16.28890
10.2886  16.46760
10.2683  16.80830
10.2480  17.07890
10.2277  17.33220
10.2076  17.58820
10.1876  17.76750
10.1676  17.89570
10.1477  18.04040
10.1279  18.25180
10.1081  18.44320
10.0885  18.62600
10.0689  19.00210
10.0494  19.26150
10.0299  19.58000
10.0106  19.93870
 9.9913  20.11770
 9.9720  20.27910
 9.9529  20.44320
 9.9338  20.52470
 9.9148  20.65280
 9.8959  21.01020
 9.8771  21.50510
 9.8583  21.83530
 9.8396  22.06700
 9.8210  22.67210
 9.8024  23.40290
 9.7839  24.10920
 9.7655  24.78580
 9.7471  25.32080
 9.7288  25.86640
 9.7106  26.83800
 9.6925  27.63860
 9.6744  28.08780
 9.6564  28.48280
 9.6384  28.77030
 9.6205  29.14100
 9.6027  29.63510
 9.5850  29.97440
 9.5673  30.23150
 9.5497  30.44830
 9.5321  30.78690
 9.5146  31.39510
 9.4972  31.78760
 9.4798  32.16420
 9.4625  32.60640
 9.4453  33.03680
 9.4281  33.59620
 9.4110  34.23790
 9.3940  34.88940
 9.3770  35.47850
 9.3600  35.68660
 9.3432  35.54870
 9.3264  35.29470
 9.3096  35.02100
 9.2930  34.60510
 9.2763  34.24020
 9.2598  33.88210
 9.2432  33.74030
 9.2268  33.84430
 9.2104  34.21420
 9.1941  34.70050
 9.1778  35.15090
 9.1616  35.61780
 9.1454  36.10580
 9.1293  36.58400
 9.1133  37.17490
 9.0973  37.67770
 9.0814  37.95080
 9.0655  37.99050
 9.0497  38.02990
 9.0339  38.13920
 9.0182  38.18570
 9.0025  37.86070
 8.9870  37.44700
 8.9714  37.04420
 8.9559  36.64450
 8.9405  36.12800
 8.9251  35.51640
 8.9097  34.81200
 8.8945  34.13860
 8.8792  33.40760
 8.8641  32.64220
 8.8489  31.81680
 8.8338  31.02130
 8.8188  30.13990
 8.8039  29.37370
 8.7889  28.77280
 8.7741  28.08570
 8.7592  27.33070
 8.7445  26.86720
 8.7297  26.33000
 8.7151  25.61760
 8.7005  24.95390
 8.6859  24.12160
 8.6714  22.70180
 8.6569  20.90130
 8.6425  19.17650
 8.6281  18.35320
 8.6137  19.21110
 8.5994  20.92300
 8.5852  22.40770
 8.5710  23.38390
 8.5569  24.09110
 8.5428  24.52140
 8.5287  24.64300
 8.5147  24.75660
 8.5008  24.92610
 8.4869  24.92570
 8.4730  24.71300
 8.4592  24.57640
 8.4454  24.55980
 8.4316  24.62220
 8.4180  24.68130
 8.4043  24.61450
 8.3907  24.50780
 8.3772  24.36520
 8.3637  24.24530
 8.3502  24.16910
 8.3368  24.04600
 8.3234  23.94150
 8.3100  23.73330
 8.2967  23.69860
 8.2835  23.62950
 8.2703  23.47000
 8.2571  23.35760
 8.2440  23.33320
 8.2309  23.08150
 8.2179  22.82750
 8.2049  22.48540
 8.1919  22.08630
 8.1790  21.55360
 8.1661  20.92800
 8.1532  20.00880
 8.1404  18.76110
 8.1277  17.59170
 8.1150  16.52390
 8.1023  15.42310
 8.0897  14.46550
 8.0770  13.61500
 8.0645  12.68600
 8.0520  11.82000
 8.0395  11.03690
 8.0270  10.35920
 8.0146   9.87084
 8.0023   9.30142
 7.9899   8.65344
 7.9776   8.04125
 7.9654   7.63963
 7.9532   7.37972
 7.9410   7.00749
 7.9288   6.51533
 7.9167   6.12480
 7.9047   5.83660
 7.8926   5.67278
 7.8807   5.40828
 7.8687   5.20538
 7.8568   5.06901
 7.8449   4.90929
 7.8330   4.71268
 7.8212   4.57316
 7.8094   4.55345
 7.7977   4.43151
 7.7860   4.41280
 7.7743   4.49569
 7.7627   4.46415
 7.7511   4.34296
 7.7395   4.26334
 7.7280   4.11473
 7.7165   3.94144
 7.7050   3.86371
 7.6936   3.83181
 7.6822   3.81063
 7.6708   3.71919
 7.6595   3.51502
 7.6482   3.37091
 7.6369   3.32348
 7.6257   3.26965
 7.6145   3.21021
 7.6033   3.13361
 7.5922   3.11242
 7.5811   3.08226
 7.5700   2.90952
 7.5590   2.84127
 7.5480   2.85746
 7.5370   2.87675
 7.5261   2.86805
 7.5152   2.95024
 7.5043   2.97794
 7.4935   2.97953
 7.4826   3.07051
 7.4718   3.13334
 7.4611   3.14254
 7.4504   3.19013
 7.4397   3.27448
 7.4290   3.29260
 7.4184   3.29477
 7.4078   3.29260
 7.3972   3.22831
 7.3867   3.18144
 7.3762   3.06892
 7.3657   2.93489
 7.3553   2.89537
 7.3449   2.86270
 7.3345   2.73002
 7.3241   2.61623
 7.3138   2.48924
 7.3035   2.33297
 7.2932   2.23708
 7.2830   2.25086
 7.2727   2.28195
 7.2626   2.10307
 7.2524   1.99749
 7.2423   2.03393
 7.2322   2.02551
 7.2221   1.92600
 7.2120   1.85370
 7.2020   1.74647
 7.1921   1.71984
 7.1821   1.68337
 7.1722   1.59516
 7.1623   1.62996
 7.1524   1.61201
 7.1425   1.52541
 7.1327   1.54846
 7.1229   1.61246
 7.1131   1.55112
 7.1034   1.59633
 7.0937   1.65528
 7.0840   1.69067
 7.0743   1.73675
 7.0647   1.74184
 7.0551   1.66131
 7.0455   1.62720
 7.0359   1.56568
 7.0264   1.65399
 7.0169   1.68082
 7.0074   1.63277
 6.9979   1.63569
 6.9885   1.69934
 6.9791   1.61395
 6.9697   1.55682
 6.9604   1.60465
 6.9510   1.63539
 6.9417   1.71662
 6.9324   1.74292
 6.9232   1.79487
 6.9140   1.83576
 6.9047   1.75473
 6.8956   1.77538
 6.8864   1.85028
 6.8773   1.90074
 6.8682   1.87419
 6.8591   1.84690
 6.8500   1.87549
 6.8410   1.85067
 6.8320   1.87156
 6.8230   1.90426
 6.8140   1.96232
 6.8051   2.00396
 6.7962   2.06239
 6.7873   2.05931
 6.7784   2.01593
 6.7695   2.09914
 6.7607   2.13293
 6.7519   2.06703
 6.7431   1.96744
 6.7344   1.97923
 6.7256   2.05888
 6.7169   2.07265
 6.7082   2.05868
 6.6996   2.02487
 6.6909   2.11682
 6.6823   2.25705
 6.6737   2.22578
 6.6651   2.17512
 6.6566   2.18030
 6.6480   2.28156
 6.6395   2.38611
 6.6310   2.39368
 6.6226   2.35579
 6.6141   2.29909
 6.6057   2.27356
 6.5973   2.33655
 6.5889   2.33747
 6.5805   2.37307
 6.5722   2.51634
 6.5639   2.48150
 6.5556   2.35094
 6.5473   2.30831
 6.5390   2.38178
 6.5308   2.45860
 6.5226   2.53965
 6.5144   2.62061
 6.5062   2.64046
 6.4981   2.56260
 6.4900   2.53449
 6.4818   2.49126
 6.4737   2.41449
 6.4657   2.50208
 6.4576   2.64254
 6.4496   2.67527
 6.4416   2.66762
 6.4336   2.72127
 6.4256   2.77864
 6.4177   2.82171
 6.4097   2.73645
 6.4018   2.63576
 6.3939   2.67819
 6.3860   2.71664
 6.3782   2.65310
 6.3704   2.54968
 6.3625   2.63059
 6.3547   2.74962
 6.3470   2.75003
 6.3392   2.77751
 6.3315   2.82416
 6.3237   2.70939
 6.3160   2.61429
 6.3083   2.67263
 6.3007   2.75706
 6.2930   2.74846
 6.2854   2.74777
 6.2778   2.75923
 6.2702   2.74766
 6.2626   2.77507
 6.2551   2.79820
 6.2476   2.83823
 6.2400   2.73665
 6.2325   2.60792
 6.2251   2.60813
 6.2176   2.71855
 6.2101   2.75921
 6.2027   2.74457
 6.1953   2.82469
 6.1879   2.95749
 6.1805   2.87618
 6.1732   2.81291
 6.1658   2.82533
 6.1585   2.76125
 6.1512   2.76160
 6.1439   2.79149
 6.1367   2.83801
 6.1294   2.89587
 6.1222   2.89029
 6.1149   2.95611
 6.1077   2.90804
 6.1006   2.83632
 6.0934   2.75040
 6.0862   2.75629
 6.0791   2.82753
 6.0720   2.82702
 6.0649   2.94574
 6.0578   2.99636
 6.0507   3.04603
 6.0437   2.96850
 6.0366   2.88496
 6.0296   2.93416
 6.0226   2.94879
 6.0156   2.85398
 6.0087   2.85026
 6.0017   2.83357
 5.9948   2.83987
 5.9878   2.83630
 5.9809   2.73301
 5.9740   2.73062
 5.9672   2.77519
 5.9603   2.87173
 5.9535   2.88113
 5.9466   2.67655
 5.9398   2.64369
 5.9330   2.74163
 5.9262   2.82058
 5.9195   2.87903
 5.9127   2.86730
 5.9060   2.89917
 5.8993   2.94191
 5.8926   2.92087
 5.8859   2.91023
 5.8792   2.92144
 5.8726   2.98250
 5.8659   3.06462
 5.8593   2.98350
 5.8527   3.02007
 5.8461   3.13856
 5.8395   3.18477
 5.8329   3.08683
 5.8264   3.09311
 5.8198   3.12128
 5.8133   3.13169
 5.8068   3.21681
 5.8003   3.28791
 5.7938   3.33014
 5.7874   3.28855
 5.7809   3.25530
 5.7745   3.33201
 5.7680   3.40423
 5.7616   3.38184
 5.7552   3.30915
 5.7489   3.27474
 5.7425   3.30024
 5.7361   3.32772
 5.7298   3.39052
 5.7235   3.40591
 5.7172   3.39383
 5.7109   3.36143
 5.7046   3.33520
 5.6983   3.37291
 5.6921   3.40019
 5.6858   3.43064
 5.6796   3.39834
 5.6734   3.29339
 5.6672   3.33808
 5.6610   3.38489
 5.6548   3.35821
 5.6487   3.37413
 5.6425   3.36895
 5.6364   3.30970
 5.6303   3.29733
 5.6242   3.37133
 5.6181   3.41464
 5.6120   3.40332
 5.6059   3.42076
 5.5999   3.39300
 5.5938   3.32651
 5.5878   3.36561
 5.5818   3.41497
 5.5758   3.39725
 5.5698   3.39893
 5.5638   3.40425
 5.5578   3.36305
 5.5519   3.30242
 5.5460   3.35279
 5.5400   3.45690
 5.5341   3.58792
 5.5282   3.59916
 5.5223   3.50443
 5.5164   3.41369
 5.5106   3.43257
 5.5047   3.49574
 5.4989   3.55526
 5.4931   3.59468
 5.4873   3.65803
 5.4815   3.62980
 5.4757   3.62429
 5.4699   3.75078
 5.4641   3.77403
 5.4584   3.81549
 5.4527   3.81293
 5.4469   3.78827
 5.4412   3.77758
 5.4355   3.76608
 5.4298   3.79653
 5.4241   3.81670
 5.4185   3.80379
 5.4128   3.74815
 5.4072   3.72426
 5.4015   3.71080
 5.3959   3.70045
 5.3903   3.67464
 5.3847   3.58122
 5.3791   3.65728
 5.3735   3.67934
 5.3680   3.65891
 5.3624   3.70194
 5.3569   3.74332
 5.3514   3.75905
 5.3458   3.73827
 5.3403   3.74208
 5.3348   3.75866
 5.3294   3.77983
 5.3239   3.75235
 5.3184   3.63798
 5.3130   3.59808
 5.3075   3.62345
 5.3021   3.70334
 5.2967   3.78615
 5.2913   3.84137
 5.2859   3.85301
 5.2805   3.81080
 5.2751   3.77293
 5.2698   3.79742
 5.2644   3.89307
 5.2591   3.96117
 5.2538   3.98515
 5.2485   3.94303
 5.2431   3.99706
 5.2378   4.11866
 5.2326   4.15722
 5.2273   4.24046
 5.2220   4.31836
 5.2168   4.30832
 5.2115   4.26703
 5.2063   4.23530
 5.2011   4.33740
 5.1959   4.38056
 5.1907   4.42218
 5.1855   4.57924
 5.1803   4.54894
 5.1751   4.60215
 5.1700   4.69025
 5.1648   4.65104
 5.1597   4.65065
 5.1545   4.69847
 5.1494   4.63580
 5.1443   4.54803
 5.1392   4.53621
 5.1341   4.56653
 5.1291   4.59303
 5.1240   4.65265
 5.1189   4.72148
 5.1139   4.74220
 5.1088   4.72751
 5.1038   4.72923
 5.0988   4.67937
 5.0938   4.72287
 5.0888   4.75740
 5.0838   4.68982
 5.0788   4.63857
 5.0738   4.70102
 5.0689   4.69566
 5.0639   4.56984
 5.0590   4.57526
 5.0541   4.56427
 5.0491   4.55304
 5.0442   4.62852
 5.0393   4.69601
 5.0344   4.74151
 5.0296   4.72584
 5.0247   4.73922
 5.0198   4.67796
 5.0150   4.62027
 5.0101   4.74130
 5.0053   4.79024
 5.0004   4.71984
 4.9956   4.71964
 4.9908   4.80736
 4.9860   4.85990
 4.9812   4.77973
 4.9765   4.69244
 4.9717   4.71344
 4.9669   4.74477
 4.9622   4.77805
 4.9574   4.86654
 4.9527   4.89349
 4.9480   4.94419
 4.9432   5.04675
 4.9385   5.01249
 4.9338   5.01897
 4.9291   5.07213
 4.9245   5.10674
 4.9198   5.07553
 4.9151   5.12903
 4.9105   5.22828
 4.9058   5.30031
 4.9012   5.35921
 4.8966   5.43904
 4.8919   5.51355
 4.8873   5.48866
 4.8827   5.53116
 4.8781   5.58241
 4.8736   5.68892
 4.8690   5.78788
 4.8644   5.82250
 4.8599   5.76755
 4.8553   5.73398
 4.8508   5.84886
 4.8462   5.96915
 4.8417   6.05424
 4.8372   6.11653
 4.8327   6.10004
 4.8282   6.10576
 4.8237   6.15660
 4.8192   6.14598
 4.8147   6.19625
 4.8103   6.20361
 4.8058   6.14693
 4.8014   6.17412
 4.7969   6.21645
 4.7925   6.17472
 4.7881   6.22478
 4.7836   6.34359
 4.7792   6.43434
 4.7748   6.45038
 4.7704   6.44753
 4.7660   6.49946
 4.7617   6.61997
 4.7573   6.65274
 4.7530   6.61612
 4.7486   6.57458
 4.7443   6.60764
 4.7399   6.62880
 4.7356   6.64963
 4.7313   6.73358
 4.7270   6.82658
 4.7226   6.84683
 4.7184   6.85962
 4.7141   6.90191
 4.7098   6.93403
 4.7055   6.88386
 4.7012   6.81889
 4.6970   6.95723
 4.6927   7.03981
 4.6885   6.93668
 4.6842   6.89557
 4.6800   6.94446
 4.6758   6.98724
 4.6716   7.09646
 4.6674   7.15198
 4.6632   7.25043
 4.6590   7.25835
 4.6548   7.19154
 4.6506   7.33136
 4.6465   7.52310
 4.6423   7.47042
 4.6382   7.42153
 4.6340   7.43727
 4.6299   7.48210
 4.6258   7.56292
 4.6216   7.57563
 4.6175   7.54387
 4.6134   7.57519
 4.6093   7.67671
 4.6052   7.75411
 4.6011   7.72584
 4.5971   7.71044
 4.5930   7.70377
 4.5889   7.70139
 4.5849   7.71494
 4.5808   7.74085
 4.5768   7.71795
 4.5727   7.75152
 4.5687   7.78671
 4.5647   7.72445
 4.5607   7.71116
 4.5567   7.66817
 4.5526   7.62819
 4.5487   7.66218
 4.5447   7.60557
 4.5407   7.59720
 4.5367   7.57234
 4.5328   7.49528
 4.5288   7.49393
 4.5248   7.41734
 4.5209   7.49332
 4.5170   7.57999
 4.5130   7.50560
 4.5091   7.41081
 4.5052   7.34714
 4.5013   7.31294
 4.4974   7.29292
 4.4935   7.26390
 4.4896   7.23215
 4.4857   7.21890
 4.4818   7.21066
 4.4779   7.24419
 4.4741   7.19191
 4.4702   7.17631
 4.4664   7.26821
 4.4625   7.43447
 4.4587   7.39160
 4.4549   7.36750
 4.4510   7.38864
 4.4472   7.32166
 4.4434   7.31903
 4.4396   7.36524
 4.4358   7.40679
 4.4320   7.51563
 4.4282   7.54043
 4.4245   7.43565
 4.4207   7.40453
 4.4169   7.45949
 4.4132   7.52025
 4.4094   7.60086
 4.4057   7.66201
 4.4019   7.73247
 4.3982   7.76604
 4.3945   7.79002
 4.3907   7.83896
 4.3870   7.79321
 4.3833   7.79463
 4.3796   7.85263
 4.3759   7.80176
 4.3722   7.88415
 4.3685   7.96844
 4.3649   7.97664
 4.3612   8.03014
 4.3575   7.98714
 4.3539   8.00713
 4.3502   8.01553
 4.3466   7.90740
 4.3429   7.93150
 4.3393   7.99371
 4.3357   7.98778
 4.3320   8.03838
 4.3284   8.06077
 4.3248   8.00837
 4.3212   7.96829
 4.3176   7.97242
 4.3140   7.96600
 4.3105   7.82954
 4.3069   7.70334
 4.3033   7.73761
 4.2997   7.73010
 4.2962   7.66644
 4.2926   7.65286
 4.2890   7.66206
 4.2855   7.57338
 4.2820   7.55667
 4.2784   7.53055
 4.2749   7.55719
 4.2714   7.59863
 4.2679   7.70173
 4.2644   7.92384
 4.2609   8.21209
 4.2574   8.26651
 4.2539   8.04241
 4.2504   7.79258
 4.2469   7.55994
 4.2434   7.59904
 4.2400   7.60012
 4.2365   7.56919
 4.2330   7.60488
 4.2296   7.67785
 4.2261   7.73496
 4.2227   7.84798
 4.2193   7.94998
 4.2158   8.09816
 4.2124   8.16860
 4.2090   8.45805
 4.2056   8.68209
 4.2022   8.67888
 4.1988   8.69477
 4.1954   8.77779
 4.1920   8.82639
 4.1886   8.97688
 4.1852   9.08784
 4.1818   9.11516
 4.1785   9.11019
 4.1751   9.10180
 4.1717   9.15231
 4.1684   9.26142
 4.1650   9.27060
 4.1617   9.27096
 4.1584   9.26998
 4.1550   9.30330
 4.1517   9.44136
 4.1484   9.42809
 4.1451   9.42613
 4.1418   9.48167
 4.1384   9.48733
 4.1351   9.56849
 4.1319   9.67819
 4.1286   9.65326
 4.1253   9.62588
 4.1220   9.73282
 4.1187   9.74888
 4.1155   9.78983
 4.1122   9.87173
 4.1089   9.86964
 4.1057   9.98948
 4.1024  10.03880
 4.0992  10.06400
 4.0959  10.16080
 4.0927  10.17150
 4.0895  10.13120
 4.0863  10.01900
 4.0830  10.08970
 4.0798  10.26560
 4.0766  10.38090
 4.0734  10.30720
 4.0702  10.23970
 4.0670  10.32540
 4.0639  10.37890
 4.0607  10.38250
 4.0575  10.35800
 4.0543  10.26960
 4.0511  10.20150
 4.0480  10.33810
 4.0448  10.56470
 4.0417  10.62280
 4.0385  10.37470
 4.0354  10.19890
 4.0323  10.31790
 4.0291  10.23970
 4.0260  10.18040
 4.0229  10.24120
 4.0197  10.28970
 4.0166  10.30560
 4.0135  10.32300
 4.0104  10.28030
 4.0073  10.17060
 4.0042  10.29720
 4.0011  10.25440
 3.9981  10.07260
 3.9950  10.05840
 3.9919  10.06140
 3.9888   9.97605
 3.9857  10.00030
 3.9827  10.20650
 3.9796  10.20860
 3.9766  10.12340
 3.9735  10.19310
 3.9705  10.29550
 3.9675  10.28490
 3.9644  10.11310
 3.9614   9.90640
 3.9584   9.98805
 3.9554  10.18980
 3.9523  10.22710
 3.9493  10.18970
 3.9463  10.14040
 3.9433  10.01910
 3.9403   9.94788
 3.9373  10.00590
 3.9343  10.08390
 3.9314  10.26610
 3.9284  10.25230
 3.9254  10.17480
 3.9224  10.10240
 3.9195  10.01600
 3.9165  10.04580
 3.9136  10.04010
 3.9106   9.94892
 3.9077   9.90558
 3.9047   9.90082
 3.9018   9.88721
 3.8988   9.87968
 3.8959   9.85976
 3.8930   9.76716
 3.8901   9.66798
 3.8872   9.59137
 3.8842   9.57683
 3.8813   9.60154
 3.8784   9.59912
 3.8755   9.64188
 3.8726   9.66429
 3.8697   9.50610
 3.8669   9.40855
 3.8640   9.43139
 3.8611   9.42416
 3.8582   9.40328
 3.8554   9.36562
 3.8525   9.16324
 3.8496   9.13939
 3.8468   9.27055
 3.8439   9.40540
 3.8411   9.39070
 3.8382   9.33041
 3.8354   9.30338
 3.8326   9.20936
 3.8297   9.19247
 3.8269   9.32491
 3.8241   9.38171
 3.8213   9.25974
 3.8185   9.26682
 3.8157   9.42032
 3.8128   9.53942
 3.8100   9.40974
 3.8072   9.33974
 3.8045   9.32111
 3.8017   9.42138
 3.7989   9.64576
 3.7961   9.70754
 3.7933   9.67160
 3.7906   9.57702
 3.7878   9.54875
 3.7850   9.52066
 3.7822   9.46009
 3.7795   9.63521
 3.7767   9.69761
 3.7740   9.61296
 3.7713   9.58173
 3.7685   9.60335
 3.7658   9.66305
 3.7630   9.64368
 3.7603   9.64373
 3.7576   9.89671
 3.7549  10.06440
 3.7521   9.88959
 3.7494   9.75854
 3.7467   9.82695
 3.7440   9.83168
 3.7413   9.71452
 3.7386   9.68871
 3.7359   9.70956
 3.7332   9.88065
 3.7306  10.00810
 3.7279   9.99763
 3.7252  10.03380
 3.7225  10.02590
 3.7199   9.97512
 3.7172   9.87474
 3.7145   9.90739
 3.7119   9.95241
 3.7092   9.94693
 3.7066   9.94295
 3.7039  10.12670
 3.7013  10.20310
 3.6986  10.02710
 3.6960   9.96390
 3.6934  10.03940
 3.6907  10.05300
 3.6881  10.02780
 3.6855   9.99188
 3.6829  10.07360
 3.6803  10.22200
 3.6776  10.31450
 3.6750  10.32960
 3.6724  10.28410
 3.6698  10.38280
 3.6672  10.44260
 3.6646  10.57500
 3.6620  10.66660
 3.6595  10.53140
 3.6569  10.61420
 3.6543  10.72080
 3.6517  10.55880
 3.6492  10.48420
 3.6466  10.48820
 3.6440  10.51770
 3.6415  10.58570
 3.6389  10.75840
 3.6364  10.81960
 3.6338  10.75940
 3.6313  10.74870
 3.6287  10.90080
 3.6262  10.90020
 3.6237  10.99900
 3.6211  11.22200
 3.6186  11.23170
 3.6161  11.03680
 3.6136  11.00330
 3.6111  10.97640
 3.6085  11.03180
 3.6060  11.08810
 3.6035  11.27480
 3.6010  11.42730
 3.5985  11.37270
 3.5960  11.31650
 3.5935  11.22740
 3.5910  11.23330
 3.5886  11.30730
 3.5861  11.47060
 3.5836  11.62180
 3.5811  11.61170
 3.5787  11.46200
 3.5762  11.38860
 3.5737  11.40350
 3.5713  11.22730
 3.5688  11.18040
 3.5663  11.33930
 3.5639  11.34580
 3.5614  11.30900
 3.5590  11.37560
 3.5566  11.53390
 3.5541  11.53360
 3.5517  11.33980
 3.5493  11.28440
 3.5468  11.44390
 3.5444  11.50450
 3.5420  11.36220
 3.5396  11.31920
 3.5372  11.42720
 3.5347  11.42770
 3.5323  11.39390
 3.5299  11.38010
 3.5275  11.39960
 3.5251  11.37070
 3.5227  11.32500
 3.5203  11.37490
 3.5180  11.43760
 3.5156  11.34640
 3.5132  11.07440
 3.5108  11.02800
 3.5084  11.27840
 3.5061  11.48610
 3.5037  11.50690
 3.5013  11.45880
 3.4990  11.49680
 3.4966  11.56570
 3.4943  11.41600
 3.4919  11.21390
 3.4895  11.20400
 3.4872  11.46300
 3.4849  11.43410
 3.4825  11.25030
 3.4802  11.33550
 3.4778  11.51030
 3.4755  11.63330
 3.4732  11.66210
 3.4709  11.61470
 3.4685  11.59400
 3.4662  11.50360
 3.4639  11.36580
 3.4616  11.28980
 3.4593  11.31240
 3.4570  11.45480
 3.4547  11.45660
 3.4524  11.44970
 3.4501  11.33130
 3.4478  11.20780
 3.4455  11.12550
 3.4432  11.33400
 3.4409  11.52400
 3.4386  11.37810
 3.4364  11.17580
 3.4341  11.06690
 3.4318  10.99470
 3.4295  11.09080
 3.4273  11.07180
 3.4250  11.00510
 3.4228  11.14100
 3.4205  11.18500
 3.4182  11.25040
 3.4160  11.22200
 3.4137  11.04030
 3.4115  11.06700
 3.4093  11.13920
 3.4070  11.16340
 3.4048  11.27240
 3.4025  11.29000
 3.4003  11.24200
 3.3981  11.16840
 3.3958  11.05750
 3.3936  11.12460
 3.3914  11.39250
 3.3892  11.30370
 3.3870  11.01630
 3.3848  11.03300
 3.3826  11.27350
 3.3804  11.13890
 3.3782  10.92370
 3.3760  10.95330
 3.3738  10.90730
 3.3716  10.80090
 3.3694  11.08270
 3.3672  11.23530
 3.3650  11.11990
 3.3628  10.93500
 3.3606  10.98320
 3.3585  11.10790
 3.3563  11.12620
 3.3541  11.26000
 3.3520  11.13360
 3.3498  10.89740
 3.3476  11.00860
 3.3455  11.21680
 3.3433  10.99270
 3.3411  10.83450
 3.3390  10.92730
 3.3369  11.00240
 3.3347  11.02020
 3.3326  10.96390
 3.3304  11.02710
 3.3283  10.99370
 3.3262  10.67620
 3.3240  10.62760
 3.3219  10.81560
 3.3198  10.74150
 3.3176  10.63240
 3.3155  10.53360
 3.3134  10.70010
 3.3113  10.77550
 3.3092  10.73660
 3.3071  10.80980
 3.3049  10.90950
 3.3028  10.59740
 3.3007  10.41380
 3.2986  10.51080
 3.2965  10.46930
 3.2944  10.27120
 3.2924  10.40700
 3.2903  10.57580
 3.2882  10.68500
 3.2861  10.58940
 3.2840  10.40040
 3.2819  10.36860
 3.2799  10.59370
 3.2778  10.69300
 3.2757  10.57040
 3.2736  10.62270
 3.2716  10.88920
 3.2695  10.76740
 3.2675  10.62760
 3.2654  10.71240
 3.2634  10.74440
 3.2613  10.50590
 3.2593  10.35780
 3.2572  10.20910
 3.2552  10.14780
 3.2531  10.32080
 3.2511  10.39050
 3.2490  10.36230
 3.2470  10.48790
 3.2450  10.60180
 3.2429  10.59740
 3.2409  10.53030
 3.2389  10.46190
 3.2369  10.32780
 3.2348  10.18920
 3.2328  10.27890
 3.2308  10.60530
 3.2288  10.67840
 3.2268  10.51390
 3.2248  10.41990
 3.2228  10.52370
 3.2208  10.65690
 3.2188  10.72400
 3.2168  10.63130
 3.2148  10.28150
 3.2128  10.18900
 3.2108  10.33430
 3.2088  10.43800
 3.2068  10.50330
 3.2049  10.36260
 3.2029  10.25460
 3.2009  10.12090
 3.1989  10.06320
 3.1970  10.25150
 3.1950  10.36530
 3.1930  10.26310
 3.1911  10.08670
 3.1891  10.12290
 3.1871  10.28830
 3.1852  10.30600
 3.1832  10.43310
 3.1813  10.40400
 3.1793  10.34240
 3.1774  10.29880
 3.1754  10.12080
 3.1735  10.14540
 3.1715  10.23240
 3.1696  10.00600
 3.1677   9.93148
 3.1657  10.10590
 3.1638  10.02230
 3.1619   9.94415
 3.1599  10.12670
 3.1580  10.52030
 3.1561  10.50010
 3.1542  10.07830
 3.1523   9.79193
 3.1503   9.68937
 3.1484   9.86111
 3.1465   9.87213
 3.1446   9.53718
 3.1427   9.50241
 3.1408   9.67870
 3.1389   9.85200
 3.1370  10.19710
 3.1351  10.14220
 3.1332  10.04600
 3.1313   9.72564
 3.1294   9.10608
 3.1275   9.04440
 3.1257   9.29629
 3.1238   9.37656
 3.1219   9.41122
 3.1200   9.59484
 3.1181   9.69672
 3.1163   9.72599
 3.1144   9.94314
 3.1125   9.87779
 3.1107   9.62037
 3.1088   9.51497
 3.1069   9.16248
 3.1051   8.95445
 3.1032   9.32268
 3.1014   9.38170
 3.0995   9.39993
 3.0976   9.20075
 3.0958   9.09361
 3.0940   9.14598
 3.0921   9.56212
 3.0903   9.30158
 3.0884   8.84321
 3.0866   8.95677
 3.0848   8.96606
 3.0829   8.79005
 3.0811   8.71471
 3.0793   8.77230
 3.0774   8.76726
 3.0756   8.68439
 3.0738   8.62837
 3.0720   8.72457
 3.0701   8.88232
 3.0683   8.79197
 3.0665   8.53058
 3.0647   8.66867
 3.0629   8.86695
 3.0611   8.64739
 3.0593   8.32266
 3.0575   8.73474
 3.0557   9.04512
 3.0539   9.05545
 3.0521   9.02236
 3.0503   9.03440
 3.0485   8.94942
 3.0467   8.65842
 3.0449   7.96652
 3.0431   8.17404
 3.0413   8.88157
 3.0396   9.15016
 3.0378   8.65204
 3.0360   8.36650
 3.0342   8.30363
 3.0324   8.31506
 3.0307   8.48527
 3.0289   8.50321
 3.0271   8.76734
 3.0254   8.85137
 3.0236   8.80340
 3.0218   8.56854
 3.0201   8.28313
 3.0183   8.47189
 3.0166   8.53543
 3.0148   8.47643
 3.0130   8.40424
 3.0113   8.21868
 3.0096   8.22170
 3.0078   8.20132
 3.0061   8.12157
 3.0043   8.19571
 3.0026   8.40533
 3.0008   8.41248
 2.9991   8.44848
 2.9974   8.86353
 2.9956   8.82512
 2.9939   8.48937
 2.9922   8.40086
 2.9905   8.63148
 2.9887   8.91355
 2.9870   8.85629
 2.9853   8.73594
 2.9836   8.84160
 2.9819   8.95672
 2.9802   8.90945
 2.9784   8.64106
 2.9767   8.59397
 2.9750   8.54484
 2.9733   8.55261
 2.9716   8.53364
 2.9699   8.75016
 2.9682   8.78927
 2.9665   8.49352
 2.9648   8.51414
 2.9631   8.82504
 2.9614   8.92700
 2.9597   8.47882
 2.9581   8.27344
 2.9564   8.11630
 2.9547   8.35600
 2.9530   8.76637
 2.9513   8.95879
 2.9496   8.83106
 2.9480   8.59996
 2.9463   8.23723
 2.9446   8.76744
 2.9429   9.07752
 2.9413   8.98610
 2.9396   9.24925
 2.9379   9.01852
 2.9363   8.46555
 2.9346   8.33750
 2.9330   8.44298
 2.9313   8.53091
 2.9296   8.77694
 2.9280   8.86205
 2.9263   8.84502
 2.9247   8.92642
 2.9230   8.93659
 2.9214   8.53083
 2.9197   8.33584
 2.9181   8.39577
 2.9165   8.42913
 2.9148   8.68244
 2.9132   8.77101
 2.9116   8.65665
 2.9099   9.19375
 2.9083   9.23068
 2.9067   8.69379
 2.9050   8.61776
 2.9034   8.69676
 2.9018   8.97242
 2.9002   8.78854
 2.8985   8.14596
 2.8969   8.28626
 2.8953   7.99069
 2.8937   7.56451
 2.8921   7.92347
 2.8905   8.21496
 2.8888   8.25662
 2.8872   8.24378
 2.8856   8.00423
 2.8840   7.70410
 2.8824   7.26335
 2.8808   7.21229
 2.8792   7.56928
 2.8776   8.00431
 2.8760   7.76767
 2.8744   7.53439
 2.8728   7.67291
 2.8712   7.75498
 2.8697   7.65938
 2.8681   7.60345
 2.8665   7.58840
 2.8649   7.51397
 2.8633   7.56179
 2.8617   7.58782
 2.8602   7.61555
 2.8586   7.83841
 2.8570   7.90518
 2.8554   7.60362
 2.8539   7.13971
 2.8523   7.29300
 2.8507   7.82451
 2.8492   7.98647
 2.8476   8.04375
 2.8460   7.90844
 2.8445   7.64044
 2.8429   7.71575
 2.8413   7.91343
 2.8398   7.74360
 2.8382   7.71375
 2.8367   7.77157
 2.8351   7.70043
 2.8336   7.89692
 2.8320   8.14476
 2.8305   8.08280
 2.8289   8.20055
 2.8274   8.33249
 2.8259   7.91509
 2.8243   7.75837
 2.8228   7.88116
 2.8213   7.97043
 2.8197   7.92105
 2.8182   7.41104
 2.8167   7.16046
 2.8151   7.46016
 2.8136   7.68950
 2.8121   7.51470
 2.8106   7.24909
 2.8090   7.47105
 2.8075   7.39393
 2.8060   7.26739
 2.8045   7.06795
 2.8030   6.90077
 2.8014   7.42781
 2.7999   8.16927
 2.7984   8.35989
 2.7969   8.15694
 2.7954   7.45987
 2.7939   7.16513
 2.7924   7.60266
 2.7909   7.49388
 2.7894   7.16069
 2.7879   7.27935
 2.7864   7.09072
 2.7849   6.64405
 2.7834   6.17300
 2.7819   6.65215
 2.7804   7.33371
 2.7789   7.39234
 2.7774   6.96662
 2.7759   6.79584
 2.7745   7.13620
 2.7730   6.79976
 2.7715   6.72891
 2.7700   7.07189
 2.7685   7.49445
 2.7671   7.56250
 2.7656   7.80544
 2.7641   8.40242
 2.7626   8.38543
 2.7612   7.93291
 2.7597   8.36809
 2.7582   8.54451
 2.7568   8.33777
 2.7553   8.66746
 2.7538   8.70740
 2.7524   8.41881
 2.7509   8.34616
 2.7494   8.49014
 2.7480   8.81066
 2.7465   8.86139
 2.7451   9.04099
 2.7436   9.45847
 2.7422   9.80591
 2.7407  10.02290
 2.7393  10.17620
 2.7378  10.33420
 2.7364  10.59360
 2.7350  10.90010
 2.7335  11.03620
 2.7321  10.98410
 2.7306  10.74700
 2.7292  10.78160
 2.7278  10.93070
 2.7263  11.12920
 2.7249  11.15360
 2.7235  10.98980
 2.7220  10.86020
 2.7206  10.75880
 2.7192  10.62960
 2.7178  11.12330
 2.7163  11.78080
 2.7149  11.79810
 2.7135  11.62420
 2.7121  11.71680
 2.7106  11.95330
 2.7092  11.85430
 2.7078  11.80870
 2.7064  11.58080
 2.7050  11.67300
 2.7036  12.12370
 2.7022  12.61470
 2.7008  12.79190
 2.6994  12.74200
 2.6980  12.66230
 2.6965  13.04420
 2.6951  13.42930
 2.6938  13.42560
 2.6923  13.45280
 2.6910  13.61140
 2.6896  13.69120
 2.6882  13.78960
 2.6868  13.67690
 2.6854  13.76380
 2.6840  14.07510
 2.6826  14.49390
 2.6812  14.82500
 2.6798  15.42900
 2.6784  15.86500
 2.6771  16.26500
 2.6757  16.19750
 2.6743  16.12340
 2.6729  16.26400
 2.6715  16.80070
 2.6702  17.36450
 2.6688  17.30120
 2.6674  17.49080
 2.6660  17.91890
 2.6647  18.00930
 2.6633  17.74750
 2.6619  17.71830
 2.6606  17.53230
 2.6592  17.64480
 2.6578  17.88610
 2.6565  17.72380
 2.6551  17.61140
 2.6538  17.53520
 2.6524  17.75180
 2.6511  17.71960
 2.6497  17.54380
 2.6484  17.79000
 2.6470  17.95420
 2.6456  17.74350
 2.6443  17.69520
 2.6429  17.62970
 2.6416  17.40380
 2.6403  17.60270
 2.6389  17.68110
 2.6376  17.42100
 2.6362  17.37690
 2.6349  17.63540
 2.6336  17.82040
 2.6322  17.86980
 2.6309  18.07620
 2.6296  17.66720
 2.6282  17.48100
 2.6269  17.98310
 2.6256  17.92380
 2.6242  17.52380
 2.6229  17.45110
 2.6216  17.32840
 2.6203  16.93770
 2.6189  17.14530
 2.6176  17.45290
 2.6163  17.17790
 2.6150  17.00160
 2.6136  17.21380
 2.6123  17.33720
 2.6110  16.96230
 2.6097  17.19620
 2.6084  17.07400
 2.6071  16.76700
 2.6058  16.86760
 2.6044  16.83710
 2.6031  17.15400
 2.6018  17.35550
 2.6005  17.11980
 2.5992  17.04610
 2.5979  17.13000
 2.5966  17.13950
 2.5953  17.20970
 2.5940  17.09080
 2.5927  17.02650
 2.5914  16.89080
 2.5901  16.90110
 2.5888  16.98020
 2.5876  16.71670
 2.5863  16.62440
 2.5850  17.20570
 2.5837  17.23980
 2.5824  17.28370
 2.5811  17.27430
 2.5798  16.78590
 2.5785  16.65760
 2.5773  17.12550
 2.5760  17.27110
 2.5747  16.96790
 2.5734  17.17130
 2.5722  16.94620
 2.5709  17.26080
 2.5696  17.69410
 2.5683  17.21080
 2.5671  16.59950
 2.5658  17.07460
 2.5645  17.42490
 2.5633  17.20990
 2.5620  17.13180
 2.5607  17.34280
 2.5595  17.34440
 2.5582  17.06590
 2.5569  17.10060
 2.5557  17.25610
 2.5544  17.61480
 2.5532  18.03620
 2.5519  17.91990
 2.5507  16.96930
 2.5494  16.81790
 2.5481  17.56760
 2.5469  17.60060
 2.5456  17.45460
 2.5444  17.40370
 2.5431  16.93810
 2.5419  16.92010
 2.5406  17.22010
 2.5394  17.60130
 2.5382  17.83790
 2.5369  17.71960
 2.5357  17.26430
 2.5344  17.18120
 2.5332  17.23390
 2.5320  17.19450
 2.5307  17.20790
 2.5295  17.42400
 2.5283  17.39030
 2.5270  17.12270
 2.5258  17.29910
 2.5246  17.37610
 2.5233  17.54000
 2.5221  17.68300
 2.5209  17.68310
 2.5197  17.57430
 2.5184  17.56950
 2.5172  17.22170
 2.5160  16.85120
 2.5148  17.23540
 2.5136  17.55600
 2.5123  17.43780
 2.5111  17.22880
 2.5099  17.09550
 2.5087  16.92920
 2.5075  16.59670
 2.5063  16.32650
 2.5051  16.72370
 2.5038  17.34500
 2.5026  17.80390
 2.5014  18.17840
 2.5002  17.84310
 2.4990  17.19800
 2.4978  17.02140
 2.4966  17.08530
 2.4954  17.39540
 2.4942  17.55150
 2.4930  17.45560
 2.4918  17.67610
 2.4906  17.59820
 2.4894  17.69160
 2.4882  17.68110
 2.4870  17.29020
 2.4858  17.23810
 2.4846  17.49950
 2.4835  17.46660
 2.4823  17.39980
 2.4811  17.95830
 2.4799  17.84100
 2.4787  17.55520
 2.4775  17.44040
 2.4764  17.49180
 2.4752  17.65890
 2.4740  17.37180
 2.4728  17.61230
 2.4716  18.11290
 2.4705  17.89040
 2.4693  17.76890
 2.4681  17.98980
 2.4669  17.86470
 2.4657  17.72180
 2.4646  17.92890
 2.4634  18.05470
 2.4622  17.96660
 2.4611  17.80190
 2.4599  17.68800
 2.4587  18.04090
 2.4576  18.25420
 2.4564  18.20450
 2.4552  18.11300
 2.4541  18.17860
 2.4529  18.35350
 2.4518  18.48850
 2.4506  18.66030
 2.4494  18.39310
 2.4483  17.65790
 2.4471  17.93660
 2.4460  18.50060
 2.4448  17.99820
 2.4437  17.86770
 2.4425  18.65740
 2.4414  18.93660
 2.4402  18.98140
 2.4391  18.79690
 2.4379  18.31480
 2.4368  18.52250
 2.4356  18.61000
 2.4345  18.72660
 2.4333  19.16950
 2.4322  18.66300
 2.4311  18.37530
 2.4299  18.64390
 2.4288  18.71130
 2.4276  19.08630
 2.4265  19.20560
 2.4254  19.18850
 2.4242  18.82620
 2.4231  18.46250
 2.4220  18.55660
 2.4209  18.90500
 2.4197  18.46140
 2.4186  17.82040
 2.4175  18.12180
 2.4163  18.05060
 2.4152  18.36060
 2.4141  18.87240
 2.4130  18.78660
 2.4118  18.72480
 2.4107  18.87180
 2.4096  18.73100
 2.4085  18.47380
 2.4074  18.36180
 2.4063  18.23000
 2.4051  18.32690
 2.4040  18.48600
 2.4029  18.21070
 2.4018  17.75540
 2.4007  18.06220
 2.3996  17.96420
 2.3985  18.03140
 2.3973  18.23730
 2.3962  18.26750
 2.3951  17.73130
 2.3940  17.46210
 2.3929  17.62450
 2.3918  18.02440
 2.3907  18.02870
 2.3896  17.70950
 2.3885  17.49550
 2.3874  17.17340
 2.3863  16.76540
 2.3852  16.10900
 2.3841  15.97650
 2.3830  16.28360
 2.3819  16.21470
 2.3808  15.92920
 2.3798  15.23160
 2.3786  14.98790
 2.3776  15.62430
 2.3765  16.17480
 2.3754  15.88640
 2.3743  15.35780
 2.3732  15.37210
 2.3721  15.91220
 2.3710  16.11290
 2.3700  16.18030
 2.3689  16.60080
 2.3678  15.96440
 2.3667  15.44420
 2.3656  15.41290
 2.3645  15.34770
 2.3635  15.53230
 2.3624  16.47190
 2.3613  16.60840
 2.3603  16.44810
 2.3592  16.73040
 2.3581  17.16440
 2.3570  17.20070
 2.3560  17.08100
 2.3549  17.70830
 2.3538  18.21920
 2.3527  17.81390
 2.3517  17.68790
 2.3506  17.93390
 2.3495  18.16800
 2.3485  18.48490
 2.3474  18.83510
 2.3464  18.81500
 2.3453  19.32600
 2.3442  19.61890
 2.3432  19.22400
 2.3421  18.96160
 2.3411  19.45980
 2.3400  19.64560
 2.3390  20.00310
 2.3379  20.01950
 2.3369  19.52490
 2.3358  19.53150
 2.3347  19.62360
 2.3337  19.76280
 2.3326  19.94110
 2.3316  19.46340
 2.3306  19.57650
 2.3295  19.83660
 2.3285  19.62370
 2.3274  19.94660
 2.3264  20.25260
 2.3253  19.96820
 2.3243  19.80810
 2.3232  20.27490
 2.3222  20.64620
 2.3212  20.30160
 2.3201  19.72850
 2.3191  19.83410
 2.3180  20.61880
 2.3170  20.42000
 2.3160  20.32790
 2.3149  20.47480
 2.3139  20.36480
 2.3129  20.95440
 2.3118  20.92530
 2.3108  20.15970
 2.3098  19.84520
 2.3088  19.27080
 2.3077  18.76440
 2.3067  19.29930
 2.3057  19.14470
 2.3047  18.57610
 2.3036  18.61090
 2.3026  19.15490
 2.3016  19.36480
 2.3006  18.81680
 2.2995  18.42820
 2.2985  18.56370
 2.2975  19.49740
 2.2965  18.87910
 2.2955  18.43600
 2.2944  19.48580
 2.2934  20.35250
 2.2924  20.27170
 2.2914  20.36450
 2.2904  20.33400
 2.2894  20.52330
 2.2884  20.70230
 2.2874  21.38650
 2.2864  21.85250
 2.2854  21.93470
 2.2843  21.88800
 2.2833  21.90540
 2.2823  22.39030
 2.2813  22.85770
 2.2803  22.50220
 2.2793  21.86940
 2.2783  22.08120
 2.2773  22.20190
 2.2763  22.33950
 2.2753  22.54400
 2.2743  22.57150
 2.2733  22.04950
 2.2723  21.96860
 2.2713  22.34400
 2.2703  22.41840
 2.2694  22.27720
 2.2684  21.83890
 2.2674  21.86180
 2.2664  22.08720
 2.2654  21.35290
 2.2644  20.76620
 2.2634  20.43650
 2.2624  20.49560
 2.2614  20.93570
 2.2605  21.00660
 2.2595  20.82920
 2.2585  20.35690
 2.2575  20.19620
 2.2565  19.46440
 2.2555  19.31470
 2.2546  19.46410
 2.2536  18.75760
 2.2526  19.02090
 2.2516  19.59260
 2.2506  19.28230
 2.2497  19.12470
 2.2487  19.38890
 2.2477  18.52340
 2.2467  18.12990
 2.2458  18.44200
 2.2448  18.34170
 2.2438  18.09110
 2.2428  18.73150
 2.2419  19.46930
 2.2409  19.42290
 2.2399  19.29200
 2.2390  19.59800
 2.2380  19.98960
 2.2370  20.19730
 2.2361  19.97820
 2.2351  20.55510
 2.2342  21.81320
 2.2332  21.00060
 2.2322  20.06000
 2.2313  20.18160
 2.2303  20.61450
 2.2294  20.34450
 2.2284  20.35770
 2.2274  21.24100
 2.2265  21.36910
 2.2255  20.60650
 2.2246  20.36490
 2.2236  20.30560
 2.2227  20.16990
 2.2217  20.07860
 2.2208  19.84670
 2.2198  19.68620
 2.2189  19.67520
 2.2179  18.85990
 2.2170  19.08960
 2.2160  19.81290
 2.2151  19.33240
 2.2141  19.26480
 2.2132  19.17870
 2.2122  18.91240
 2.2113  18.87790
 2.2103  18.67080
 2.2094  18.11620
 2.2085  17.88070
 2.2075  18.20940
 2.2066  17.87510
 2.2056  16.97500
 2.2047  16.62860
 2.2038  16.92820
 2.2028  17.43140
 2.2019  17.81120
 2.2010  18.01510
 2.2000  17.66950
 2.1991  17.67730
 2.1982  18.49680
 2.1972  18.87720
 2.1963  18.88550
 2.1954  18.83780
 2.1944  19.19680
 2.1935  20.57260
 2.1926  21.10920
 2.1917  20.80040
 2.1907  21.20490
 2.1898  21.13520
 2.1889  20.78070
 2.1880  20.54110
 2.1870  20.47820
 2.1861  21.36200
 2.1852  21.79140
 2.1843  21.98130
 2.1833  21.73080
 2.1824  21.38310
 2.1815  21.00150
 2.1806  21.28380
 2.1797  21.57860
 2.1788  21.27570
 2.1778  20.79750
 2.1769  20.11490
 2.1760  20.01210
 2.1751  20.19150
 2.1742  20.54210
 2.1733  20.96430
 2.1724  21.55600
 2.1715  21.48500
 2.1706  21.77000
 2.1696  22.04600
 2.1687  21.78830
 2.1678  21.69650
 2.1669  21.27150
 2.1660  21.05530
 2.1651  21.84120
 2.1642  22.14650
 2.1633  21.80710
 2.1624  22.14170
 2.1615  22.95050
 2.1606  23.42800
 2.1597  23.46110
 2.1588  23.26580
 2.1579  22.82640
 2.1570  22.63320
 2.1561  22.49420
 2.1552  22.14530
 2.1543  22.45840
 2.1534  22.95640
 2.1525  23.31390
 2.1517  23.15670
 2.1507  22.74910
 2.1499  22.46150
 2.1490  22.28040
 2.1481  21.89400
 2.1472  22.06200
 2.1463  22.43380
 2.1454  22.40410
 2.1445  22.33150
 2.1436  22.83640
 2.1428  23.05190
 2.1419  23.01970
 2.1410  23.21810
 2.1401  23.64370
 2.1392  23.27680
 2.1383  22.83650
 2.1375  22.52160
 2.1366  21.94950
 2.1357  21.96510
 2.1348  22.45950
 2.1339  22.80760
 2.1331  23.31600
 2.1322  22.99780
 2.1313  22.90450
 2.1304  23.36860
 2.1296  23.16020
 2.1287  22.29100
 2.1278  22.36770
 2.1269  22.95040
 2.1261  23.44590
 2.1252  24.01510
 2.1243  23.27810
 2.1235  22.69460
 2.1226  23.06660
 2.1217  22.88680
 2.1208  22.91950
 2.1200  23.62260
 2.1191  23.69690
 2.1183  23.87100
 2.1174  23.77140
 2.1165  22.94010
 2.1157  22.96060
 2.1148  23.78480
 2.1139  23.95200
 2.1131  23.33970
 2.1122  22.49610
 2.1113  22.09710
 2.1105  22.57000
 2.1096  22.50080
 2.1088  22.44150
 2.1079  22.37060
 2.1071  23.02180
 2.1062  23.58710
 2.1054  22.70500
 2.1045  22.24780
 2.1036  22.98470
 2.1028  23.28300
 2.1019  23.65650
 2.1011  23.46460
 2.1002  22.98490
 2.0994  23.24810
 2.0985  23.99440
 2.0977  23.49860
 2.0968  22.34630
 2.0960  22.43850
 2.0951  22.43170
 2.0943  23.17350
 2.0934  24.57040
 2.0926  24.40760
 2.0918  23.20600
 2.0909  22.43020
 2.0901  22.67960
 2.0892  23.38000
 2.0884  24.25090
 2.0875  23.45830
 2.0867  22.54820
 2.0859  22.86570
 2.0850  23.80820
 2.0842  22.10630
 2.0833  21.94020
 2.0825  22.78550
 2.0817  23.12770
 2.0808  23.11430
 2.0800  22.56810
 2.0792  21.81350
 2.0783  23.52330
 2.0775  24.72120
 2.0767  24.17140
 2.0759  22.90830
 2.0750  22.37140
 2.0742  23.14460
 2.0734  23.43070
 2.0725  22.83730
 2.0717  22.01180
 2.0709  22.64650
 2.0701  23.27690
 2.0692  21.72160
 2.0684  20.98050
 2.0676  21.14200
 2.0667  22.88130
 2.0659  23.17870
 2.0651  21.82730
 2.0643  21.22750
 2.0635  22.37150
 2.0626  23.14020
 2.0618  22.96450
 2.0610  22.95560
 2.0602  22.57460
 2.0594  21.39540
 2.0585  21.47700
 2.0577  22.26160
 2.0569  22.00960
 2.0561  22.14560
 2.0553  21.28600
 2.0545  22.26660
 2.0537  23.30300
 2.0528  22.98160
 2.0520  22.48700
 2.0512  24.29970
 2.0504  24.81110
 2.0496  22.71430
 2.0488  21.05220
 2.0480  22.66390
 2.0472  22.85750
 2.0464  21.73470
 2.0456  21.28560
 2.0447  20.92050
 2.0439  22.97920
 2.0431  23.32880
 2.0423  22.72970
 2.0415  21.86680
 2.0407  21.85250
 2.0399  23.20430
 2.0391  23.34150
 2.0383  21.68340
 2.0375  21.38870
 2.0367  23.02540
 2.0359  22.93180
 2.0351  22.82690
 2.0343  22.23280
 2.0335  22.06080
 2.0327  22.98420
 2.0319  23.27780
 2.0311  22.37960
 2.0303  21.80890
 2.0295  22.23190
 2.0287  22.33980
 2.0280  22.78740
 2.0272  22.82270
 2.0264  23.40790
 2.0256  24.56000
 2.0248  25.07990
 2.0240  24.13380
 2.0232  22.11480
 2.0224  21.35490
 2.0216  22.76430
 2.0208  23.84940
 2.0200  23.28410
 2.0193  23.14260
 2.0185  23.90140
 2.0177  23.66590
 2.0169  23.48060
 2.0161  22.45780
 2.0153  21.55480
 2.0146  21.93340
 2.0138  23.31990
 2.0130  23.70370
 2.0122  23.12260
 2.0114  23.51850
 2.0107  23.38270
 2.0099  23.13160
 2.0091  23.40330
 2.0083  23.38340
 2.0075  23.91100
 2.0068  23.64360
 2.0060  23.46620
 2.0052  23.08000
 2.0044  22.14850
 2.0037  22.03370
 2.0029  22.52580
 2.0021  23.33860
 2.0013  21.40570
 2.0006  20.46990
 1.9998  22.79310
