Name: Gold plate
Type: Manmade materials
Class: Reflectance target
Subclass: 
Particle Size: Solid
Sample No.: 001682
Owner: JPL
Wavelength range: IR
Origin: Labsphere, P.O. Box 70, Shaker Street, North Sutton, NH 03260
(603) 927-4266
Description: Measurement made at top center, Field Gold.
Oct. 29 1997 to Oct. 30 1997.




Measurement: Hemispherical Reflectance
First Column: X
Second Column: Y
X Units: Wavelength (micrometers)
Y Units: Reflectence (percent)
First X Value: 15.3853
Last X Value: 2.00032
Number of X Values: 2256
Additional information: None.
 
15.3853	89.4099
15.3397	89.5031
15.2945	89.663
15.2495	89.6188
15.2048	89.5795
15.1603	89.5592
15.1161	89.6368
15.0722	89.6061
15.0285	89.3402
14.9851	88.5554
14.9419	88.7945
14.8989	89.3931
14.8563	89.4103
14.8138	89.563
14.7716	89.6995
14.7296	89.6623
14.6879	89.4917
14.6464	89.4732
14.6052	89.5183
14.5641	89.6596
14.5233	89.7135
14.4828	89.5279
14.4424	89.4258
14.4023	89.5411
14.3624	89.6217
14.3227	89.6392
14.2833	89.6762
14.244	89.7784
14.205	89.834
14.1662	89.8389
14.1276	89.7678
14.0892	89.5231
14.051	89.4969
14.0131	89.7254
13.9753	89.8079
13.9377	89.8273
13.9004	89.891
13.8632	90.037
13.8262	90.0407
13.7895	89.9172
13.7529	89.8117
13.7165	89.8894
13.6803	90.0266
13.6443	89.9799
13.6085	89.9376
13.5729	90.012
13.5374	90.0539
13.5022	90.0281
13.4671	90.0971
13.4322	90.0165
13.3975	89.9922
13.363	90.071
13.3286	90.0448
13.2944	89.9977
13.2604	89.9392
13.2266	89.9434
13.193	89.9202
13.1595	89.9257
13.1262	89.8966
13.093	89.9417
13.06	90.0353
13.0272	90.0647
12.9946	89.9419
12.9621	89.8779
12.9298	89.8094
12.8976	89.6944
12.8656	89.7632
12.8337	89.8667
12.8021	89.8415
12.7705	89.7678
12.7391	89.8681
12.7079	89.9385
12.6769	89.9397
12.6459	89.9001
12.6152	89.7172
12.5845	89.6493
12.5541	89.8764
12.5238	89.9066
12.4936	89.8524
12.4635	89.9526
12.4337	90.1169
12.4039	90.1588
12.3743	90.2095
12.3448	90.2915
12.3155	90.2468
12.2863	90.3762
12.2573	90.5196
12.2284	90.5988
12.1996	90.6417
12.171	90.605
12.1425	90.6067
12.1141	90.6248
12.0859	90.6008
12.0578	90.5491
12.0298	90.5007
12.0019	90.5207
11.9742	90.6074
11.9466	90.671
11.9192	90.5822
11.8918	90.485
11.8646	90.5839
11.8375	90.6179
11.8106	90.5575
11.7837	90.4974
11.757	90.4985
11.7304	90.5894
11.7039	90.6324
11.6776	90.5395
11.6513	90.4607
11.6252	90.313
11.5992	90.3304
11.5733	90.3302
11.5475	90.253
11.5219	90.0541
11.4963	89.8129
11.4709	89.7115
11.4455	89.7325
11.4203	89.7544
11.3952	89.7364
11.3702	89.7628
11.3454	89.9407
11.3206	90.0492
11.2959	90.0969
11.2714	90.1854
11.2469	90.1715
11.2226	90.0737
11.1983	90.0046
11.1742	89.9886
11.1502	89.9643
11.1263	89.8713
11.1024	89.7559
11.0787	89.6552
11.0551	89.6044
11.0316	89.5402
11.0081	89.4619
10.9848	89.3377
10.9616	89.2052
10.9385	89.2522
10.9154	89.3529
10.8925	89.3202
10.8697	89.2648
10.8469	89.2289
10.8243	89.2917
10.8017	89.3438
10.7793	89.291
10.7569	89.2087
10.7346	89.1509
10.7125	89.1733
10.6904	89.192
10.6684	89.1924
10.6465	89.2297
10.6247	89.1089
10.6029	88.9701
10.5813	89.0249
10.5597	89.0295
10.5383	88.8944
10.5169	88.8307
10.4956	88.8996
10.4744	88.828
10.4533	88.7332
10.4323	88.6668
10.4113	88.5625
10.3904	88.5031
10.3697	88.4952
10.349	88.3843
10.3284	88.3132
10.3078	88.2903
10.2874	88.1635
10.267	88.0449
10.2467	87.9591
10.2265	87.8159
10.2064	87.7834
10.1863	87.6961
10.1663	87.5627
10.1464	87.5279
10.1266	87.4447
10.1069	87.3588
10.0872	87.2236
10.0676	87.0552
10.0481	87.0095
10.0287	87.0141
10.0093	86.8828
9.99005	86.7902
9.97084	86.7069
9.95169	86.5784
9.93263	86.4912
9.91364	86.4486
9.89472	86.4181
9.87587	86.4646
9.8571	86.5155
9.83839	86.4201
9.81976	86.4171
9.80119	86.4263
9.78271	86.2981
9.76428	86.2839
9.74592	86.3604
9.72764	86.3308
9.70943	86.3839
9.69128	86.4636
9.6732	86.3772
9.65518	86.3567
9.63724	86.3738
9.61935	86.3063
9.60155	86.4048
9.5838	86.5122
9.56611	86.5895
9.5485	86.6046
9.53094	86.6779
9.51345	86.7813
9.49604	86.7533
9.47867	86.7514
9.46137	86.844
9.44414	86.8796
9.42697	86.9831
9.40986	87.2192
9.39281	87.3196
9.37583	87.2507
9.35891	87.2677
9.34204	87.3231
9.32524	87.4927
9.3085	87.6054
9.29182	87.6977
9.27519	87.7671
9.25863	87.6915
9.24213	87.7195
9.22568	87.7792
9.2093	87.8012
9.19297	87.8672
9.17669	87.8403
9.16048	87.7629
9.14433	87.805
9.12823	87.9282
9.11218	88.01
9.0962	87.9807
9.08027	87.9013
9.06439	87.9832
9.04858	88.084
9.03281	88.0997
9.0171	88.185
9.00145	88.2183
8.98585	88.1213
8.9703	88.1653
8.9548	88.1814
8.93937	88.2136
8.92398	88.4006
8.90865	88.5528
8.89337	88.6721
8.87814	88.7266
8.86296	88.756
8.84784	88.7981
8.83277	88.8843
8.81774	88.927
8.80277	88.9294
8.78786	88.9957
8.77298	89.0359
8.75816	89.2173
8.7434	89.2225
8.72868	89.0817
8.714	89.1038
8.69938	89.134
8.68481	89.2184
8.67029	89.2641
8.65581	89.2859
8.64139	89.2962
8.62701	89.3873
8.61268	89.3801
8.5984	89.2995
8.58416	89.378
8.56997	89.4775
8.55583	89.5933
8.54174	89.6991
8.52769	89.7081
8.51368	89.7639
8.49973	89.8461
8.48582	89.9318
8.47195	89.9185
8.45813	89.9206
8.44436	90.0545
8.43062	90.2181
8.41693	90.2086
8.4033	90.1777
8.3897	90.2675
8.37614	90.3242
8.36264	90.3097
8.34917	90.315
8.33574	90.3088
8.32236	90.3768
8.30903	90.5156
8.29573	90.5168
8.28248	90.491
8.26927	90.5727
8.2561	90.5515
8.24298	90.5413
8.2299	90.6266
8.21685	90.6294
8.20385	90.6228
8.19089	90.6304
8.17797	90.6481
8.16509	90.6669
8.15225	90.7033
8.13946	90.748
8.1267	90.7701
8.11398	90.7982
8.10131	90.8461
8.08867	90.8702
8.07606	90.923
8.0635	90.8631
8.05099	90.7889
8.0385	90.7183
8.02606	90.7757
8.01366	90.8365
8.00129	90.7974
7.98896	90.7695
7.97667	90.8462
7.96442	91.0177
7.9522	91.0553
7.94002	90.9782
7.92788	90.8714
7.91578	90.8701
7.90371	90.8996
7.89168	90.9184
7.87969	90.9478
7.86773	90.9377
7.85581	90.8832
7.84392	90.8557
7.83207	90.8805
7.82026	90.9232
7.80849	90.8818
7.79674	90.8847
7.78503	90.9014
7.77337	90.8873
7.76173	90.8732
7.75012	90.8549
7.73856	90.8675
7.72703	90.8462
7.71553	90.7968
7.70406	90.8102
7.69263	90.9127
7.68123	90.869
7.66987	90.7888
7.65855	90.809
7.64725	90.7787
7.63598	90.7359
7.62475	90.7248
7.61356	90.6811
7.60239	90.6141
7.59126	90.6423
7.58017	90.6589
7.5691	90.6234
7.55806	90.5791
7.54707	90.5396
7.5361	90.5647
7.52516	90.6095
7.51425	90.6011
7.50338	90.5787
7.49253	90.513
7.48172	90.5676
7.47094	90.5963
7.46019	90.5773
7.44947	90.5148
7.43879	90.4472
7.42813	90.4512
7.4175	90.4655
7.4069	90.4521
7.39634	90.4308
7.3858	90.4193
7.37529	90.387
7.36482	90.3521
7.35437	90.2995
7.34396	90.2608
7.33357	90.2009
7.32321	90.1323
7.31288	90.1522
7.30258	90.1964
7.29231	90.1885
7.28207	90.2081
7.27185	90.1771
7.26167	90.1511
7.25152	90.1381
7.24139	90.0501
7.23129	90.0712
7.22122	90.0968
7.21117	90.0763
7.20116	90.0431
7.19117	90.0209
7.18121	90.0601
7.17128	90.1337
7.16137	90.0742
7.1515	89.9796
7.14164	89.9696
7.13182	89.9177
7.12203	89.8951
7.11225	89.9146
7.10251	89.892
7.0928	89.8623
7.08311	89.8274
7.07344	89.8086
7.06381	89.8222
7.0542	89.9672
7.04461	90.1311
7.03506	89.9549
7.02552	89.8576
7.01601	89.8517
7.00653	89.8197
6.99708	89.8939
6.98765	89.8525
6.97824	89.8196
6.96886	89.9819
6.95951	90.0951
6.95018	89.9238
6.94087	89.8709
6.9316	89.8735
6.92234	89.8984
6.91311	89.9499
6.90391	89.9793
6.89473	89.8864
6.88557	89.9206
6.87644	90.0786
6.86733	90.3983
6.85824	90.4126
6.84918	90.1118
6.84015	89.996
6.83114	90.1255
6.82215	90.1686
6.81319	90.0662
6.80424	90.1179
6.79532	90.3835
6.78643	90.5173
6.77756	90.426
6.76871	90.328
6.75989	90.2887
6.75109	90.3362
6.74231	90.434
6.73355	90.5028
6.72482	90.6194
6.71611	90.7198
6.70742	90.6742
6.69875	90.556
6.69011	90.664
6.68149	90.8156
6.67289	90.7615
6.66431	90.6472
6.65576	90.5893
6.64722	90.8932
6.63871	91.2638
6.63022	91.0681
6.62175	90.823
6.61331	90.8046
6.60488	90.7987
6.59648	90.9171
6.5881	91.0323
6.57974	91.1182
6.5714	91.2009
6.56308	91.0375
6.55478	90.9792
6.54651	90.8672
6.53825	90.8074
6.53001	90.876
6.5218	91.0157
6.51361	90.9048
6.50544	90.9382
6.49729	91.3575
6.48915	91.3957
6.48104	91.1456
6.47295	90.995
6.46488	90.8513
6.45683	90.8229
6.4488	90.8757
6.44079	90.9002
6.4328	90.9655
6.42482	91.1186
6.41687	91.5054
6.40894	91.3516
6.40103	90.8974
6.39314	90.7562
6.38526	90.6935
6.37741	90.7823
6.36957	90.9042
6.36176	90.8067
6.35396	90.8066
6.34618	90.9894
6.33843	90.8097
6.33069	90.5254
6.32297	90.498
6.31527	90.5325
6.30758	90.4873
6.29992	90.4921
6.29227	90.5339
6.28465	90.4731
6.27704	90.4281
6.26945	90.4326
6.26188	90.46
6.25432	90.4746
6.24679	90.4843
6.23927	90.456
6.23177	90.397
6.22429	90.4171
6.21683	90.4251
6.20938	90.3508
6.20195	90.2925
6.19454	90.3893
6.18715	90.64
6.17978	90.4739
6.17242	90.2905
6.16508	90.3814
6.15776	90.3668
6.15045	90.2674
6.14317	90.3297
6.1359	90.3493
6.12864	90.3578
6.12141	90.5483
6.11419	90.7969
6.10699	90.6332
6.0998	90.3939
6.09263	90.3398
6.08549	90.3846
6.07835	90.557
6.07123	90.6793
6.06413	90.5992
6.05705	90.8194
6.04998	91.3254
6.04293	91.0384
6.0359	90.6219
6.02888	90.5374
6.02187	90.6098
6.01489	90.7571
6.00792	90.7625
6.00096	90.7615
5.99403	90.9626
5.98711	91.0282
5.9802	90.9658
5.97331	91.1066
5.96644	91.0917
5.95958	90.8791
5.95274	90.9435
5.94591	91.1273
5.9391	91.5432
5.9323	91.4628
5.92552	91.1183
5.91876	91.0782
5.91201	91.1263
5.90528	91.2758
5.89856	91.6846
5.89186	91.6783
5.88517	91.7409
5.8785	91.8266
5.87184	91.5124
5.8652	91.4787
5.85857	91.4518
5.85196	91.441
5.84536	91.478
5.83878	91.5577
5.83221	91.6605
5.82566	91.8056
5.81912	91.7868
5.81259	91.6485
5.80608	91.6392
5.79959	91.6514
5.79311	91.6076
5.78665	91.6284
5.78019	91.6887
5.77376	91.8691
5.76734	92.1309
5.76093	91.9455
5.75453	91.7804
5.74815	91.8567
5.74179	91.814
5.73543	91.8287
5.7291	91.8631
5.72277	91.9106
5.71646	91.9947
5.71017	92.0528
5.70389	91.9684
5.69762	92.0018
5.69136	92.1064
5.68513	92.0651
5.6789	92.1166
5.67268	92.1396
5.66648	92.0783
5.6603	92.1802
5.65413	92.2748
5.64797	92.3344
5.64182	92.4344
5.63569	92.359
5.62957	92.2322
5.62347	92.1919
5.61737	92.203
5.61129	92.178
5.60522	92.1636
5.59917	92.144
5.59313	92.0728
5.5871	92.0696
5.58109	92.1504
5.57509	92.1095
5.5691	92.0022
5.56312	92.0143
5.55716	92.0924
5.55121	92.1685
5.54528	92.16
5.53935	92.1759
5.53344	92.2607
5.52754	92.3228
5.52166	92.3439
5.51578	92.2737
5.50992	92.1793
5.50407	92.2264
5.49823	92.2693
5.49241	92.3167
5.4866	92.3454
5.4808	92.3457
5.47501	92.3699
5.46923	92.4152
5.46347	92.458
5.45772	92.4482
5.45198	92.4509
5.44625	92.3931
5.44054	92.3596
5.43484	92.4143
5.42914	92.4925
5.42347	92.6238
5.4178	92.58
5.41214	92.4497
5.4065	92.3709
5.40087	92.358
5.39525	92.3867
5.38964	92.4051
5.38404	92.4191
5.37846	92.4031
5.37288	92.3652
5.36732	92.3569
5.36177	92.3876
5.35623	92.4425
5.35071	92.4669
5.34519	92.438
5.33968	92.4329
5.33419	92.3913
5.32871	92.3336
5.32324	92.3977
5.31778	92.4194
5.31233	92.3633
5.30689	92.3617
5.30147	92.4075
5.29605	92.4055
5.29065	92.4269
5.28525	92.4311
5.27987	92.4517
5.2745	92.4217
5.26914	92.445
5.26379	92.4551
5.25845	92.4199
5.25312	92.4422
5.24781	92.5001
5.2425	92.5417
5.23721	92.526
5.23192	92.4741
5.22665	92.4528
5.22138	92.4332
5.21613	92.5273
5.21089	92.6244
5.20566	92.6158
5.20044	92.5596
5.19522	92.523
5.19002	92.4986
5.18483	92.4742
5.17965	92.4747
5.17448	92.4786
5.16933	92.4997
5.16418	92.4965
5.15904	92.4724
5.15391	92.4554
5.14879	92.4581
5.14368	92.4816
5.13859	92.4972
5.1335	92.482
5.12842	92.4782
5.12335	92.4991
5.1183	92.5211
5.11325	92.5237
5.10821	92.5284
5.10318	92.5406
5.09817	92.5137
5.09316	92.5084
5.08816	92.5084
5.08317	92.4968
5.07819	92.4962
5.07322	92.5443
5.06826	92.5329
5.06331	92.4831
5.05837	92.48
5.05344	92.5082
5.04852	92.5155
5.04361	92.5031
5.03871	92.5072
5.03382	92.5222
5.02894	92.5185
5.02406	92.4846
5.0192	92.5074
5.01435	92.5118
5.0095	92.4871
5.00467	92.5031
4.99984	92.542
4.99502	92.5619
4.99021	92.5272
4.98542	92.4805
4.98063	92.5307
4.97585	92.5264
4.97108	92.4706
4.96632	92.4414
4.96156	92.5086
4.95682	92.5484
4.95209	92.5165
4.94736	92.5298
4.94264	92.5718
4.93794	92.5531
4.93324	92.5005
4.92855	92.5063
4.92387	92.519
4.9192	92.5133
4.91453	92.5388
4.90988	92.5707
4.90524	92.581
4.9006	92.5653
4.89597	92.5246
4.89135	92.4906
4.88674	92.5237
4.88214	92.5619
4.87755	92.5591
4.87296	92.5358
4.86839	92.503
4.86382	92.528
4.85926	92.5974
4.85471	92.5627
4.85017	92.5325
4.84564	92.5665
4.84111	92.5994
4.8366	92.5618
4.83209	92.529
4.82759	92.5638
4.8231	92.5367
4.81862	92.5285
4.81415	92.6171
4.80968	92.6544
4.80522	92.5654
4.80077	92.5399
4.79633	92.5671
4.7919	92.5272
4.78747	92.5311
4.78306	92.5673
4.77865	92.5626
4.77425	92.5285
4.76986	92.505
4.76547	92.5383
4.7611	92.53
4.75673	92.5179
4.75237	92.5373
4.74802	92.5402
4.74367	92.5326
4.73934	92.5665
4.73501	92.6007
4.73069	92.5842
4.72638	92.5284
4.72207	92.4927
4.71777	92.5405
4.71348	92.5675
4.7092	92.5444
4.70493	92.4842
4.70066	92.4332
4.69641	92.4596
4.69216	92.4876
4.68791	92.4614
4.68368	92.438
4.67945	92.4314
4.67523	92.5139
4.67102	92.5776
4.66682	92.4883
4.66262	92.449
4.65843	92.4812
4.65425	92.5246
4.65007	92.5364
4.64591	92.5194
4.64175	92.5379
4.6376	92.5382
4.63345	92.4976
4.62932	92.4695
4.62519	92.4749
4.62106	92.4989
4.61695	92.4482
4.61284	92.4585
4.60874	92.5254
4.60465	92.5127
4.60056	92.4887
4.59648	92.4818
4.59241	92.4837
4.58835	92.4986
4.58429	92.5014
4.58024	92.5041
4.5762	92.5041
4.57216	92.5465
4.56814	92.5627
4.56411	92.5251
4.5601	92.5146
4.55609	92.5047
4.55209	92.475
4.5481	92.5221
4.54411	92.585
4.54013	92.6237
4.53616	92.586
4.5322	92.5099
4.52824	92.4948
4.52429	92.5485
4.52034	92.5055
4.51641	92.4591
4.51247	92.5315
4.50855	92.498
4.50463	92.4308
4.50072	92.4277
4.49682	92.4198
4.49292	92.4497
4.48903	92.4752
4.48515	92.5097
4.48127	92.5479
4.4774	92.5382
4.47354	92.4982
4.46968	92.5059
4.46584	92.5241
4.46199	92.4904
4.45815	92.5007
4.45432	92.4693
4.4505	92.4472
4.44668	92.4451
4.44287	92.4877
4.43907	92.5055
4.43527	92.5027
4.43148	92.5026
4.4277	92.4644
4.42392	92.4665
4.42015	92.5061
4.41638	92.5215
4.41262	92.4808
4.40887	92.4101
4.40513	92.4184
4.40139	92.492
4.39765	92.4665
4.39393	92.4707
4.39021	92.4713
4.38649	92.5005
4.38278	92.5199
4.37908	92.4526
4.37539	92.4151
4.3717	92.4368
4.36801	92.4243
4.36434	92.4228
4.36067	92.4359
4.357	92.4099
4.35335	92.3869
4.34969	92.3561
4.34605	92.3204
4.34241	92.3117
4.33877	92.2573
4.33514	92.1627
4.33152	92.0898
4.32791	92.0199
4.3243	91.9177
4.32069	91.8473
4.3171	91.6868
4.31351	91.5479
4.30992	91.4352
4.30634	91.2312
4.30277	90.9831
4.2992	90.8091
4.29564	90.6645
4.29208	90.5298
4.28853	90.4361
4.28499	90.3384
4.28145	90.2751
4.27792	90.2516
4.27439	90.2639
4.27087	90.3401
4.26735	90.5281
4.26384	90.8818
4.26034	91.457
4.25684	91.7997
4.25335	91.4168
4.24986	90.8018
4.24638	90.2974
4.24291	89.8318
4.23944	89.5685
4.23598	89.4834
4.23252	89.4905
4.22906	89.6068
4.22562	89.8531
4.22218	90.1603
4.21874	90.4525
4.21531	90.8049
4.21189	91.2216
4.20847	91.5972
4.20506	91.9209
4.20165	92.1103
4.19825	92.2002
4.19485	92.3214
4.19146	92.4248
4.18807	92.4829
4.18469	92.4181
4.18132	92.349
4.17795	92.3635
4.17458	92.4425
4.17123	92.4334
4.16787	92.4154
4.16453	92.4136
4.16118	92.3818
4.15785	92.3816
4.15451	92.3636
4.15119	92.3706
4.14787	92.4051
4.14455	92.3972
4.14124	92.371
4.13794	92.3477
4.13464	92.3953
4.13134	92.4199
4.12805	92.384
4.12477	92.3387
4.12149	92.3157
4.11822	92.3383
4.11495	92.3645
4.11168	92.3624
4.10843	92.3612
4.10517	92.3477
4.10192	92.371
4.09868	92.3949
4.09545	92.3595
4.09221	92.3513
4.08899	92.3406
4.08576	92.2926
4.08255	92.2668
4.07933	92.2468
4.07613	92.3074
4.07292	92.4062
4.06973	92.3568
4.06654	92.2712
4.06335	92.2621
4.06017	92.2999
4.05699	92.3059
4.05382	92.2654
4.05065	92.2884
4.04749	92.278
4.04433	92.2693
4.04118	92.294
4.03803	92.3547
4.03489	92.3003
4.03175	92.2128
4.02862	92.171
4.02549	92.1867
4.02237	92.2172
4.01925	92.2147
4.01614	92.1783
4.01303	92.1672
4.00993	92.1912
4.00683	92.2369
4.00373	92.2195
4.00064	92.1235
3.99756	92.0108
3.99448	91.9835
3.9914	91.9848
3.98833	92.0632
3.98527	92.1198
3.98221	92.0923
3.97915	92.0367
3.9761	92.0186
3.97305	91.9743
3.97001	91.8951
3.96697	91.9107
3.96394	91.9
3.96091	91.904
3.95789	91.9548
3.95487	91.9531
3.95186	91.9403
3.94885	91.9256
3.94584	91.9189
3.94284	91.9719
3.93984	92.0223
3.93685	92.0344
3.93386	92.049
3.93088	92.0138
3.9279	91.9626
3.92493	91.9715
3.92196	91.935
3.919	91.9698
3.91604	92.0867
3.91308	92.0888
3.91013	92.0395
3.90718	92.0563
3.90424	92.1178
3.9013	92.0942
3.89837	92.106
3.89544	92.1032
3.89252	92.0576
3.8896	92.1222
3.88668	92.123
3.88377	92.0265
3.88086	92.047
3.87796	92.0729
3.87506	92.0851
3.87217	92.0835
3.86928	92.031
3.86639	92.0273
3.86351	92.0616
3.86064	92.0278
3.85776	91.951
3.8549	91.9386
3.85203	91.9361
3.84917	91.9677
3.84631	92.0901
3.84346	92.1616
3.84062	92.1028
3.83777	92.0808
3.83494	92.0809
3.8321	92.0812
3.82927	92.0228
3.82644	92.0586
3.82362	92.0878
3.82081	92.0575
3.81799	92.0888
3.81518	92.0198
3.81238	92.009
3.80958	92.0702
3.80678	92.0912
3.80399	92.075
3.8012	92.0343
3.79841	91.9782
3.79563	91.9815
3.79286	92.0155
3.79008	92.0342
3.78731	91.9662
3.78455	91.9511
3.78179	91.9611
3.77903	92.0169
3.77628	92.004
3.77353	92.0208
3.77079	92.0572
3.76805	92.0466
3.76531	92.0128
3.76258	92.0098
3.75985	92.026
3.75713	92.0138
3.7544	91.9795
3.75169	91.9661
3.74898	91.9667
3.74627	91.9435
3.74356	91.8891
3.74086	91.8999
3.73816	91.9906
3.73547	92.0212
3.73278	91.9396
3.7301	91.9121
3.72741	91.9608
3.72474	91.9872
3.72206	91.9519
3.71939	91.9325
3.71673	91.9112
3.71406	91.9092
3.71141	91.9709
3.70875	91.9294
3.7061	91.9127
3.70345	91.94
3.70081	91.9398
3.69817	91.959
3.69553	91.9374
3.6929	91.9444
3.69027	91.9348
3.68765	91.9398
3.68503	91.9525
3.68241	91.9088
3.6798	91.8522
3.67719	91.8029
3.67458	91.8667
3.67198	91.9319
3.66938	91.8671
3.66678	91.7754
3.66419	91.7481
3.66161	91.7545
3.65902	91.8231
3.65644	91.9362
3.65387	91.9342
3.65129	91.8309
3.64872	91.801
3.64616	91.8014
3.64359	91.8273
3.64103	91.7758
3.63848	91.7965
3.63593	91.8526
3.63338	91.8031
3.63084	91.7763
3.6283	91.8245
3.62576	91.7582
3.62322	91.7076
3.62069	91.788
3.61817	91.7627
3.61564	91.6925
3.61312	91.7448
3.61061	91.7706
3.6081	91.7433
3.60559	91.717
3.60308	91.7139
3.60058	91.6968
3.59808	91.6732
3.59558	91.7138
3.59309	91.7432
3.59061	91.7389
3.58812	91.7004
3.58564	91.7012
3.58316	91.7143
3.58069	91.6459
3.57822	91.6346
3.57575	91.6027
3.57328	91.5355
3.57082	91.5519
3.56836	91.5731
3.56591	91.575
3.56346	91.585
3.56101	91.6036
3.55857	91.5816
3.55613	91.5675
3.55369	91.5648
3.55126	91.5117
3.54883	91.5217
3.5464	91.569
3.54397	91.5661
3.54155	91.4531
3.53914	91.4115
3.53672	91.409
3.53431	91.393
3.5319	91.4048
3.5295	91.3754
3.5271	91.3793
3.5247	91.415
3.52231	91.3554
3.51991	91.2622
3.51753	91.1555
3.51514	91.049
3.51276	90.9456
3.51038	90.7812
3.50801	90.7194
3.50563	90.7371
3.50327	90.7366
3.5009	90.777
3.49854	90.8266
3.49618	90.8485
3.49382	90.8661
3.49147	90.8008
3.48912	90.7828
3.48677	90.7787
3.48443	90.7609
3.48209	90.8588
3.47975	90.8594
3.47742	90.8924
3.47509	90.9361
3.47276	90.834
3.47044	90.7859
3.46812	90.8136
3.4658	90.8093
3.46348	90.7861
3.46117	90.7495
3.45886	90.7734
3.45656	90.8268
3.45425	90.7796
3.45195	90.7534
3.44966	90.7752
3.44736	90.686
3.44507	90.5206
3.44279	90.4892
3.4405	90.5724
3.43822	90.5383
3.43594	90.5317
3.43367	90.5387
3.43139	90.4355
3.42912	90.3021
3.42686	90.2496
3.42459	90.2064
3.42233	90.2429
3.42007	90.2245
3.41782	90.2004
3.41557	90.2616
3.41332	90.2786
3.41108	90.254
3.40883	90.2522
3.40659	90.2564
3.40435	90.384
3.40212	90.5238
3.39989	90.5136
3.39766	90.5576
3.39544	90.7026
3.39322	90.7279
3.391	90.6338
3.38878	90.5903
3.38657	90.5802
3.38436	90.5501
3.38215	90.5412
3.37994	90.6053
3.37774	90.6199
3.37554	90.6127
3.37335	90.6698
3.37115	90.7178
3.36896	90.7951
3.36678	90.843
3.36459	90.7539
3.36241	90.7596
3.36023	90.8239
3.35805	90.7822
3.35588	90.813
3.35371	90.8742
3.35154	90.8454
3.34938	90.803
3.34721	90.7549
3.34505	90.8547
3.3429	91.0117
3.34074	91.0425
3.33859	90.9438
3.33644	90.9226
3.3343	91.009
3.33215	90.9825
3.33001	90.9763
3.32788	90.9888
3.32574	90.966
3.32361	91.03
3.32148	91.1525
3.31936	91.0914
3.31723	90.9582
3.31511	90.94
3.31299	90.9822
3.31088	90.9494
3.30876	90.856
3.30665	90.9405
3.30455	91.0392
3.30244	91.0083
3.30034	91.0041
3.29824	90.9382
3.29614	90.9155
3.29405	90.9712
3.29196	90.9772
3.28987	90.9942
3.28778	90.9294
3.2857	90.8754
3.28362	90.8174
3.28154	90.7829
3.27946	90.7629
3.27739	90.7762
3.27532	90.8727
3.27325	90.9768
3.27119	91.0035
3.26913	90.911
3.26707	90.8087
3.26501	90.8172
3.26295	90.8244
3.2609	90.7983
3.25885	90.8089
3.2568	90.7541
3.25476	90.8074
3.25272	90.8598
3.25068	90.7938
3.24864	90.7654
3.24661	90.6915
3.24458	90.771
3.24255	90.793
3.24052	90.7645
3.2385	90.6686
3.23648	90.6627
3.23446	90.7338
3.23244	90.7212
3.23043	90.6874
3.22841	90.6299
3.2264	90.6954
3.2244	90.7231
3.22239	90.6671
3.22039	90.6292
3.21839	90.6469
3.2164	90.5456
3.2144	90.4708
3.21241	90.5226
3.21042	90.671
3.20844	90.681
3.20645	90.6413
3.20447	90.6881
3.20249	90.6714
3.20051	90.5913
3.19854	90.5196
3.19657	90.4636
3.1946	90.5024
3.19263	90.5428
3.19067	90.5171
3.1887	90.4744
3.18674	90.4467
3.18479	90.5178
3.18283	90.4843
3.18088	90.4332
3.17893	90.3923
3.17698	90.3894
3.17504	90.4276
3.17309	90.4501
3.17115	90.4593
3.16921	90.4001
3.16728	90.3778
3.16534	90.4038
3.16341	90.3914
3.16148	90.3616
3.15956	90.2949
3.15763	90.2263
3.15571	90.2499
3.15379	90.2825
3.15187	90.1905
3.14996	90.1693
3.14805	90.2504
3.14614	90.2904
3.14423	90.2685
3.14232	90.2173
3.14042	90.1792
3.13852	90.212
3.13662	90.1888
3.13472	90.1474
3.13283	90.0848
3.13094	90.0692
3.12905	90.1534
3.12716	90.1366
3.12528	90.1085
3.12339	90.0419
3.12151	89.9819
3.11964	90.0025
3.11776	90.0274
3.11589	90.0472
3.11401	90.0114
3.11214	89.9719
3.11028	89.8523
3.10841	89.828
3.10655	89.84
3.10469	89.8591
3.10283	89.8837
3.10098	89.9653
3.09912	90.0165
3.09727	89.9201
3.09542	89.9097
3.09358	89.9015
3.09173	89.8257
3.08989	89.8042
3.08805	89.8098
3.08621	89.742
3.08437	89.7066
3.08254	89.7603
3.08071	89.8013
3.07888	89.8648
3.07705	89.8305
3.07523	89.728
3.0734	89.6538
3.07158	89.6051
3.06977	89.6545
3.06795	89.6915
3.06613	89.6385
3.06432	89.5946
3.06251	89.5378
3.0607	89.4829
3.0589	89.5199
3.0571	89.6391
3.05529	89.7037
3.05349	89.6991
3.0517	89.6152
3.0499	89.5223
3.04811	89.52
3.04632	89.5044
3.04453	89.5035
3.04274	89.5503
3.04096	89.5548
3.03918	89.5286
3.0374	89.506
3.03562	89.5091
3.03384	89.5303
3.03207	89.5329
3.03029	89.5423
3.02852	89.4968
3.02676	89.4355
3.02499	89.3956
3.02323	89.4276
3.02146	89.4568
3.0197	89.3684
3.01795	89.3364
3.01619	89.4404
3.01444	89.5126
3.01269	89.4653
3.01094	89.3799
3.00919	89.4724
3.00744	89.4875
3.0057	89.4033
3.00396	89.3962
3.00222	89.3841
3.00048	89.3595
2.99875	89.3067
2.99701	89.3463
2.99528	89.4853
2.99355	89.5025
2.99183	89.3701
2.9901	89.3421
2.98838	89.4244
2.98666	89.5604
2.98494	89.5218
2.98322	89.4732
2.9815	89.5289
2.97979	89.4784
2.97808	89.3355
2.97637	89.291
2.97466	89.3119
2.97295	89.3285
2.97125	89.3929
2.96955	89.502
2.96785	89.4815
2.96615	89.4014
2.96446	89.3811
2.96276	89.2902
2.96107	89.3597
2.95938	89.4602
2.95769	89.3517
2.95601	89.3179
2.95432	89.3326
2.95264	89.3666
2.95096	89.4416
2.94928	89.4885
2.9476	89.3128
2.94593	89.2361
2.94425	89.3303
2.94258	89.34
2.94092	89.4
2.93925	89.4782
2.93758	89.4321
2.93592	89.4744
2.93426	89.4507
2.9326	89.4343
2.93094	89.5183
2.92928	89.5271
2.92763	89.4538
2.92598	89.4609
2.92433	89.4813
2.92268	89.4984
2.92103	89.4897
2.91939	89.4752
2.91775	89.5116
2.9161	89.4895
2.91447	89.5562
2.91283	89.5459
2.91119	89.4274
2.90956	89.4672
2.90793	89.5604
2.9063	89.5617
2.90467	89.5416
2.90304	89.514
2.90142	89.6057
2.89979	89.6684
2.89817	89.5842
2.89656	89.6222
2.89494	89.6551
2.89332	89.6259
2.89171	89.676
2.8901	89.7116
2.88849	89.7066
2.88688	89.7292
2.88527	89.6763
2.88367	89.6427
2.88206	89.5744
2.88046	89.4255
2.87886	89.5258
2.87727	89.7266
2.87567	89.7308
2.87408	89.7266
2.87248	89.778
2.87089	89.8158
2.8693	89.7843
2.86772	89.7681
2.86613	89.7684
2.86455	89.7649
2.86297	89.8336
2.86139	89.849
2.85981	89.8687
2.85823	89.9119
2.85666	89.9506
2.85508	89.8759
2.85351	89.8294
2.85194	89.8357
2.85038	89.8641
2.84881	89.9444
2.84724	89.9289
2.84568	89.9111
2.84412	89.7636
2.84256	89.6584
2.841	89.6512
2.83945	89.7747
2.83789	89.9787
2.83634	89.968
2.83479	89.9428
2.83324	89.8638
2.83169	89.8874
2.83015	90.0383
2.82861	89.9582
2.82706	89.947
2.82552	89.903
2.82398	89.8351
2.82245	89.8774
2.82091	90.0257
2.81938	90.0765
2.81784	90.0027
2.81631	89.9835
2.81479	90.0232
2.81326	90.0231
2.81173	90.0119
2.81021	89.9232
2.80869	89.9987
2.80716	90.1712
2.80565	90.226
2.80413	90.2617
2.80261	90.2177
2.8011	90.0746
2.79959	89.9868
2.79808	90.0384
2.79657	90.0044
2.79506	89.8644
2.79355	89.831
2.79205	89.8819
2.79055	90.1819
2.78904	90.2335
2.78754	90.2514
2.78605	90.1946
2.78455	90.0856
2.78306	89.8009
2.78156	89.7882
2.78007	90.0889
2.77858	90.1469
2.77709	90.216
2.77561	89.7906
2.77412	89.7448
2.77264	89.9405
2.77116	90.082
2.76968	90.0312
2.7682	89.9709
2.76672	89.9994
2.76524	89.8834
2.76377	89.8082
2.7623	89.7483
2.76083	89.7174
2.75936	89.8464
2.75789	90.0048
2.75642	90.2271
2.75496	90.4845
2.7535	90.4718
2.75203	90.2725
2.75057	90.1911
2.74912	90.1219
2.74766	90.1159
2.7462	90.0833
2.74475	90.1561
2.7433	90.3234
2.74185	90.5654
2.7404	90.7048
2.73895	90.5421
2.7375	90.4157
2.73606	90.6161
2.73462	90.5899
2.73318	90.4626
2.73174	90.4532
2.7303	90.7088
2.72886	90.7554
2.72742	90.7194
2.72599	90.8038
2.72456	91.0134
2.72313	91.0104
2.7217	91.1306
2.72027	91.3587
2.71884	91.1386
2.71742	91.0176
2.71599	91.0377
2.71457	90.9829
2.71315	90.9794
2.71173	91.173
2.71032	91.2562
2.7089	91.1268
2.70748	91.0061
2.70607	90.8583
2.70466	90.852
2.70325	90.9878
2.70184	91.1913
2.70043	91.3042
2.69903	91.2686
2.69762	91.4083
2.69622	91.6734
2.69482	91.934
2.69342	91.9397
2.69202	91.7294
2.69062	91.629
2.68923	91.6814
2.68783	91.8109
2.68644	91.8654
2.68505	91.8743
2.68366	91.8647
2.68227	91.8694
2.68089	91.9187
2.6795	92.131
2.67812	92.2465
2.67673	92.2643
2.67535	92.0757
2.67397	91.947
2.6726	92.0798
2.67122	92.5776
2.66984	92.6444
2.66847	92.2589
2.6671	92.3442
2.66572	92.4659
2.66435	92.2503
2.66299	92.1141
2.66162	92.1193
2.66025	92.0507
2.65889	91.9905
2.65753	91.9719
2.65616	92.0673
2.65481	92.0757
2.65345	92.08
2.65209	92.1721
2.65073	92.0672
2.64938	91.9125
2.64803	91.8769
2.64667	92.0408
2.64532	92.1059
2.64397	91.9343
2.64263	91.9211
2.64128	91.9723
2.63994	91.8374
2.63859	91.8664
2.63725	92.0724
2.63591	92.0909
2.63457	92.0653
2.63323	92.0372
2.6319	92.1224
2.63056	92.1884
2.62923	92.0577
2.62789	92.1023
2.62656	92.2651
2.62523	92.1961
2.6239	91.9855
2.62258	91.964
2.62125	92.2035
2.61993	92.2658
2.6186	92.1292
2.61728	92.2633
2.61596	92.1024
2.61464	91.9875
2.61332	92.0521
2.61201	92.0832
2.61069	92.1044
2.60938	92.1209
2.60807	92.0194
2.60675	92.1599
2.60544	92.2696
2.60414	92.1152
2.60283	92.1661
2.60152	92.2076
2.60022	92.1955
2.59891	92.0945
2.59761	91.9748
2.59631	92.2926
2.59501	92.7331
2.59371	92.4927
2.59242	92.0527
2.59112	91.9367
2.58983	92.0165
2.58853	92.1212
2.58724	92.175
2.58595	92.1021
2.58466	92.0924
2.58338	92.1212
2.58209	92.1151
2.5808	92.148
2.57952	92.1671
2.57824	92.2479
2.57695	92.2225
2.57567	92.1455
2.5744	92.1181
2.57312	92.0806
2.57184	91.9857
2.57057	92.0212
2.56929	91.9945
2.56802	91.8196
2.56675	91.7884
2.56548	91.9426
2.56421	92.1338
2.56294	92.2158
2.56168	92.1542
2.56041	92.1299
2.55915	92.079
2.55789	91.9874
2.55662	92.0287
2.55536	92.0099
2.5541	92.0081
2.55285	92.0058
2.55159	91.9396
2.55034	91.9015
2.54908	91.913
2.54783	91.974
2.54658	91.9662
2.54533	91.9523
2.54408	91.9222
2.54283	91.8307
2.54159	91.9586
2.54034	92.0331
2.5391	91.886
2.53785	91.921
2.53661	92.0186
2.53537	91.9816
2.53413	91.9718
2.53289	91.9881
2.53166	91.9731
2.53042	92.0031
2.52919	91.9267
2.52795	91.8141
2.52672	91.8715
2.52549	91.9279
2.52426	91.7695
2.52303	91.7977
2.52181	91.9153
2.52058	91.9711
2.51936	91.9809
2.51813	91.8901
2.51691	91.7831
2.51569	91.8106
2.51447	91.8117
2.51325	91.7453
2.51203	91.7547
2.51082	91.7785
2.5096	91.7902
2.50839	91.847
2.50717	91.9803
2.50596	92.0485
2.50475	91.9962
2.50354	92.0142
2.50233	91.9119
2.50113	91.8062
2.49992	91.913
2.49872	91.9905
2.49751	91.981
2.49631	91.9652
2.49511	91.8835
2.49391	91.8
2.49271	91.7038
2.49151	91.6601
2.49031	91.7506
2.48912	91.8677
2.48792	91.8829
2.48673	91.9096
2.48554	91.9986
2.48435	91.9281
2.48316	91.7942
2.48197	91.8504
2.48078	91.8959
2.4796	91.8765
2.47841	91.8923
2.47723	91.8107
2.47604	91.77
2.47486	91.7893
2.47368	91.7317
2.4725	91.8528
2.47132	91.9697
2.47014	91.9211
2.46897	91.9243
2.46779	91.9379
2.46662	91.8933
2.46545	91.761
2.46427	91.7997
2.4631	91.8729
2.46193	91.986
2.46077	91.9901
2.4596	91.8531
2.45843	91.7696
2.45727	91.7023
2.4561	91.6381
2.45494	91.6896
2.45378	91.7244
2.45262	91.6648
2.45146	91.5767
2.4503	91.637
2.44914	91.8046
2.44799	91.9232
2.44683	91.9447
2.44568	91.8632
2.44452	91.8101
2.44337	91.7776
2.44222	91.7873
2.44107	91.7899
2.43992	91.7619
2.43877	91.7837
2.43763	91.8118
2.43648	91.8332
2.43534	91.9313
2.43419	91.9927
2.43305	91.9914
2.43191	91.7716
2.43077	91.7277
2.42963	91.9152
2.42849	91.8862
2.42736	91.7278
2.42622	91.7228
2.42509	91.6903
2.42395	91.6593
2.42282	91.6275
2.42169	91.8027
2.42056	92.0278
2.41943	91.9537
2.4183	91.7381
2.41717	91.7292
2.41605	91.8063
2.41492	91.8246
2.4138	91.8327
2.41267	91.8775
2.41155	91.8288
2.41043	91.733
2.40931	91.6775
2.40819	91.7697
2.40707	91.9992
2.40595	92.1413
2.40484	92.026
2.40372	91.8733
2.40261	91.8978
2.4015	91.847
2.40039	91.8264
2.39928	91.9156
2.39817	91.8687
2.39706	91.8019
2.39595	91.8937
2.39484	91.9375
2.39374	91.814
2.39263	91.7449
2.39153	91.7158
2.39043	91.6693
2.38932	91.6695
2.38822	91.7543
2.38712	91.8034
2.38603	91.7629
2.38493	91.7433
2.38383	91.7526
2.38274	91.6846
2.38164	91.5781
2.38055	91.6023
2.37946	91.7418
2.37836	91.788
2.37727	91.828
2.37618	91.7768
2.3751	91.7231
2.37401	91.7822
2.37292	91.9031
2.37184	91.8578
2.37075	91.7305
2.36967	91.7435
2.36859	91.7028
2.3675	91.7367
2.36642	91.7278
2.36534	91.7014
2.36427	91.7028
2.36319	91.7444
2.36211	91.8425
2.36104	91.9273
2.35996	91.8216
2.35889	91.7814
2.35781	91.8269
2.35674	91.6877
2.35567	91.5678
2.3546	91.6799
2.35353	91.7826
2.35247	91.6236
2.3514	91.5895
2.35033	91.6017
2.34927	91.6146
2.3482	91.6941
2.34714	91.7459
2.34608	91.6367
2.34502	91.7569
2.34396	91.9088
2.3429	91.8299
2.34184	91.7763
2.34078	91.7345
2.33973	91.725
2.33867	91.8071
2.33762	91.7263
2.33656	91.632
2.33551	91.7715
2.33446	91.7661
2.33341	91.6418
2.33236	91.6365
2.33131	91.6689
2.33026	91.6766
2.32922	91.6386
2.32817	91.7635
2.32712	91.7507
2.32608	91.7341
2.32504	91.6965
2.324	91.7622
2.32295	91.7529
2.32191	91.7194
2.32087	91.8004
2.31984	91.7995
2.3188	91.7566
2.31776	91.6229
2.31673	91.5582
2.31569	91.6087
2.31466	91.7182
2.31362	91.7345
2.31259	91.643
2.31156	91.7117
2.31053	91.7973
2.3095	91.6247
2.30847	91.5066
2.30745	91.6951
2.30642	91.8008
2.3054	91.7383
2.30437	91.8167
2.30335	91.8503
2.30232	91.6921
2.3013	91.6614
2.30028	91.6312
2.29926	91.5258
2.29824	91.5046
2.29722	91.6896
2.29621	91.6717
2.29519	91.6206
2.29417	91.6982
2.29316	91.6521
2.29215	91.7166
2.29113	91.74
2.29012	91.7113
2.28911	91.7897
2.2881	91.6778
2.28709	91.6608
2.28608	91.6927
2.28507	91.6629
2.28407	91.7595
2.28306	91.6625
2.28206	91.5779
2.28105	91.4583
2.28005	91.3044
2.27905	91.4768
2.27805	91.6757
2.27705	91.714
2.27605	91.7276
2.27505	91.6662
2.27405	91.5851
2.27305	91.6329
2.27206	91.7505
2.27106	91.7864
2.27007	91.7571
2.26907	91.679
2.26808	91.5935
2.26709	91.4915
2.2661	91.575
2.26511	91.6521
2.26412	91.5621
2.26313	91.5734
2.26214	91.6549
2.26116	91.615
2.26017	91.6257
2.25919	91.6843
2.2582	91.5598
2.25722	91.6149
2.25624	91.7489
2.25526	91.6863
2.25428	91.5963
2.2533	91.6871
2.25232	91.7986
2.25134	91.6469
2.25036	91.6279
2.24939	91.63
2.24841	91.6107
2.24744	91.6717
2.24646	91.7106
2.24549	91.6993
2.24452	91.6515
2.24355	91.6362
2.24257	91.5908
2.24161	91.6063
2.24064	91.6396
2.23967	91.6518
2.2387	91.6036
2.23774	91.6386
2.23677	91.6611
2.23581	91.5771
2.23484	91.5379
2.23388	91.5688
2.23292	91.6851
2.23196	91.6528
2.231	91.6361
2.23004	91.6559
2.22908	91.5764
2.22812	91.597
2.22716	91.621
2.22621	91.6449
2.22525	91.57
2.2243	91.4392
2.22334	91.3785
2.22239	91.4384
2.22144	91.7261
2.22049	91.8105
2.21953	91.7573
2.21859	91.6953
2.21764	91.6113
2.21669	91.552
2.21574	91.3977
2.21479	91.3984
2.21385	91.6925
2.2129	91.8568
2.21196	91.645
2.21102	91.4721
2.21007	91.5094
2.20913	91.5997
2.20819	91.6191
2.20725	91.6137
2.20631	91.6628
2.20537	91.6364
2.20444	91.5828
2.2035	91.5474
2.20256	91.6881
2.20163	91.7851
2.20069	91.7165
2.19976	91.6563
2.19883	91.5283
2.19789	91.5366
2.19696	91.6371
2.19603	91.6387
2.1951	91.4803
2.19417	91.5776
2.19325	91.7995
2.19232	91.7471
2.19139	91.5979
2.19047	91.5169
2.18954	91.5476
2.18862	91.4575
2.18769	91.438
2.18677	91.4797
2.18585	91.4781
2.18493	91.5185
2.18401	91.5974
2.18309	91.6858
2.18217	91.6796
2.18125	91.6835
2.18033	91.6619
2.17942	91.5905
2.1785	91.6248
2.17759	91.6569
2.17667	91.5944
2.17576	91.5888
2.17485	91.539
2.17393	91.4107
2.17302	91.4811
2.17211	91.5983
2.1712	91.5863
2.17029	91.5372
2.16939	91.4953
2.16848	91.4261
2.16757	91.3777
2.16667	91.275
2.16576	91.3356
2.16486	91.3986
2.16395	91.4463
2.16305	91.5417
2.16215	91.5603
2.16125	91.5083
2.16035	91.4532
2.15945	91.5866
2.15855	91.7218
2.15765	91.6304
2.15675	91.572
2.15586	91.4828
2.15496	91.4126
2.15406	91.4809
2.15317	91.6022
2.15228	91.6184
2.15138	91.4956
2.15049	91.5419
2.1496	91.6626
2.14871	91.6618
2.14782	91.3723
2.14693	91.238
2.14604	91.3949
2.14515	91.4945
2.14427	91.4573
2.14338	91.4674
2.14249	91.5666
2.14161	91.4342
2.14072	91.6331
2.13984	91.6465
2.13896	91.2667
2.13808	91.2439
2.13719	91.4434
2.13631	91.4588
2.13543	91.1746
2.13455	91.2901
2.13368	91.4828
2.1328	91.3751
2.13192	91.4695
2.13105	91.5834
2.13017	91.6085
2.1293	91.5483
2.12842	91.4734
2.12755	91.5073
2.12668	91.3966
2.1258	91.3392
2.12493	91.5091
2.12406	91.485
2.12319	91.4933
2.12232	91.5874
2.12145	91.5811
2.12059	91.4241
2.11972	91.429
2.11885	91.4368
2.11799	91.4553
2.11712	91.4306
2.11626	91.429
2.1154	91.3353
2.11453	91.2737
2.11367	91.1879
2.11281	91.276
2.11195	91.6296
2.11109	91.6618
2.11023	91.4446
2.10937	91.4297
2.10851	91.5141
2.10766	91.3722
2.1068	91.4537
2.10594	91.5338
2.10509	91.3266
2.10423	91.4092
2.10338	91.4407
2.10253	91.369
2.10168	91.4651
2.10082	91.6189
2.09997	91.6123
2.09912	91.4298
2.09827	91.4187
2.09742	91.4271
2.09658	91.4779
2.09573	91.5826
2.09488	91.4808
2.09404	91.2028
2.09319	91.2082
2.09235	91.386
2.0915	91.3783
2.09066	91.3374
2.08982	91.3875
2.08897	91.2976
2.08813	91.1514
2.08729	91.1579
2.08645	91.203
2.08561	91.2282
2.08477	91.1994
2.08394	91.2588
2.0831	91.1962
2.08226	91.3377
2.08143	91.6111
2.08059	91.5725
2.07976	91.3892
2.07892	91.1439
2.07809	91.2546
2.07726	91.5774
2.07643	91.3728
2.07559	91.1967
2.07476	91.2188
2.07393	91.2239
2.0731	91.2721
2.07228	91.3834
2.07145	91.3485
2.07062	91.3802
2.06979	91.3801
2.06897	91.4813
2.06814	91.6828
2.06732	91.7095
2.06649	91.4842
2.06567	91.2589
2.06485	91.1847
2.06403	91.1709
2.0632	91.2568
2.06238	91.5131
2.06156	91.6275
2.06074	91.4013
2.05993	91.3803
2.05911	91.2548
2.05829	91.1418
2.05747	91.3557
2.05666	91.5305
2.05584	91.5079
2.05503	91.2328
2.05421	91.2728
2.0534	91.6183
2.05259	91.5537
2.05177	91.2397
2.05096	91.1326
2.05015	91.3153
2.04934	91.3634
2.04853	91.3661
2.04772	91.2621
2.04691	91.1863
2.04611	91.3792
2.0453	91.6071
2.04449	91.3304
2.04369	91.1843
2.04288	91.1261
2.04208	91.081
2.04127	91.1968
2.04047	91.2656
2.03967	91.1809
2.03886	91.2069
2.03806	91.2364
2.03726	91.1807
2.03646	91.2023
2.03566	91.368
2.03486	91.4051
2.03407	91.2629
2.03327	91.1617
2.03247	91.3934
2.03167	91.5738
2.03088	91.356
2.03008	90.9692
2.02929	91.0114
2.0285	91.2334
2.0277	91.4736
2.02691	91.6025
2.02612	91.6516
2.02533	91.6489
2.02453	91.4472
2.02374	91.2385
2.02295	91.3088
2.02217	91.5073
2.02138	91.5115
2.02059	91.4868
2.0198	91.5543
2.01902	91.179
2.01823	91.3075
2.01744	91.7059
2.01666	91.6657
2.01588	91.2743
2.01509	90.8885
2.01431	91.106
2.01353	91.473
2.01275	91.5776
2.01196	91.226
2.01118	91.1357
2.0104	91.3482
2.00963	91.3862
2.00885	91.303
2.00807	91.3156
2.00729	91.5524
2.00651	91.6155
2.00574	91.6627
2.00496	91.5633
2.00419	91.1923
2.00341	91.1837
2.00264	91.2594
2.00187	91.2774
2.00109	91.2977
2.00032	90.9661
