Name: Sulphur S
Type: Mineral
Class: Elements
Subclass: 
Particle Size: 125-500um
Sample No.: E-2A
Owner: JPL
Wavelength range: IR
Origin: 
Collected by JPL
Description: 





Measurement: Hemispherical reflectance
First Column: X
Second Column: Y
X Units:  Wavelength (micrometers)
Y Units:  Reflectance (percent)
First X Value: 15.3853
Last X Value: 2.00032
Number of X Values: 2256
Additional information: e02aa.txt
 
15.3853	18.5404
15.3397	17.1237
15.2945	16.3136
15.2495	15.6865
15.2048	15.4518
15.1603	15.9686
15.1161	16.9927
15.0722	18.2092
15.0285	19.3279
14.9851	20.3743
14.9419	21.8809
14.8989	23.8007
14.8563	25.4554
14.8138	26.1178
14.7716	25.9023
14.7296	25.0904
14.6879	24.3897
14.6464	24.1014
14.6052	24.5587
14.5641	26.5931
14.5233	30.0407
14.4828	34.2873
14.4424	37.8226
14.4023	39.7678
14.3624	40.1509
14.3227	39.5498
14.2833	38.122
14.244	35.9436
14.205	33.6011
14.1662	31.7281
14.1276	30.522
14.0892	29.8036
14.051	29.337
14.0131	29.6065
13.9753	30.919
13.9377	33.2111
13.9004	36.5055
13.8632	40.3998
13.8262	44.2145
13.7895	47.4476
13.7529	49.8022
13.7165	51.3101
13.6803	52.2126
13.6443	52.8705
13.6085	53.4148
13.5729	53.9737
13.5374	54.6941
13.5022	55.3653
13.4671	56.1848
13.4322	57.0406
13.3975	57.7507
13.363	58.5602
13.3286	59.4149
13.2944	60.1325
13.2604	60.7553
13.2266	61.2972
13.193	61.7373
13.1595	62.1951
13.1262	62.4933
13.093	62.6815
13.06	62.7708
13.0272	62.7399
12.9946	62.6461
12.9621	62.4341
12.9298	62.0664
12.8976	61.5636
12.8656	60.8258
12.8337	59.9295
12.8021	58.8403
12.7705	57.5536
12.7391	56.1788
12.7079	54.7496
12.6769	53.3159
12.6459	51.8524
12.6152	50.3093
12.5845	48.8072
12.5541	47.4613
12.5238	46.0541
12.4936	44.6327
12.4635	43.204
12.4337	41.6825
12.4039	39.8298
12.3743	37.6407
12.3448	35.3635
12.3155	32.9663
12.2863	30.2889
12.2573	27.5276
12.2284	24.8647
12.1996	22.4403
12.171	20.1415
12.1425	17.9482
12.1141	16.1883
12.0859	14.5961
12.0578	13.1031
12.0298	11.8193
12.0019	10.8082
11.9742	9.98622
11.9466	9.29307
11.9192	8.69654
11.8918	8.23183
11.8646	7.85382
11.8375	7.57944
11.8106	7.47257
11.7837	7.71304
11.757	8.63921
11.7304	10.3204
11.7039	12.7437
11.6776	15.1377
11.6513	16.8212
11.6252	17.8923
11.5992	18.4454
11.5733	18.7523
11.5475	19.1802
11.5219	19.6565
11.4963	20.2625
11.4709	21.0135
11.4455	21.8878
11.4203	23.0362
11.3952	24.6436
11.3702	26.6103
11.3454	28.7472
11.3206	30.9425
11.2959	33.1431
11.2714	35.3945
11.2469	37.2832
11.2226	38.4262
11.1983	38.8421
11.1742	38.5739
11.1502	37.7501
11.1263	36.6201
11.1024	35.5498
11.0787	34.8926
11.0551	34.9714
11.0316	36.2985
11.0081	39.108
10.9848	42.7356
10.9616	46.1477
10.9385	48.762
10.9154	50.2334
10.8925	50.5889
10.8697	50.0108
10.8469	48.4308
10.8243	45.9967
10.8017	42.9735
10.7793	39.6087
10.7569	36.2075
10.7346	33.1563
10.7125	30.9787
10.6904	29.7535
10.6684	29.3342
10.6465	30.114
10.6247	32.5195
10.6029	36.4948
10.5813	41.3065
10.5597	46.2847
10.5383	50.6945
10.5169	54.1118
10.4956	56.6705
10.4744	58.5521
10.4533	60.1313
10.4323	61.4958
10.4113	62.6548
10.3904	63.6392
10.3697	64.5255
10.349	65.1735
10.3284	65.593
10.3078	65.9173
10.2874	66.0723
10.267	66.122
10.2467	66.0045
10.2265	65.7931
10.2064	65.5815
10.1863	65.354
10.1663	65.3784
10.1464	65.6312
10.1266	65.7734
10.1069	66.0476
10.0872	66.5731
10.0676	67.2118
10.0481	68.0554
10.0287	68.9956
10.0093	69.8447
9.99005	70.6088
9.97084	71.1783
9.95169	71.5188
9.93263	71.6756
9.91364	71.798
9.89472	71.9127
9.87587	72.0007
9.8571	71.9227
9.83839	71.8019
9.81976	71.7628
9.80119	71.7685
9.78271	71.7491
9.76428	71.8819
9.74592	71.9921
9.72764	71.9962
9.70943	71.9868
9.69128	72.0045
9.6732	71.7997
9.65518	71.4744
9.63724	71.1821
9.61935	70.839
9.60155	70.3981
9.5838	70.0685
9.56611	69.7399
9.5485	69.4697
9.53094	69.3133
9.51345	69.1949
9.49604	69.2021
9.47867	69.2688
9.46137	69.4454
9.44414	69.7444
9.42697	70.1642
9.40986	70.8745
9.39281	71.7115
9.37583	72.5347
9.35891	73.1666
9.34204	73.5669
9.32524	73.8457
9.3085	73.8374
9.29182	73.6911
9.27519	73.5675
9.25863	73.4334
9.24213	73.2595
9.22568	72.9962
9.2093	72.9161
9.19297	73.0056
9.17669	73.0956
9.16048	73.2744
9.14433	73.4847
9.12823	73.7344
9.11218	73.9356
9.0962	74.1027
9.08027	74.2356
9.06439	74.1463
9.04858	74.0019
9.03281	73.8573
9.0171	73.5916
9.00145	73.2587
8.98585	72.8152
8.9703	72.388
8.9548	72.1104
8.93937	71.8675
8.92398	71.7517
8.90865	71.6434
8.89337	71.6772
8.87814	71.7314
8.86296	71.7577
8.84784	71.9376
8.83277	72.2638
8.81774	72.5424
8.80277	72.7791
8.78786	72.9745
8.77298	73.2703
8.75816	73.6584
8.7434	74.1366
8.72868	74.5666
8.714	75.085
8.69938	75.586
8.68481	76.112
8.67029	76.6563
8.65581	77.2005
8.64139	77.6381
8.62701	78.0705
8.61268	78.5185
8.5984	78.8869
8.58416	79.0148
8.56997	79.0578
8.55583	79.2092
8.54174	79.352
8.52769	79.4143
8.51368	79.5155
8.49973	79.6535
8.48582	79.7919
8.47195	79.8634
8.45813	80.0563
8.44436	80.3938
8.43062	80.6645
8.41693	80.9173
8.4033	81.128
8.3897	81.3706
8.37614	81.5774
8.36264	81.6646
8.34917	81.7247
8.33574	81.753
8.32236	81.7536
8.30903	81.7579
8.29573	81.9096
8.28248	81.9973
8.26927	82.0393
8.2561	82.093
8.24298	82.0813
8.2299	81.9513
8.21685	81.8896
8.20385	81.818
8.19089	81.722
8.17797	81.4754
8.16509	81.1271
8.15225	80.7994
8.13946	80.4355
8.1267	80.0506
8.11398	79.6224
8.10131	78.9913
8.08867	78.3515
8.07606	77.7456
8.0635	77.0099
8.05099	76.1499
8.0385	75.2029
8.02606	74.2189
8.01366	73.1969
8.00129	72.0321
7.98896	70.7969
7.97667	69.5332
7.96442	68.1624
7.9522	66.726
7.94002	65.2512
7.92788	63.6958
7.91578	62.0258
7.90371	60.2795
7.89168	58.4202
7.87969	56.4405
7.86773	54.5157
7.85581	52.5609
7.84392	50.6884
7.83207	48.9791
7.82026	47.3768
7.80849	45.8617
7.79674	44.5293
7.78503	43.5124
7.77337	42.6423
7.76173	41.8287
7.75012	41.1264
7.73856	40.6288
7.72703	40.2752
7.71553	39.8514
7.70406	39.3788
7.69263	39.116
7.68123	39.0482
7.66987	39.1298
7.65855	39.3467
7.64725	39.755
7.63598	40.4336
7.62475	41.4044
7.61356	42.533
7.60239	43.8785
7.59126	45.4882
7.58017	47.3255
7.5691	49.2312
7.55806	51.0303
7.54707	52.5506
7.5361	53.7644
7.52516	54.6631
7.51425	55.4311
7.50338	56.1089
7.49253	56.7977
7.48172	57.6593
7.47094	58.6767
7.46019	59.6582
7.44947	60.5284
7.43879	61.5875
7.42813	62.8185
7.4175	64.0087
7.4069	65.0127
7.39634	65.7498
7.3858	66.3236
7.37529	66.7011
7.36482	66.8135
7.35437	66.9267
7.34396	67.1026
7.33357	67.0511
7.32321	66.7674
7.31288	66.9311
7.30258	67.4527
7.29231	68.2467
7.28207	69.4608
7.27185	70.596
7.26167	71.6537
7.25152	73.0608
7.24139	74.4647
7.23129	75.7493
7.22122	76.8351
7.21117	77.9237
7.20116	78.1844
7.19117	77.9589
7.18121	78.1356
7.17128	78.4718
7.16137	78.0328
7.1515	77.73
7.14164	77.3077
7.13182	76.7502
7.12203	76.8321
7.11225	76.992
7.10251	77.2003
7.0928	77.9302
7.08311	78.835
7.07344	79.6314
7.06381	80.4487
7.0542	81.7989
7.04461	82.7659
7.03506	82.0657
7.02552	81.7369
7.01601	81.6023
7.00653	81.3272
6.99708	81.3436
6.98765	81.1355
6.97824	80.8091
6.96886	81.2881
6.95951	81.9496
6.95018	80.9292
6.94087	80.3202
6.9316	80.2044
6.92234	80.189
6.91311	80.4239
6.90391	80.5809
6.89473	80.2395
6.88557	80.2321
6.87644	80.7574
6.86733	82.4792
6.85824	82.4148
6.84918	80.8047
6.84015	80.1992
6.83114	80.7481
6.82215	80.8572
6.81319	80.3291
6.80424	80.6422
6.79532	82.0806
6.78643	82.6326
6.77756	81.9599
6.76871	81.4895
6.75989	81.2559
6.75109	81.4153
6.74231	81.3553
6.73355	81.5941
6.72482	82.2241
6.71611	82.7668
6.70742	82.7072
6.69875	82.0832
6.69011	82.5962
6.68149	83.5426
6.67289	83.3069
6.66431	82.7692
6.65576	82.628
6.64722	84.0949
6.63871	86.2272
6.63022	85.3998
6.62175	83.8887
6.61331	83.6576
6.60488	83.7009
6.59648	84.3636
6.5881	84.7405
6.57974	85.4686
6.5714	86.4544
6.56308	85.922
6.55478	86.0597
6.54651	86.1401
6.53825	86.134
6.53001	86.6432
6.5218	87.6734
6.51361	87.5045
6.50544	88.1875
6.49729	90.6921
6.48915	91.1747
6.48104	89.8923
6.47295	89.1739
6.46488	88.5505
6.45683	88.499
6.4488	88.7325
6.44079	89.1211
6.4328	89.8894
6.42482	90.866
6.41687	93.2512
6.40894	92.5843
6.40103	89.9873
6.39314	89.4621
6.38526	89.5398
6.37741	90.0167
6.36957	90.5391
6.36176	89.844
6.35396	90.0373
6.34618	91.4251
6.33843	90.7926
6.33069	89.6105
6.32297	89.4433
6.31527	89.3863
6.30758	89.5009
6.29992	89.5523
6.29227	89.6089
6.28465	89.5737
6.27704	89.6931
6.26945	89.766
6.26188	89.7914
6.25432	89.8195
6.24679	89.8929
6.23927	89.8906
6.23177	89.9272
6.22429	89.9775
6.21683	90.0696
6.20938	89.9863
6.20195	89.8091
6.19454	90.2788
6.18715	91.5612
6.17978	90.924
6.17242	89.8442
6.16508	90.2726
6.15776	90.5235
6.15045	90.0662
6.14317	89.999
6.1359	89.6691
6.12864	89.3529
6.12141	90.1779
6.11419	91.4832
6.10699	90.4204
6.0998	89.0757
6.09263	88.6939
6.08549	88.7633
6.07835	89.7848
6.07123	90.1552
6.06413	89.0329
6.05705	89.81
6.04998	92.3783
6.04293	90.4063
6.0359	87.9031
6.02888	87.3299
6.02187	87.5257
6.01489	87.9891
6.00792	87.5138
6.00096	87.2025
5.99403	88.0744
5.98711	88.3284
5.9802	87.6311
5.97331	87.8894
5.96644	87.9302
5.95958	86.9286
5.95274	86.9257
5.94591	87.5537
5.9391	89.3238
5.9323	88.6254
5.92552	86.8495
5.91876	86.4405
5.91201	86.1409
5.90528	86.4522
5.89856	88.0058
5.89186	87.8115
5.88517	88.315
5.8785	88.5021
5.87184	86.5407
5.8652	86.4545
5.85857	86.1881
5.85196	85.7858
5.84536	85.6631
5.83878	85.9849
5.83221	86.766
5.82566	87.9333
5.81912	87.9551
5.81259	86.5782
5.80608	86.0612
5.79959	86.0862
5.79311	86.0191
5.78665	86.1358
5.78019	86.3591
5.77376	87.1867
5.76734	88.6451
5.76093	87.4881
5.75453	86.4363
5.74815	86.8785
5.74179	86.533
5.73543	86.2576
5.7291	86.2281
5.72277	86.566
5.71646	86.9664
5.71017	87.1249
5.70389	86.3483
5.69762	86.1203
5.69136	86.3948
5.68513	86.2388
5.6789	86.5519
5.67268	86.5174
5.66648	86.0193
5.6603	86.2965
5.65413	86.6385
5.64797	87.1157
5.64182	87.7786
5.63569	87.0962
5.62957	86.4745
5.62347	86.4874
5.61737	86.7291
5.61129	86.7398
5.60522	86.8849
5.59917	86.9124
5.59313	86.7425
5.5871	87.1735
5.58109	87.9976
5.57509	87.821
5.5691	87.1975
5.56312	87.2934
5.55716	87.5672
5.55121	87.652
5.54528	87.5051
5.53935	87.5287
5.53344	87.666
5.52754	87.9907
5.52166	88.2677
5.51578	88.4311
5.50992	88.511
5.50407	88.8267
5.49823	89.0499
5.49241	89.2502
5.4866	89.4599
5.4808	89.9232
5.47501	89.9811
5.46923	90.2287
5.46347	90.5167
5.45772	90.1238
5.45198	89.9744
5.44625	90.1707
5.44054	90.3402
5.43484	90.4941
5.42914	90.9617
5.42347	91.8296
5.4178	91.6908
5.41214	91.275
5.4065	91.2574
5.40087	91.2834
5.39525	91.4271
5.38964	91.5304
5.38404	91.5698
5.37846	91.6
5.37288	91.6225
5.36732	91.6503
5.36177	91.7552
5.35623	92.1479
5.35071	92.4864
5.34519	92.1963
5.33968	91.9149
5.33419	91.9336
5.32871	91.9576
5.32324	91.9594
5.31778	92.0181
5.31233	92.0931
5.30689	92.1323
5.30147	92.152
5.29605	92.3021
5.29065	92.4134
5.28525	92.2596
5.27987	92.2889
5.2745	92.3316
5.26914	92.2563
5.26379	92.2422
5.25845	92.3028
5.25312	92.3248
5.24781	92.3393
5.2425	92.4027
5.23721	92.4431
5.23192	92.3235
5.22665	92.2759
5.22138	92.3695
5.21613	92.6991
5.21089	92.717
5.20566	92.5456
5.20044	92.5896
5.19522	92.485
5.19002	92.4002
5.18483	92.3781
5.17965	92.3539
5.17448	92.365
5.16933	92.3882
5.16418	92.4259
5.15904	92.4236
5.15391	92.4789
5.14879	92.6484
5.14368	92.6173
5.13859	92.5286
5.1335	92.4785
5.12842	92.3761
5.12335	92.3431
5.1183	92.4049
5.11325	92.5125
5.10821	92.5309
5.10318	92.5176
5.09817	92.4897
5.09316	92.4337
5.08816	92.4884
5.08317	92.5839
5.07819	92.5018
5.07322	92.4266
5.06826	92.441
5.06331	92.4996
5.05837	92.5215
5.05344	92.5172
5.04852	92.4758
5.04361	92.4821
5.03871	92.5339
5.03382	92.5036
5.02894	92.476
5.02406	92.5924
5.0192	92.719
5.01435	92.6294
5.0095	92.5788
5.00467	92.564
4.99984	92.5342
4.99502	92.5303
4.99021	92.5379
4.98542	92.556
4.98063	92.5359
4.97585	92.5208
4.97108	92.5761
4.96632	92.6184
4.96156	92.5924
4.95682	92.6198
4.95209	92.5941
4.94736	92.6038
4.94264	92.6253
4.93794	92.591
4.93324	92.587
4.92855	92.6211
4.92387	92.6138
4.9192	92.6354
4.91453	92.6386
4.90988	92.5961
4.90524	92.5914
4.9006	92.6055
4.89597	92.5544
4.89135	92.5357
4.88674	92.5632
4.88214	92.6133
4.87755	92.6285
4.87296	92.6149
4.86839	92.6119
4.86382	92.5493
4.85926	92.5172
4.85471	92.5664
4.85017	92.5808
4.84564	92.5795
4.84111	92.5937
4.8366	92.5458
4.83209	92.5547
4.82759	92.5471
4.8231	92.5269
4.81862	92.4922
4.81415	92.4315
4.80968	92.4424
4.80522	92.4415
4.80077	92.4315
4.79633	92.4454
4.7919	92.4388
4.78747	92.4377
4.78306	92.4451
4.77865	92.4211
4.77425	92.4079
4.76986	92.3784
4.76547	92.3346
4.7611	92.3733
4.75673	92.4024
4.75237	92.3854
4.74802	92.359
4.74367	92.3227
4.73934	92.3295
4.73501	92.308
4.73069	92.3136
4.72638	92.2758
4.72207	92.2425
4.71777	92.2192
4.71348	92.2216
4.7092	92.2287
4.70493	92.2163
4.70066	92.2029
4.69641	92.1986
4.69216	92.1755
4.68791	92.1443
4.68368	92.168
4.67945	92.2146
4.67523	92.1745
4.67102	92.1265
4.66682	92.1229
4.66262	92.1049
4.65843	92.115
4.65425	92.1474
4.65007	92.1916
4.64591	92.2242
4.64175	92.1883
4.6376	92.1285
4.63345	92.1417
4.62932	92.1737
4.62519	92.1383
4.62106	92.1485
4.61695	92.1525
4.61284	92.1378
4.60874	92.1599
4.60465	92.195
4.60056	92.2012
4.59648	92.2654
4.59241	92.2955
4.58835	92.2739
4.58429	92.2765
4.58024	92.3058
4.5762	92.3086
4.57216	92.2859
4.56814	92.2752
4.56411	92.3063
4.5601	92.2899
4.55609	92.3229
4.55209	92.3401
4.5481	92.2784
4.54411	92.2637
4.54013	92.3628
4.53616	92.3814
4.5322	92.3292
4.52824	92.2931
4.52429	92.3261
4.52034	92.3283
4.51641	92.3126
4.51247	92.3865
4.50855	92.445
4.50463	92.4504
4.50072	92.4221
4.49682	92.3766
4.49292	92.4479
4.48903	92.4763
4.48515	92.4326
4.48127	92.4258
4.4774	92.4215
4.47354	92.4127
4.46968	92.4339
4.46584	92.4072
4.46199	92.3622
4.45815	92.3958
4.45432	92.4426
4.4505	92.3871
4.44668	92.3485
4.44287	92.3917
4.43907	92.4278
4.43527	92.4341
4.43148	92.4124
4.4277	92.3813
4.42392	92.3952
4.42015	92.3878
4.41638	92.4208
4.41262	92.405
4.40887	92.4055
4.40513	92.4044
4.40139	92.4089
4.39765	92.4283
4.39393	92.4444
4.39021	92.4173
4.38649	92.4047
4.38278	92.4186
4.37908	92.4404
4.37539	92.4342
4.3717	92.4243
4.36801	92.3902
4.36434	92.3755
4.36067	92.3891
4.357	92.3668
4.35335	92.3699
4.34969	92.3473
4.34605	92.2999
4.34241	92.2969
4.33877	92.281
4.33514	92.2233
4.33152	92.2387
4.32791	92.2883
4.3243	92.2642
4.32069	92.2093
4.3171	92.1223
4.31351	92.0587
4.30992	92.0128
4.30634	91.9165
4.30277	91.8745
4.2992	91.8591
4.29564	91.8055
4.29208	91.7229
4.28853	91.6678
4.28499	91.6525
4.28145	91.6438
4.27792	91.5929
4.27439	91.5578
4.27087	91.5874
4.26735	91.7078
4.26384	91.9059
4.26034	92.0405
4.25684	92.0817
4.25335	91.9971
4.24986	91.892
4.24638	91.7246
4.24291	91.5323
4.23944	91.4316
4.23598	91.3931
4.23252	91.3203
4.22906	91.3146
4.22562	91.3949
4.22218	91.5316
4.21874	91.6846
4.21531	91.7594
4.21189	91.8309
4.20847	91.9647
4.20506	92.0965
4.20165	92.1391
4.19825	92.142
4.19485	92.1833
4.19146	92.1522
4.18807	92.095
4.18469	92.0896
4.18132	92.0706
4.17795	92.0473
4.17458	92.0666
4.17123	92.0847
4.16787	92.035
4.16453	92.0412
4.16118	92.0758
4.15785	92.0387
4.15451	91.9315
4.15119	91.8498
4.14787	91.8845
4.14455	91.909
4.14124	91.9058
4.13794	91.8925
4.13464	91.9266
4.13134	91.9013
4.12805	91.8498
4.12477	91.8267
4.12149	91.839
4.11822	91.7871
4.11495	91.7393
4.11168	91.7405
4.10843	91.7128
4.10517	91.7097
4.10192	91.6752
4.09868	91.5754
4.09545	91.5428
4.09221	91.5201
4.08899	91.4519
4.08576	91.3147
4.08255	91.1494
4.07933	90.9933
4.07613	90.814
4.07292	90.6155
4.06973	90.536
4.06654	90.4365
4.06335	90.2715
4.06017	90.1191
4.05699	90.1136
4.05382	90.0976
4.05065	89.9731
4.04749	89.7693
4.04433	89.7123
4.04118	89.5681
4.03803	89.3157
4.03489	89.0844
4.03175	88.6307
4.02862	88.3025
4.02549	88.4519
4.02237	88.5123
4.01925	88.3211
4.01614	88.1937
4.01303	88.0581
4.00993	88.5084
4.00683	88.9113
4.00373	88.8108
4.00064	88.7597
3.99756	89.4238
3.99448	90.1742
3.9914	90.418
3.98833	90.5394
3.98527	90.7494
3.98221	90.8473
3.97915	90.8104
3.9761	90.7487
3.97305	90.6578
3.97001	90.6036
3.96697	90.5436
3.96394	90.5243
3.96091	90.5383
3.95789	90.5278
3.95487	90.4608
3.95186	90.4105
3.94885	90.3468
3.94584	90.2939
3.94284	90.2543
3.93984	90.2595
3.93685	90.2011
3.93386	90.0838
3.93088	90.026
3.9279	89.9292
3.92493	89.8858
3.92196	89.8769
3.919	89.8072
3.91604	89.7536
3.91308	89.7178
3.91013	89.632
3.90718	89.5334
3.90424	89.4962
3.9013	89.464
3.89837	89.4577
3.89544	89.4145
3.89252	89.3286
3.8896	89.3433
3.88668	89.3119
3.88377	89.1607
3.88086	89.1074
3.87796	89.1567
3.87506	89.1534
3.87217	89.1153
3.86928	89.1339
3.86639	89.1681
3.86351	89.1929
3.86064	89.2254
3.85776	89.279
3.8549	89.3197
3.85203	89.386
3.84917	89.4925
3.84631	89.5734
3.84346	89.5865
3.84062	89.6448
3.83777	89.6825
3.83494	89.7006
3.8321	89.774
3.82927	89.9061
3.82644	89.9302
3.82362	89.9661
3.82081	90.0842
3.81799	90.1933
3.81518	90.2786
3.81238	90.2525
3.80958	90.2468
3.80678	90.2791
3.80399	90.3332
3.8012	90.4356
3.79841	90.4724
3.79563	90.4954
3.79286	90.5626
3.79008	90.6389
3.78731	90.6123
3.78455	90.6024
3.78179	90.6409
3.77903	90.7215
3.77628	90.7325
3.77353	90.7324
3.77079	90.7522
3.76805	90.7663
3.76531	90.787
3.76258	90.8279
3.75985	90.8858
3.75713	90.8414
3.7544	90.8436
3.75169	90.9098
3.74898	90.9493
3.74627	90.9664
3.74356	90.9579
3.74086	91.0127
3.73816	91.0647
3.73547	91.0662
3.73278	91.0404
3.7301	91.0338
3.72741	91.0217
3.72474	91.0652
3.72206	91.1192
3.71939	91.0828
3.71673	91.1624
3.71406	91.2262
3.71141	91.1988
3.70875	91.1891
3.7061	91.1887
3.70345	91.2178
3.70081	91.2282
3.69817	91.2149
3.69553	91.2236
3.6929	91.2122
3.69027	91.2282
3.68765	91.2703
3.68503	91.263
3.68241	91.2257
3.6798	91.2263
3.67719	91.2558
3.67458	91.2597
3.67198	91.2517
3.66938	91.2303
3.66678	91.2754
3.66419	91.3263
3.66161	91.3445
3.65902	91.3187
3.65644	91.2972
3.65387	91.3213
3.65129	91.3662
3.64872	91.39
3.64616	91.3668
3.64359	91.376
3.64103	91.4887
3.63848	91.535
3.63593	91.5119
3.63338	91.4729
3.63084	91.4206
3.6283	91.4
3.62576	91.3544
3.62322	91.3156
3.62069	91.3322
3.61817	91.4033
3.61564	91.4292
3.61312	91.3968
3.61061	91.3593
3.6081	91.3551
3.60559	91.3637
3.60308	91.3621
3.60058	91.3458
3.59808	91.3409
3.59558	91.3298
3.59309	91.3087
3.59061	91.3007
3.58812	91.3067
3.58564	91.2811
3.58316	91.2564
3.58069	91.3012
3.57822	91.3163
3.57575	91.3191
3.57328	91.3214
3.57082	91.2518
3.56836	91.1955
3.56591	91.1709
3.56346	91.1427
3.56101	91.1254
3.55857	91.0744
3.55613	91.0631
3.55369	91.1021
3.55126	91.1115
3.54883	91.0602
3.5464	91.0061
3.54397	91.0092
3.54155	91.0555
3.53914	91.0327
3.53672	91.0342
3.53431	90.9944
3.5319	90.8738
3.5295	90.7775
3.5271	90.7008
3.5247	90.624
3.52231	90.495
3.51991	90.2879
3.51753	90.0683
3.51514	89.7961
3.51276	89.5397
3.51038	89.2835
3.50801	89.0039
3.50563	88.8653
3.50327	88.7739
3.5009	88.7809
3.49854	88.9521
3.49618	89.0718
3.49382	89.072
3.49147	89.1352
3.48912	89.2384
3.48677	89.2678
3.48443	89.2941
3.48209	89.2422
3.47975	89.1563
3.47742	89.1046
3.47509	89.0931
3.47276	89.1313
3.47044	89.1693
3.46812	89.1967
3.4658	89.1885
3.46348	89.1215
3.46117	89.1267
3.45886	89.0701
3.45656	88.9739
3.45425	88.9279
3.45195	88.9144
3.44966	88.8888
3.44736	88.7441
3.44507	88.5461
3.44279	88.4821
3.4405	88.4245
3.43822	88.2158
3.43594	88.0145
3.43367	87.8313
3.43139	87.5409
3.42912	87.1972
3.42686	86.7781
3.42459	86.4308
3.42233	86.255
3.42007	86.1566
3.41782	86.2059
3.41557	86.3696
3.41332	86.5538
3.41108	86.838
3.40883	87.2147
3.40659	87.4925
3.40435	87.731
3.40212	87.984
3.39989	88.3047
3.39766	88.5127
3.39544	88.5787
3.39322	88.59
3.391	88.5722
3.38878	88.4142
3.38657	88.2518
3.38436	88.1186
3.38215	87.7807
3.37994	87.5256
3.37774	87.4178
3.37554	87.2424
3.37335	87.0766
3.37115	86.8657
3.36896	86.6835
3.36678	86.6346
3.36459	86.8253
3.36241	87.1531
3.36023	87.521
3.35805	88.0605
3.35588	88.6688
3.35371	89.199
3.35154	89.6375
3.34938	89.9824
3.34721	90.2748
3.34505	90.4296
3.3429	90.6439
3.34074	90.8367
3.33859	90.8862
3.33644	90.9375
3.3343	91.0464
3.33215	91.103
3.33001	91.1956
3.32788	91.2796
3.32574	91.3375
3.32361	91.3432
3.32148	91.333
3.31936	91.3104
3.31723	91.2799
3.31511	91.2997
3.31299	91.3085
3.31088	91.3772
3.30876	91.4768
3.30665	91.4898
3.30455	91.3669
3.30244	91.3082
3.30034	91.3721
3.29824	91.4961
3.29614	91.5024
3.29405	91.4623
3.29196	91.4293
3.28987	91.4366
3.28778	91.409
3.2857	91.4283
3.28362	91.4564
3.28154	91.4631
3.27946	91.4273
3.27739	91.3625
3.27532	91.3607
3.27325	91.4937
3.27119	91.4912
3.26913	91.3871
3.26707	91.334
3.26501	91.3291
3.26295	91.3757
3.2609	91.3609
3.25885	91.3266
3.2568	91.3586
3.25476	91.3621
3.25272	91.2811
3.25068	91.2489
3.24864	91.3171
3.24661	91.3083
3.24458	91.3132
3.24255	91.289
3.24052	91.2788
3.2385	91.3012
3.23648	91.2571
3.23446	91.2641
3.23244	91.265
3.23043	91.2631
3.22841	91.2114
3.2264	91.1624
3.2244	91.2128
3.22239	91.2424
3.22039	91.2038
3.21839	91.1727
3.2164	91.1388
3.2144	91.1265
3.21241	91.1647
3.21042	91.1617
3.20844	91.1697
3.20645	91.1292
3.20447	91.1011
3.20249	91.132
3.20051	91.0919
3.19854	91.0479
3.19657	91.0215
3.1946	90.9716
3.19263	90.9877
3.19067	90.9801
3.1887	90.9136
3.18674	90.8877
3.18479	90.8111
3.18283	90.7458
3.18088	90.7415
3.17893	90.7119
3.17698	90.7359
3.17504	90.8663
3.17309	90.911
3.17115	90.7546
3.16921	90.5998
3.16728	90.5368
3.16534	90.6312
3.16341	90.613
3.16148	90.5134
3.15956	90.4835
3.15763	90.5615
3.15571	90.6285
3.15379	90.6136
3.15187	90.5368
3.14996	90.4001
3.14805	90.2979
3.14614	90.3252
3.14423	90.3374
3.14232	90.3066
3.14042	90.3186
3.13852	90.2687
3.13662	90.2372
3.13472	90.1783
3.13283	90.0795
3.13094	90.0362
3.12905	90.0514
3.12716	90.0476
3.12528	89.9799
3.12339	89.9738
3.12151	89.9261
3.11964	89.8622
3.11776	89.8521
3.11589	89.8855
3.11401	89.9201
3.11214	89.9529
3.11028	89.833
3.10841	89.7298
3.10655	89.7736
3.10469	89.7458
3.10283	89.6401
3.10098	89.6275
3.09912	89.6338
3.09727	89.6473
3.09542	89.6253
3.09358	89.5668
3.09173	89.487
3.08989	89.4604
3.08805	89.4754
3.08621	89.4346
3.08437	89.4077
3.08254	89.3996
3.08071	89.3277
3.07888	89.3593
3.07705	89.3506
3.07523	89.2654
3.0734	89.2349
3.07158	89.2163
3.06977	89.2157
3.06795	89.1119
3.06613	89.1349
3.06432	89.1657
3.06251	89.1465
3.0607	89.1063
3.0589	88.9838
3.0571	88.9702
3.05529	89.0054
3.05349	88.9389
3.0517	88.7923
3.0499	88.7324
3.04811	88.774
3.04632	88.7653
3.04453	88.7557
3.04274	88.8052
3.04096	88.7452
3.03918	88.6805
3.0374	88.7007
3.03562	88.6947
3.03384	88.6286
3.03207	88.691
3.03029	88.6512
3.02852	88.5691
3.02676	88.5847
3.02499	88.5397
3.02323	88.4598
3.02146	88.3726
3.0197	88.3594
3.01795	88.3202
3.01619	88.3087
3.01444	88.3502
3.01269	88.2831
3.01094	88.2585
3.00919	88.3207
3.00744	88.3072
3.0057	88.3663
3.00396	88.388
3.00222	88.3851
3.00048	88.3783
2.99875	88.41
2.99701	88.401
2.99528	88.3683
2.99355	88.4179
2.99183	88.4311
2.9901	88.4299
2.98838	88.4053
2.98666	88.3021
2.98494	88.19
2.98322	88.2377
2.9815	88.3766
2.97979	88.3978
2.97808	88.3531
2.97637	88.3421
2.97466	88.3956
2.97295	88.5011
2.97125	88.6019
2.96955	88.5528
2.96785	88.5105
2.96615	88.5082
2.96446	88.4877
2.96276	88.4768
2.96107	88.4539
2.95938	88.5085
2.95769	88.5169
2.95601	88.5068
2.95432	88.5045
2.95264	88.542
2.95096	88.5365
2.94928	88.6571
2.9476	88.7347
2.94593	88.6635
2.94425	88.6884
2.94258	88.7209
2.94092	88.7294
2.93925	88.7806
2.93758	88.7603
2.93592	88.6511
2.93426	88.6916
2.9326	88.8488
2.93094	88.899
2.92928	88.9736
2.92763	88.9748
2.92598	88.8445
2.92433	88.9847
2.92268	89.0894
2.92103	89.0653
2.91939	89.0987
2.91775	89.0971
2.9161	89.08
2.91447	89.1396
2.91283	89.2681
2.91119	89.3189
2.90956	89.3228
2.90793	89.3135
2.9063	89.31
2.90467	89.365
2.90304	89.4898
2.90142	89.5843
2.89979	89.5564
2.89817	89.5712
2.89656	89.6142
2.89494	89.6622
2.89332	89.6179
2.89171	89.5427
2.8901	89.5756
2.88849	89.6059
2.88688	89.6278
2.88527	89.7437
2.88367	89.7299
2.88206	89.7032
2.88046	89.8565
2.87886	89.9224
2.87727	89.8751
2.87567	89.891
2.87408	89.98
2.87248	90.1373
2.87089	90.233
2.8693	90.1229
2.86772	90.0525
2.86613	90.1553
2.86455	90.178
2.86297	90.0899
2.86139	90.1649
2.85981	90.3221
2.85823	90.3453
2.85666	90.3736
2.85508	90.576
2.85351	90.6499
2.85194	90.4413
2.85038	90.423
2.84881	90.5647
2.84724	90.5714
2.84568	90.4619
2.84412	90.3457
2.84256	90.4507
2.841	90.6588
2.83945	90.8194
2.83789	90.8511
2.83634	90.8371
2.83479	90.8322
2.83324	90.7315
2.83169	90.7048
2.83015	90.7936
2.82861	90.8301
2.82706	90.8097
2.82552	90.8176
2.82398	90.9022
2.82245	90.9979
2.82091	91.2434
2.81938	91.3262
2.81784	91.0645
2.81631	91.0698
2.81479	91.2067
2.81326	91.1299
2.81173	91.0957
2.81021	91.1437
2.80869	91.1463
2.80716	91.1218
2.80565	91.4132
2.80413	91.9681
2.80261	92.0498
2.8011	91.5625
2.79959	91.2485
2.79808	91.2275
2.79657	91.2922
2.79506	91.3278
2.79355	91.3278
2.79205	91.3456
2.79055	91.4312
2.78904	91.8069
2.78754	92.2596
2.78605	92.0865
2.78455	91.6552
2.78306	91.662
2.78156	91.7277
2.78007	91.6816
2.77858	91.638
2.77709	91.7277
2.77561	91.609
2.77412	91.6651
2.77264	92.0057
2.77116	92.4467
2.76968	92.3182
2.7682	92.1407
2.76672	91.9894
2.76524	91.9749
2.76377	92.4914
2.7623	92.5626
2.76083	91.8203
2.75936	91.5768
2.75789	92.0356
2.75642	93.3566
2.75496	93.7727
2.7535	92.4986
2.75203	92.037
2.75057	91.852
2.74912	91.746
2.74766	91.7977
2.7462	91.859
2.74475	91.8761
2.7433	92.2046
2.74185	93.2432
2.7404	94.177
2.73895	93.6743
2.7375	92.447
2.73606	92.4818
2.73462	92.7122
2.73318	92.0052
2.73174	91.7268
2.7303	91.7926
2.72886	91.8526
2.72742	92.0674
2.72599	92.9288
2.72456	93.7221
2.72313	93.0403
2.7217	93.5372
2.72027	94.2902
2.71884	92.9587
2.71742	92.279
2.71599	91.8749
2.71457	91.8413
2.71315	92.2087
2.71173	93.4746
2.71032	93.8264
2.7089	92.9624
2.70748	92.2029
2.70607	91.9579
2.70466	91.9451
2.70325	91.9844
2.70184	92.4059
2.70043	92.361
2.69903	92.0251
2.69762	92.0864
2.69622	92.6937
2.69482	93.4388
2.69342	93.434
2.69202	92.5185
2.69062	92.0736
2.68923	92.0749
2.68783	92.311
2.68644	92.5715
2.68505	92.5463
2.68366	92.6547
2.68227	92.3857
2.68089	92.4424
2.6795	93.3278
2.67812	93.5859
2.67673	93.8903
2.67535	93.2362
2.67397	92.4719
2.6726	92.728
2.67122	94.6337
2.66984	94.7711
2.66847	93.4553
2.6671	94.3599
2.66572	94.7563
2.66435	93.8037
2.66299	92.4582
2.66162	92.459
2.66025	92.6594
2.65889	92.5143
2.65753	92.0602
2.65616	92.3965
2.65481	92.4431
2.65345	92.6044
2.65209	92.6899
2.65073	92.2316
2.64938	92.0175
2.64803	92.1292
2.64667	92.3944
2.64532	92.4905
2.64397	92.1479
2.64263	92.2089
2.64128	92.1157
2.63994	91.9877
2.63859	91.952
2.63725	92.0233
2.63591	92.0987
2.63457	92.4841
2.63323	92.5049
2.6319	93.0794
2.63056	94.1929
2.62923	93.1794
2.62789	92.7416
2.62656	93.4277
2.62523	92.6209
2.6239	92.1735
2.62258	92.1919
2.62125	93.2218
2.61993	93.6853
2.6186	93.1669
2.61728	93.944
2.61596	93.4879
2.61464	92.4344
2.61332	92.5154
2.61201	92.3982
2.61069	92.5212
2.60938	92.7584
2.60807	92.9607
2.60675	93.5983
2.60544	94.1199
2.60414	93.3981
2.60283	92.8796
2.60152	92.6994
2.60022	92.3238
2.59891	92.1323
2.59761	92.6136
2.59631	94.2995
2.59501	96.2068
2.59371	94.7059
2.59242	92.7793
2.59112	92.3957
2.58983	92.6817
2.58853	93.03
2.58724	93.2079
2.58595	92.83
2.58466	93.472
2.58338	93.6315
2.58209	92.8691
2.5808	92.7501
2.57952	92.2252
2.57824	92.4938
2.57695	93.0002
2.57567	92.6956
2.5744	92.9621
2.57312	93.2309
2.57184	92.4897
2.57057	92.7922
2.56929	92.9369
2.56802	92.3706
2.56675	92.2107
2.56548	92.7274
2.56421	93.2904
2.56294	93.3285
2.56168	93.3978
2.56041	93.085
2.55915	92.4884
2.55789	92.1589
2.55662	92.0485
2.55536	92.1062
2.5541	92.4629
2.55285	92.79
2.55159	92.6106
2.55034	92.4044
2.54908	92.3223
2.54783	92.4046
2.54658	92.297
2.54533	92.2966
2.54408	92.5025
2.54283	92.6316
2.54159	92.4036
2.54034	92.2316
2.5391	92.1778
2.53785	92.142
2.53661	92.3442
2.53537	92.3868
2.53413	92.3089
2.53289	92.3409
2.53166	92.3564
2.53042	92.231
2.52919	92.0716
2.52795	92.1797
2.52672	92.3458
2.52549	92.3359
2.52426	92.271
2.52303	92.171
2.52181	92.1083
2.52058	92.168
2.51936	92.1659
2.51813	92.1297
2.51691	92.1046
2.51569	92.1894
2.51447	92.2661
2.51325	92.1651
2.51203	92.1221
2.51082	92.174
2.5096	92.1652
2.50839	92.1342
2.50717	92.2411
2.50596	92.2482
2.50475	92.1699
2.50354	92.1641
2.50233	92.1573
2.50113	92.1926
2.49992	92.1664
2.49872	92.1215
2.49751	92.1176
2.49631	92.137
2.49511	92.1391
2.49391	92.124
2.49271	92.1388
2.49151	92.179
2.49031	92.1991
2.48912	92.1158
2.48792	92.1547
2.48673	92.1549
2.48554	92.1102
2.48435	92.1705
2.48316	92.178
2.48197	92.1532
2.48078	92.0941
2.4796	92.1638
2.47841	92.2033
2.47723	92.1761
2.47604	92.0786
2.47486	92.0482
2.47368	92.1261
2.4725	92.13
2.47132	92.0695
2.47014	92.0872
2.46897	92.142
2.46779	92.1046
2.46662	92.1321
2.46545	92.0808
2.46427	92.1332
2.4631	92.209
2.46193	92.2239
2.46077	92.2083
2.4596	92.1766
2.45843	92.1562
2.45727	92.0561
2.4561	92.1192
2.45494	92.1399
2.45378	92.0985
2.45262	92.0539
2.45146	92.0101
2.4503	91.9634
2.44914	92.0726
2.44799	92.1241
2.44683	92.0959
2.44568	92.2128
2.44452	92.2751
2.44337	92.2644
2.44222	92.1693
2.44107	92.0536
2.43992	92.0243
2.43877	92.0095
2.43763	92.0612
2.43648	92.1373
2.43534	92.1821
2.43419	92.1898
2.43305	92.0991
2.43191	92.1528
2.43077	92.2408
2.42963	92.1821
2.42849	92.037
2.42736	92.0058
2.42622	92.0407
2.42509	92.022
2.42395	92.0449
2.42282	92.0337
2.42169	92.0288
2.42056	92.1978
2.41943	92.1637
2.4183	92.1202
2.41717	92.11
2.41605	91.9692
2.41492	91.8844
2.4138	92.086
2.41267	92.1993
2.41155	92.1322
2.41043	92.1066
2.40931	91.9777
2.40819	91.8868
2.40707	92.0338
2.40595	92.1823
2.40484	92.2049
2.40372	92.1763
2.40261	92.1218
2.4015	92.111
2.40039	92.0687
2.39928	92.1005
2.39817	92.2096
2.39706	92.2079
2.39595	92.1415
2.39484	92.1256
2.39374	92.0801
2.39263	92.0432
2.39153	92.1057
2.39043	92.2512
2.38932	92.2541
2.38822	92.1392
2.38712	92.1331
2.38603	92.1194
2.38493	92.2056
2.38383	92.2361
2.38274	92.2616
2.38164	92.2083
2.38055	92.1248
2.37946	92.1197
2.37836	92.1661
2.37727	92.2198
2.37618	92.2114
2.3751	92.0972
2.37401	92.0989
2.37292	92.1307
2.37184	92.1182
2.37075	92.1147
2.36967	92.1183
2.36859	92.0146
2.3675	91.9138
2.36642	91.992
2.36534	92.158
2.36427	92.2175
2.36319	92.2091
2.36211	92.174
2.36104	92.1408
2.35996	92.1326
2.35889	92.0888
2.35781	92.0204
2.35674	92.0785
2.35567	92.2082
2.3546	92.2318
2.35353	92.174
2.35247	92.2226
2.3514	92.2568
2.35033	92.1486
2.34927	92.0762
2.3482	92.0603
2.34714	92.0553
2.34608	92.0975
2.34502	92.1603
2.34396	92.1574
2.3429	92.1529
2.34184	92.1148
2.34078	92.0844
2.33973	92.0147
2.33867	92.0704
2.33762	92.0926
2.33656	92.0934
2.33551	92.1655
2.33446	92.1506
2.33341	92.1163
2.33236	92.0786
2.33131	92.0323
2.33026	92.1379
2.32922	92.164
2.32817	92.0847
2.32712	92.0724
2.32608	92.1123
2.32504	92.1706
2.324	92.0457
2.32295	92.041
2.32191	92.0935
2.32087	92.071
2.31984	92.1531
2.3188	92.1715
2.31776	92.0774
2.31673	92.0468
2.31569	91.9669
2.31466	92.0205
2.31362	92.1296
2.31259	92.1543
2.31156	92.0243
2.31053	91.9569
2.3095	92.0866
2.30847	92.2341
2.30745	92.2219
2.30642	92.1257
2.3054	92.0755
2.30437	92.0769
2.30335	92.0684
2.30232	92.1234
2.3013	92.2079
2.30028	92.1242
2.29926	92.1046
2.29824	92.1584
2.29722	92.1683
2.29621	92.0483
2.29519	91.9781
2.29417	91.9759
2.29316	91.9912
2.29215	92.0838
2.29113	92.2182
2.29012	92.1889
2.28911	92.0465
2.2881	92.0104
2.28709	92.0426
2.28608	92.0777
2.28507	92.0656
2.28407	92.0919
2.28306	91.9889
2.28206	91.9337
2.28105	92.0821
2.28005	92.2175
2.27905	92.1942
2.27805	92.1649
2.27705	92.1617
2.27605	92.1757
2.27505	92.0632
2.27405	91.8992
2.27305	91.9104
2.27206	92.0124
2.27106	92.1154
2.27007	92.1472
2.26907	92.0964
2.26808	92.0709
2.26709	92.1537
2.2661	92.1934
2.26511	92.2066
2.26412	92.1663
2.26313	92.1158
2.26214	92.1677
2.26116	92.083
2.26017	92.0942
2.25919	92.1575
2.2582	92.1473
2.25722	92.157
2.25624	92.1313
2.25526	92.119
2.25428	92.1821
2.2533	92.1118
2.25232	92.1397
2.25134	92.1796
2.25036	92.0627
2.24939	92.1778
2.24841	92.2919
2.24744	92.2012
2.24646	92.1022
2.24549	92.1446
2.24452	92.1388
2.24355	92.1794
2.24257	92.1628
2.24161	92.1025
2.24064	92.1291
2.23967	92.204
2.2387	92.1589
2.23774	92.2345
2.23677	92.2983
2.23581	92.265
2.23484	92.162
2.23388	92.1273
2.23292	92.1273
2.23196	92.0137
2.231	92.0208
2.23004	92.1079
2.22908	92.1793
2.22812	92.2028
2.22716	92.1393
2.22621	92.1592
2.22525	92.2133
2.2243	92.1199
2.22334	92.1112
2.22239	92.2625
2.22144	92.2482
2.22049	92.1051
2.21953	92.078
2.21859	92.0637
2.21764	92.0568
2.21669	92.0776
2.21574	92.1326
2.21479	92.1658
2.21385	92.1744
2.2129	92.1105
2.21196	92.0555
2.21102	92.0887
2.21007	92.0976
2.20913	92.1523
2.20819	92.2944
2.20725	92.1683
2.20631	92.1044
2.20537	92.1788
2.20444	92.089
2.2035	92.0717
2.20256	92.1201
2.20163	92.1557
2.20069	92.0854
2.19976	92.1398
2.19883	92.2383
2.19789	92.1973
2.19696	92.1591
2.19603	92.154
2.1951	92.1275
2.19417	92.0481
2.19325	91.9409
2.19232	91.9127
2.19139	92.0762
2.19047	92.1838
2.18954	92.1888
2.18862	92.2262
2.18769	92.2797
2.18677	92.2646
2.18585	92.0987
2.18493	91.9466
2.18401	92.0449
2.18309	92.0858
2.18217	92.0539
2.18125	92.0528
2.18033	92.0631
2.17942	92.1669
2.1785	92.239
2.17759	92.1852
2.17667	92.1462
2.17576	92.1611
2.17485	92.0848
2.17393	91.9716
2.17302	91.9779
2.17211	92.1116
2.1712	92.1231
2.17029	92.0926
2.16939	92.0513
2.16848	92.0098
2.16757	92.106
2.16667	92.129
2.16576	92.1557
2.16486	92.1767
2.16395	92.1491
2.16305	92.1924
2.16215	92.0354
2.16125	91.8538
2.16035	91.9779
2.15945	92.0916
2.15855	92.0746
2.15765	92.1108
2.15675	92.0301
2.15586	92.1072
2.15496	92.2315
2.15406	92.0882
2.15317	92.0295
2.15228	92.0917
2.15138	92.0544
2.15049	92.0979
2.1496	92.0745
2.14871	91.9454
2.14782	91.9281
2.14693	92.0058
2.14604	91.9761
2.14515	91.974
2.14427	92.1135
2.14338	92.2146
2.14249	92.2089
2.14161	92.1825
2.14072	92.1396
2.13984	92.1016
2.13896	92.0805
2.13808	92.1022
2.13719	92.2419
2.13631	92.231
2.13543	91.9883
2.13455	92.0421
2.13368	92.0511
2.1328	91.8629
2.13192	91.9231
2.13105	92.2318
2.13017	92.1872
2.1293	92.0437
2.12842	92.1351
2.12755	92.0995
2.12668	92.1028
2.1258	92.1823
2.12493	92.023
2.12406	91.9478
2.12319	92.0559
2.12232	92.1618
2.12145	92.203
2.12059	92.2389
2.11972	92.205
2.11885	92.141
2.11799	92.1091
2.11712	92.0751
2.11626	92.0645
2.1154	92.0677
2.11453	91.983
2.11367	92.0704
2.11281	92.5409
2.11195	92.4892
2.11109	92.1431
2.11023	91.9844
2.10937	91.9027
2.10851	91.8649
2.10766	92.0034
2.1068	92.0597
2.10594	92.0861
2.10509	92.1431
2.10423	92.1482
2.10338	92.2796
2.10253	92.2724
2.10168	92.0219
2.10082	92.0071
2.09997	92.1982
2.09912	92.1961
2.09827	92.0236
2.09742	92.0548
2.09658	92.0794
2.09573	92.0009
2.09488	91.9021
2.09404	91.9168
2.09319	92.0338
2.09235	92.0731
2.0915	92.0265
2.09066	91.925
2.08982	91.841
2.08897	91.9018
2.08813	92.0815
2.08729	92.0989
2.08645	92.0417
2.08561	91.9959
2.08477	92.0645
2.08394	92.2771
2.0831	92.3529
2.08226	92.2769
2.08143	92.0493
2.08059	91.9371
2.07976	91.8913
2.07892	91.7522
2.07809	91.9569
2.07726	92.1648
2.07643	92.3663
2.07559	92.6048
2.07476	92.5037
2.07393	92.2111
2.0731	91.8912
2.07228	92.0522
2.07145	92.0996
2.07062	92.1408
2.06979	92.2794
2.06897	92.0818
2.06814	92.0645
2.06732	92.353
2.06649	92.3886
2.06567	92.2163
2.06485	92.1233
2.06403	92.2194
2.0632	92.0753
2.06238	91.725
2.06156	91.7817
2.06074	91.9453
2.05993	92.0305
2.05911	92.0404
2.05829	92.0012
2.05747	91.9393
2.05666	91.9551
2.05584	92.0455
2.05503	92.0829
2.05421	92.1451
2.0534	92.135
2.05259	92.1158
2.05177	92.1285
2.05096	92.1509
2.05015	92.0972
2.04934	91.9947
2.04853	91.9656
2.04772	92.0125
2.04691	92.0531
2.04611	92.043
2.0453	91.9002
2.04449	91.8045
2.04369	91.9721
2.04288	92.0729
2.04208	92.1789
2.04127	92.268
2.04047	92.1032
2.03967	92.0129
2.03886	92.1156
2.03806	92.0469
2.03726	91.9014
2.03646	91.9647
2.03566	92.1897
2.03486	92.2816
2.03407	92.2418
2.03327	92.3119
2.03247	92.0994
2.03167	91.847
2.03088	91.9245
2.03008	92.0832
2.02929	92.1177
2.0285	92.1373
2.0277	91.9621
2.02691	91.8087
2.02612	92.0138
2.02533	92.0794
2.02453	91.981
2.02374	92.164
2.02295	92.2247
2.02217	92.1834
2.02138	92.1538
2.02059	92.0866
2.0198	92.0279
2.01902	92.051
2.01823	92.1837
2.01744	92.2215
2.01666	92.0799
2.01588	91.9848
2.01509	91.9362
2.01431	91.9381
2.01353	91.9665
2.01275	91.9512
2.01196	91.9128
2.01118	91.8974
2.0104	91.9913
2.00963	92.0195
2.00885	91.9771
2.00807	91.9427
2.00729	92.0476
2.00651	92.2616
2.00574	92.0689
2.00496	91.9358
2.00419	91.9229
2.00341	91.8708
2.00264	91.8819
2.00187	91.9588
2.00109	92.0891
2.00032	92.1918
