Name: Anglesite PbSO_4
Type: Mineral
Class: Sulfates
Subclass: 
Particle Size: 0-45um
Sample No.: SO-10A
Owner: JPL
Wavelength range: IR
Origin: USA, Arizona, Santa Cruz County, Glove Mine
Collected by JPL
Description: 





Measurement: Hemispherical reflectance
First Column: X
Second Column: Y
X Units:  Wavelength (micrometers)
Y Units:  Reflectance (percent)
First X Value: 15.3853
Last X Value: 2.00032
Number of X Values: 2256
Additional information: so10aa.txt
 
15.3853	7.3371
15.3397	8.29186
15.2945	9.33068
15.2495	10.3906
15.2048	10.9609
15.1603	11.3933
15.1161	11.648
15.0722	11.7128
15.0285	11.6719
14.9851	11.761
14.9419	12.1682
14.8989	12.5695
14.8563	12.8419
14.8138	12.7667
14.7716	12.4784
14.7296	12.8708
14.6879	14.3945
14.6464	16.9949
14.6052	19.3944
14.5641	21.1046
14.5233	22.2096
14.4828	22.9358
14.4424	23.678
14.4023	24.2666
14.3624	24.5671
14.3227	24.7836
14.2833	25.3968
14.244	26.3957
14.205	27.1003
14.1662	27.5608
14.1276	28.021
14.0892	28.2903
14.051	28.45
14.0131	28.7777
13.9753	29.2188
13.9377	29.4826
13.9004	29.495
13.8632	29.527
13.8262	29.5188
13.7895	29.566
13.7529	29.5844
13.7165	29.5508
13.6803	29.3995
13.6443	29.3824
13.6085	29.4992
13.5729	29.6055
13.5374	29.7867
13.5022	30.123
13.4671	30.3623
13.4322	30.3853
13.3975	30.5569
13.363	30.9485
13.3286	31.2644
13.2944	31.3078
13.2604	31.3006
13.2266	31.4947
13.193	31.5525
13.1595	31.5934
13.1262	31.5465
13.093	31.3868
13.06	31.3594
13.0272	31.565
12.9946	31.6518
12.9621	31.7269
12.9298	31.8418
12.8976	31.959
12.8656	32.0795
12.8337	32.1185
12.8021	32.2508
12.7705	32.5026
12.7391	32.7522
12.7079	32.8993
12.6769	33.0276
12.6459	33.1694
12.6152	33.2934
12.5845	33.384
12.5541	33.4137
12.5238	33.5069
12.4936	33.7047
12.4635	33.8716
12.4337	34.0637
12.4039	34.4004
12.3743	34.6047
12.3448	34.8263
12.3155	34.8857
12.2863	34.8987
12.2573	34.9826
12.2284	34.9331
12.1996	34.641
12.171	33.8527
12.1425	32.7217
12.1141	32.9761
12.0859	33.6647
12.0578	33.3928
12.0298	32.4474
12.0019	31.0932
11.9742	29.4127
11.9466	27.5327
11.9192	26.1037
11.8918	26.2919
11.8646	28.0298
11.8375	29.8855
11.8106	30.8963
11.7837	31.4489
11.757	31.9339
11.7304	32.1711
11.7039	32.2368
11.6776	32.32
11.6513	32.3568
11.6252	32.258
11.5992	32.0142
11.5733	31.7213
11.5475	31.3317
11.5219	30.8879
11.4963	30.3527
11.4709	29.7979
11.4455	29.3262
11.4203	28.7224
11.3952	28.0583
11.3702	27.3677
11.3454	26.6938
11.3206	26.0289
11.2959	25.3725
11.2714	24.5297
11.2469	23.6431
11.2226	22.8466
11.1983	22.033
11.1742	21.3755
11.1502	20.6445
11.1263	19.8953
11.1024	19.3092
11.0787	18.7489
11.0551	18.262
11.0316	17.942
11.0081	17.6918
10.9848	17.3561
10.9616	16.8949
10.9385	16.3955
10.9154	15.8515
10.8925	15.3101
10.8697	14.853
10.8469	14.4134
10.8243	14.0086
10.8017	13.7013
10.7793	13.3927
10.7569	13.0393
10.7346	12.9189
10.7125	12.9896
10.6904	12.9892
10.6684	12.8917
10.6465	12.7316
10.6247	12.5136
10.6029	12.1361
10.5813	11.6726
10.5597	11.192
10.5383	10.7632
10.5169	10.1858
10.4956	9.6419
10.4744	9.02222
10.4533	8.26544
10.4323	7.39827
10.4113	6.58684
10.3904	5.85585
10.3697	5.26689
10.349	4.79333
10.3284	4.49863
10.3078	4.53257
10.2874	5.0462
10.267	5.8167
10.2467	6.51488
10.2265	6.83674
10.2064	6.9564
10.1863	6.90714
10.1663	6.76599
10.1464	6.53152
10.1266	6.25819
10.1069	6.08509
10.0872	5.92991
10.0676	5.78251
10.0481	5.70278
10.0287	5.58463
10.0093	5.49415
9.99005	5.35282
9.97084	5.21685
9.95169	5.09893
9.93263	5.09902
9.91364	5.20929
9.89472	5.23669
9.87587	5.1867
9.8571	5.2576
9.83839	5.29635
9.81976	5.34917
9.80119	5.44474
9.78271	5.57518
9.76428	5.65972
9.74592	5.82646
9.72764	5.80822
9.70943	5.77925
9.69128	5.87992
9.6732	5.9658
9.65518	6.01702
9.63724	6.25649
9.61935	6.44085
9.60155	6.43176
9.5838	6.47678
9.56611	6.53326
9.5485	6.53004
9.53094	6.64144
9.51345	6.69377
9.49604	6.65774
9.47867	6.66481
9.46137	6.74029
9.44414	6.70402
9.42697	6.76857
9.40986	6.81163
9.39281	6.79759
9.37583	6.77359
9.35891	6.74848
9.34204	6.69219
9.32524	6.52808
9.3085	6.40834
9.29182	6.4443
9.27519	6.48337
9.25863	6.36493
9.24213	6.15337
9.22568	6.07606
9.2093	6.08486
9.19297	6.13995
9.17669	6.21075
9.16048	6.17516
9.14433	6.02415
9.12823	5.90125
9.11218	5.86782
9.0962	5.90752
9.08027	5.85897
9.06439	5.74355
9.04858	5.66067
9.03281	5.63321
9.0171	5.68025
9.00145	5.60722
8.98585	5.54809
8.9703	5.58819
8.9548	5.4723
8.93937	5.35404
8.92398	5.33803
8.90865	5.45691
8.89337	5.54049
8.87814	5.48752
8.86296	5.34646
8.84784	5.29475
8.83277	5.26378
8.81774	5.28958
8.80277	5.1946
8.78786	5.00739
8.77298	4.92029
8.75816	4.95827
8.7434	4.858
8.72868	4.76192
8.714	4.6012
8.69938	4.34796
8.68481	4.18915
8.67029	4.18071
8.65581	4.16236
8.64139	4.02764
8.62701	3.86973
8.61268	3.82759
8.5984	3.81177
8.58416	3.77602
8.56997	3.91733
8.55583	4.06221
8.54174	4.01339
8.52769	4.1216
8.51368	4.17844
8.49973	4.14724
8.48582	4.1251
8.47195	4.15554
8.45813	4.31267
8.44436	4.43616
8.43062	4.28437
8.41693	4.21391
8.4033	4.27484
8.3897	4.31388
8.37614	4.3963
8.36264	4.4109
8.34917	4.27381
8.33574	4.25024
8.32236	4.3047
8.30903	4.24427
8.29573	4.17761
8.28248	4.13209
8.26927	4.10298
8.2561	3.95261
8.24298	3.84644
8.2299	3.851
8.21685	3.82854
8.20385	3.90181
8.19089	3.87387
8.17797	3.75875
8.16509	3.79434
8.15225	3.82429
8.13946	3.78467
8.1267	3.85594
8.11398	4.03645
8.10131	4.13801
8.08867	4.10019
8.07606	4.14289
8.0635	4.20543
8.05099	4.29712
8.0385	4.41609
8.02606	4.5671
8.01366	4.84445
8.00129	5.06249
7.98896	5.20355
7.97667	5.41306
7.96442	5.63855
7.9522	5.86598
7.94002	6.13556
7.92788	6.38585
7.91578	6.66935
7.90371	7.06024
7.89168	7.41196
7.87969	7.92896
7.86773	8.34219
7.85581	8.61257
7.84392	8.90197
7.83207	9.24876
7.82026	9.60143
7.80849	10.0098
7.79674	10.4173
7.78503	10.7451
7.77337	11.0863
7.76173	11.3718
7.75012	11.6589
7.73856	12.0684
7.72703	12.4706
7.71553	12.791
7.70406	13.1588
7.69263	13.488
7.68123	13.7
7.66987	13.9945
7.65855	14.3595
7.64725	14.6953
7.63598	15.0037
7.62475	15.3395
7.61356	15.6909
7.60239	16.064
7.59126	16.394
7.58017	16.6645
7.5691	16.939
7.55806	17.2268
7.54707	17.498
7.5361	17.8176
7.52516	18.1466
7.51425	18.397
7.50338	18.5795
7.49253	18.7395
7.48172	18.9656
7.47094	19.2469
7.46019	19.4365
7.44947	19.598
7.43879	19.7935
7.42813	20.0279
7.4175	20.2654
7.4069	20.3778
7.39634	20.5132
7.3858	20.7178
7.37529	20.8591
7.36482	21.006
7.35437	21.1784
7.34396	21.4071
7.33357	21.5122
7.32321	21.5068
7.31288	21.6074
7.30258	21.8218
7.29231	22.0325
7.28207	22.2031
7.27185	22.4195
7.26167	22.7107
7.25152	22.8765
7.24139	22.9834
7.23129	23.0349
7.22122	23.0405
7.21117	22.9969
7.20116	22.7388
7.19117	22.4261
7.18121	22.1932
7.17128	21.9597
7.16137	21.6478
7.1515	21.3889
7.14164	21.0882
7.13182	20.821
7.12203	20.7158
7.11225	20.7389
7.10251	20.7211
7.0928	20.6407
7.08311	20.6513
7.07344	20.7614
7.06381	20.8835
7.0542	21.0901
7.04461	21.2576
7.03506	21.1811
7.02552	21.2396
7.01601	21.2523
7.00653	21.2162
6.99708	21.2749
6.98765	21.3451
6.97824	21.4062
6.96886	21.5563
6.95951	21.6702
6.95018	21.6297
6.94087	21.7103
6.9316	21.8474
6.92234	21.8953
6.91311	22.0384
6.90391	22.2636
6.89473	22.3858
6.88557	22.5235
6.87644	22.7725
6.86733	23.3197
6.85824	23.4361
6.84918	23.1488
6.84015	23.1644
6.83114	23.4587
6.82215	23.5989
6.81319	23.517
6.80424	23.6443
6.79532	24.0186
6.78643	24.2316
6.77756	24.274
6.76871	24.4016
6.75989	24.563
6.75109	24.8667
6.74231	25.1192
6.73355	25.4463
6.72482	25.921
6.71611	26.3834
6.70742	26.7069
6.69875	27.0504
6.69011	27.614
6.68149	28.2274
6.67289	28.6476
6.66431	29.0232
6.65576	29.4555
6.64722	30.3705
6.63871	31.4202
6.63022	31.6567
6.62175	31.7423
6.61331	32.1996
6.60488	32.7006
6.59648	33.2707
6.5881	33.6606
6.57974	34.2455
6.5714	34.899
6.56308	35.057
6.55478	35.3752
6.54651	35.7437
6.53825	35.9928
6.53001	36.4055
6.5218	36.9984
6.51361	37.2993
6.50544	37.7551
6.49729	38.6928
6.48915	39.1048
6.48104	38.9989
6.47295	38.9819
6.46488	39.0023
6.45683	39.1179
6.4488	39.2878
6.44079	39.4022
6.4328	39.5017
6.42482	39.5693
6.41687	39.909
6.40894	39.3101
6.40103	38.2488
6.39314	37.867
6.38526	37.7951
6.37741	37.9228
6.36957	38.1397
6.36176	38.0209
6.35396	38.1499
6.34618	38.7469
6.33843	38.8885
6.33069	38.9748
6.32297	39.4677
6.31527	39.9566
6.30758	40.6197
6.29992	41.3442
6.29227	42.0315
6.28465	42.5982
6.27704	43.098
6.26945	43.5648
6.26188	44.0528
6.25432	44.5298
6.24679	45.1365
6.23927	45.6862
6.23177	46.13
6.22429	46.626
6.21683	47.2685
6.20938	47.8256
6.20195	48.3617
6.19454	49.088
6.18715	50.1347
6.17978	50.6106
6.17242	50.9124
6.16508	51.6075
6.15776	52.1341
6.15045	52.4367
6.14317	52.9865
6.1359	53.3897
6.12864	53.7438
6.12141	54.4901
6.11419	55.3343
6.10699	55.3138
6.0998	55.203
6.09263	55.4693
6.08549	55.9242
6.07835	56.6657
6.07123	57.1325
6.06413	57.0679
6.05705	57.8136
6.04998	59.1845
6.04293	58.8016
6.0359	58.1305
6.02888	58.3041
6.02187	58.7413
6.01489	59.2416
6.00792	59.4115
6.00096	59.643
5.99403	60.2547
5.98711	60.6794
5.9802	60.7204
5.97331	61.1791
5.96644	61.6113
5.95958	61.6027
5.95274	61.8167
5.94591	62.3734
5.9391	63.4515
5.9323	63.5995
5.92552	63.2313
5.91876	63.3982
5.91201	63.5892
5.90528	63.9106
5.89856	64.5694
5.89186	64.7893
5.88517	65.3601
5.8785	65.7661
5.87184	65.3084
5.8652	65.5954
5.85857	65.7257
5.85196	65.5976
5.84536	65.4658
5.83878	65.5077
5.83221	65.486
5.82566	65.1089
5.81912	63.6533
5.81259	60.489
5.80608	56.1654
5.79959	51.5015
5.79311	48.0066
5.78665	46.7393
5.78019	46.9517
5.77376	48.6012
5.76734	51.2713
5.76093	51.9562
5.75453	51.2187
5.74815	50.8985
5.74179	51.3873
5.73543	53.6765
5.7291	57.0478
5.72277	60.8435
5.71646	64.468
5.71017	66.9694
5.70389	67.9492
5.69762	68.486
5.69136	68.9446
5.68513	69.1257
5.6789	69.3229
5.67268	69.3688
5.66648	69.1537
5.6603	69.2922
5.65413	69.4134
5.64797	69.4635
5.64182	69.5702
5.63569	69.1428
5.62957	68.7807
5.62347	68.7016
5.61737	68.7708
5.61129	68.7782
5.60522	68.7868
5.59917	68.8102
5.59313	68.7672
5.5871	68.938
5.58109	69.3157
5.57509	69.3174
5.5691	69.1413
5.56312	69.1938
5.55716	69.3134
5.55121	69.4352
5.54528	69.4425
5.53935	69.5071
5.53344	69.488
5.52754	69.5576
5.52166	69.6415
5.51578	69.6972
5.50992	69.6755
5.50407	69.671
5.49823	69.7296
5.49241	69.8312
5.4866	69.9418
5.4808	70.1265
5.47501	70.1477
5.46923	70.2019
5.46347	70.2557
5.45772	70.1755
5.45198	70.1219
5.44625	70.0498
5.44054	69.9286
5.43484	69.8423
5.42914	69.8542
5.42347	69.9768
5.4178	69.6619
5.41214	69.2964
5.4065	68.9847
5.40087	68.6813
5.39525	68.435
5.38964	68.1488
5.38404	67.8365
5.37846	67.537
5.37288	67.2606
5.36732	66.9022
5.36177	66.5809
5.35623	66.4668
5.35071	66.3677
5.34519	65.996
5.33968	65.5897
5.33419	65.2911
5.32871	65.024
5.32324	64.711
5.31778	64.3811
5.31233	64.0582
5.30689	63.6801
5.30147	63.3567
5.29605	63.0684
5.29065	62.7928
5.28525	62.4082
5.27987	62.1209
5.2745	61.8125
5.26914	61.4579
5.26379	61.2334
5.25845	61.0361
5.25312	60.7669
5.24781	60.4806
5.2425	60.1011
5.23721	59.643
5.23192	59.052
5.22665	58.3273
5.22138	57.5273
5.21613	56.7371
5.21089	55.7622
5.20566	54.6276
5.20044	53.4371
5.19522	52.0284
5.19002	50.6051
5.18483	49.2365
5.17965	47.9347
5.17448	46.7391
5.16933	45.7716
5.16418	45.2758
5.15904	45.2062
5.15391	45.5494
5.14879	46.1046
5.14368	46.5677
5.13859	46.8032
5.1335	46.7621
5.12842	46.4945
5.12335	45.9872
5.1183	45.3418
5.11325	44.5319
5.10821	43.6463
5.10318	42.7419
5.09817	41.8074
5.09316	40.955
5.08816	40.1908
5.08317	39.5462
5.07819	38.8859
5.07322	38.2582
5.06826	37.6464
5.06331	37.0698
5.05837	36.5229
5.05344	35.9806
5.04852	35.3724
5.04361	34.6572
5.03871	33.9716
5.03382	33.3443
5.02894	32.6835
5.02406	32.0534
5.0192	31.5332
5.01435	31.0597
5.0095	30.6336
5.00467	30.2249
4.99984	29.9368
4.99502	29.7302
4.99021	29.4817
4.98542	29.2401
4.98063	28.9706
4.97585	28.7888
4.97108	28.7476
4.96632	28.8427
4.96156	29.0348
4.95682	29.2321
4.95209	29.4238
4.94736	29.6759
4.94264	29.8846
4.93794	30.1064
4.93324	30.4648
4.92855	30.8203
4.92387	31.0882
4.9192	31.3151
4.91453	31.5283
4.90988	31.7066
4.90524	31.9742
4.9006	32.2579
4.89597	32.5208
4.89135	32.8299
4.88674	33.1816
4.88214	33.4812
4.87755	33.7618
4.87296	34.0733
4.86839	34.3169
4.86382	34.5536
4.85926	34.7856
4.85471	34.9599
4.85017	35.2107
4.84564	35.3735
4.84111	35.4389
4.8366	35.5981
4.83209	35.8129
4.82759	35.9223
4.8231	35.9676
4.81862	36.0244
4.81415	36.0166
4.80968	36.0737
4.80522	36.1653
4.80077	36.1799
4.79633	36.1092
4.7919	36.0287
4.78747	36.0363
4.78306	35.9826
4.77865	35.8674
4.77425	35.7652
4.76986	35.6414
4.76547	35.4591
4.7611	35.3083
4.75673	35.158
4.75237	34.9354
4.74802	34.7704
4.74367	34.6303
4.73934	34.5711
4.73501	34.4772
4.73069	34.2938
4.72638	34.293
4.72207	34.3732
4.71777	34.4196
4.71348	34.5967
4.7092	34.7734
4.70493	35.0171
4.70066	35.2987
4.69641	35.5066
4.69216	35.7318
4.68791	36.0301
4.68368	36.3277
4.67945	36.5733
4.67523	36.7185
4.67102	36.9076
4.66682	37.1884
4.66262	37.4964
4.65843	37.7522
4.65425	37.9574
4.65007	38.2285
4.64591	38.5399
4.64175	38.7991
4.6376	39.0615
4.63345	39.3539
4.62932	39.6787
4.62519	40.0211
4.62106	40.4045
4.61695	40.8166
4.61284	41.1631
4.60874	41.4957
4.60465	41.8267
4.60056	42.2833
4.59648	42.7652
4.59241	43.2035
4.58835	43.6011
4.58429	44.0435
4.58024	44.4849
4.5762	44.9187
4.57216	45.4146
4.56814	45.8065
4.56411	46.1695
4.5601	46.6214
4.55609	47.0646
4.55209	47.412
4.5481	47.7445
4.54411	48.075
4.54013	48.2992
4.53616	48.5409
4.5322	48.8621
4.52824	49.0806
4.52429	49.2154
4.52034	49.4486
4.51641	49.681
4.51247	49.8573
4.50855	50.1192
4.50463	50.388
4.50072	50.5965
4.49682	50.7768
4.49292	50.9399
4.48903	51.1324
4.48515	51.3177
4.48127	51.4993
4.4774	51.7098
4.47354	51.9148
4.46968	52.0855
4.46584	52.2669
4.46199	52.3966
4.45815	52.5893
4.45432	52.7968
4.4505	52.9366
4.44668	53.0175
4.44287	53.142
4.43907	53.2955
4.43527	53.3899
4.43148	53.5433
4.4277	53.7151
4.42392	53.8369
4.42015	53.9169
4.41638	53.9971
4.41262	54.133
4.40887	54.3314
4.40513	54.4311
4.40139	54.5098
4.39765	54.6075
4.39393	54.6655
4.39021	54.7955
4.38649	54.9027
4.38278	54.8615
4.37908	54.7917
4.37539	54.8713
4.3717	54.9448
4.36801	55.023
4.36434	55.067
4.36067	55.1044
4.357	55.1071
4.35335	55.0279
4.34969	54.9582
4.34605	54.9891
4.34241	55.117
4.33877	55.1211
4.33514	55.0373
4.33152	55.032
4.32791	54.9942
4.3243	54.9698
4.32069	54.9862
4.3171	54.9657
4.31351	54.9233
4.30992	54.9125
4.30634	54.9006
4.30277	54.8991
4.2992	54.9028
4.29564	54.9168
4.29208	54.9819
4.28853	55.0218
4.28499	55.0417
4.28145	55.0405
4.27792	55.0339
4.27439	55.1271
4.27087	55.2939
4.26735	55.4683
4.26384	55.7546
4.26034	56.0598
4.25684	56.1867
4.25335	56.2488
4.24986	56.4614
4.24638	56.6202
4.24291	56.7378
4.23944	56.9913
4.23598	57.2401
4.23252	57.5013
4.22906	57.9051
4.22562	58.3015
4.22218	58.7124
4.21874	59.0039
4.21531	59.2863
4.21189	59.5984
4.20847	59.8362
4.20506	60.0157
4.20165	60.1745
4.19825	60.3044
4.19485	60.3022
4.19146	60.1886
4.18807	59.9662
4.18469	59.6158
4.18132	59.1741
4.17795	58.614
4.17458	58.01
4.17123	57.3331
4.16787	56.6156
4.16453	55.8766
4.16118	55.2264
4.15785	54.7333
4.15451	54.3321
4.15119	54.1338
4.14787	54.1408
4.14455	54.3579
4.14124	54.7749
4.13794	55.4106
4.13464	56.1726
4.13134	56.9629
4.12805	57.7233
4.12477	58.4662
4.12149	59.2649
4.11822	60.057
4.11495	60.7753
4.11168	61.3829
4.10843	61.9951
4.10517	62.6214
4.10192	63.1657
4.09868	63.6743
4.09545	64.1455
4.09221	64.5
4.08899	64.796
4.08576	65.095
4.08255	65.3214
4.07933	65.5238
4.07613	65.7768
4.07292	65.9573
4.06973	66.0773
4.06654	66.1442
4.06335	66.2016
4.06017	66.236
4.05699	66.2768
4.05382	66.3459
4.05065	66.4316
4.04749	66.4846
4.04433	66.5825
4.04118	66.7873
4.03803	66.9872
4.03489	67.179
4.03175	67.374
4.02862	67.5018
4.02549	67.6988
4.02237	67.9667
4.01925	68.2112
4.01614	68.4018
4.01303	68.5832
4.00993	68.7785
4.00683	68.9309
4.00373	68.9395
4.00064	69.028
3.99756	69.1339
3.99448	69.1847
3.9914	69.2514
3.98833	69.3986
3.98527	69.488
3.98221	69.5308
3.97915	69.6271
3.9761	69.776
3.97305	69.8614
3.97001	69.8976
3.96697	70.0445
3.96394	70.2365
3.96091	70.3469
3.95789	70.5033
3.95487	70.6712
3.95186	70.8797
3.94885	71.1471
3.94584	71.3671
3.94284	71.6144
3.93984	71.846
3.93685	72.1105
3.93386	72.4658
3.93088	72.7759
3.9279	73.0209
3.92493	73.2684
3.92196	73.5784
3.919	73.8667
3.91604	74.1834
3.91308	74.4368
3.91013	74.5846
3.90718	74.7509
3.90424	74.8807
3.9013	75.0172
3.89837	75.1675
3.89544	75.2673
3.89252	75.3498
3.8896	75.4412
3.88668	75.5043
3.88377	75.5883
3.88086	75.6454
3.87796	75.6948
3.87506	75.7584
3.87217	75.8071
3.86928	75.8431
3.86639	75.8489
3.86351	75.8694
3.86064	75.9294
3.85776	76.0404
3.8549	76.0206
3.85203	76.0051
3.84917	76.0449
3.84631	76.0507
3.84346	76.0091
3.84062	75.9883
3.83777	76.0187
3.83494	75.9878
3.8321	75.9471
3.82927	75.9804
3.82644	75.9593
3.82362	75.8925
3.82081	75.8752
3.81799	75.8595
3.81518	75.799
3.81238	75.7601
3.80958	75.7236
3.80678	75.675
3.80399	75.6264
3.8012	75.6144
3.79841	75.6086
3.79563	75.5413
3.79286	75.4619
3.79008	75.39
3.78731	75.3257
3.78455	75.2799
3.78179	75.1736
3.77903	75.1312
3.77628	75.0989
3.77353	75.03
3.77079	74.9298
3.76805	74.7875
3.76531	74.6462
3.76258	74.6199
3.75985	74.5966
3.75713	74.4288
3.7544	74.2535
3.75169	74.1644
3.74898	74.0568
3.74627	73.9453
3.74356	73.8724
3.74086	73.8542
3.73816	73.8015
3.73547	73.6803
3.73278	73.5556
3.7301	73.4559
3.72741	73.3857
3.72474	73.2324
3.72206	73.0868
3.71939	72.9717
3.71673	72.867
3.71406	72.723
3.71141	72.5306
3.70875	72.3545
3.7061	72.1734
3.70345	71.9321
3.70081	71.7297
3.69817	71.555
3.69553	71.2397
3.6929	70.8974
3.69027	70.599
3.68765	70.311
3.68503	69.911
3.68241	69.4346
3.6798	69.0531
3.67719	68.7052
3.67458	68.2925
3.67198	67.8699
3.66938	67.4797
3.66678	67.0752
3.66419	66.6489
3.66161	66.2698
3.65902	65.9878
3.65644	65.8014
3.65387	65.5621
3.65129	65.3835
3.64872	65.3474
3.64616	65.3637
3.64359	65.3933
3.64103	65.4275
3.63848	65.5792
3.63593	65.6925
3.63338	65.8266
3.63084	66.0122
3.6283	66.1309
3.62576	66.2404
3.62322	66.3074
3.62069	66.3165
3.61817	66.3403
3.61564	66.3031
3.61312	66.2346
3.61061	66.1088
3.6081	65.9433
3.60559	65.8119
3.60308	65.8496
3.60058	65.913
3.59808	65.9333
3.59558	65.9488
3.59309	65.8578
3.59061	65.7402
3.58812	65.7033
3.58564	65.7018
3.58316	65.7051
3.58069	65.6963
3.57822	65.8068
3.57575	65.9141
3.57328	65.9377
3.57082	65.961
3.56836	66.0121
3.56591	66.0658
3.56346	66.1017
3.56101	66.1553
3.55857	66.1742
3.55613	66.2559
3.55369	66.3995
3.55126	66.4876
3.54883	66.5699
3.5464	66.673
3.54397	66.6819
3.54155	66.7983
3.53914	66.9598
3.53672	67.097
3.53431	67.232
3.5319	67.3877
3.5295	67.5797
3.5271	67.6659
3.5247	67.7631
3.52231	67.9443
3.51991	68.137
3.51753	68.3682
3.51514	68.5565
3.51276	68.7273
3.51038	68.8602
3.50801	68.968
3.50563	69.1008
3.50327	69.2746
3.5009	69.379
3.49854	69.5965
3.49618	69.873
3.49382	70.1194
3.49147	70.3639
3.48912	70.5107
3.48677	70.6458
3.48443	70.865
3.48209	71.0553
3.47975	71.1559
3.47742	71.1671
3.47509	71.1507
3.47276	71.2814
3.47044	71.412
3.46812	71.5125
3.4658	71.5506
3.46348	71.6423
3.46117	71.8173
3.45886	71.8587
3.45656	71.7875
3.45425	71.8147
3.45195	71.8109
3.44966	71.7932
3.44736	71.8556
3.44507	71.8887
3.44279	71.884
3.4405	71.8345
3.43822	71.7475
3.43594	71.7834
3.43367	71.8581
3.43139	71.8288
3.42912	71.7376
3.42686	71.639
3.42459	71.4952
3.42233	71.3828
3.42007	71.3339
3.41782	71.2729
3.41557	71.1652
3.41332	71.1902
3.41108	71.2509
3.40883	71.3647
3.40659	71.4664
3.40435	71.5292
3.40212	71.568
3.39989	71.5846
3.39766	71.5734
3.39544	71.7078
3.39322	71.8361
3.391	71.7742
3.38878	71.7254
3.38657	71.8229
3.38436	71.7439
3.38215	71.6404
3.37994	71.6567
3.37774	71.6398
3.37554	71.6566
3.37335	71.637
3.37115	71.6907
3.36896	71.8091
3.36678	71.8378
3.36459	71.8287
3.36241	71.7893
3.36023	71.8026
3.35805	71.9017
3.35588	71.9218
3.35371	71.9587
3.35154	72.0385
3.34938	72.1503
3.34721	72.3104
3.34505	72.4004
3.3429	72.2997
3.34074	72.2103
3.33859	72.1678
3.33644	72.2375
3.3343	72.3662
3.33215	72.3873
3.33001	72.3812
3.32788	72.376
3.32574	72.3996
3.32361	72.3407
3.32148	72.2982
3.31936	72.3904
3.31723	72.543
3.31511	72.5429
3.31299	72.4021
3.31088	72.3122
3.30876	72.3373
3.30665	72.3543
3.30455	72.3139
3.30244	72.3064
3.30034	72.3067
3.29824	72.2002
3.29614	72.1133
3.29405	72.1275
3.29196	72.1391
3.28987	72.0968
3.28778	72.0275
3.2857	71.9771
3.28362	71.81
3.28154	71.7698
3.27946	71.845
3.27739	71.804
3.27532	71.7001
3.27325	71.6561
3.27119	71.6882
3.26913	71.6335
3.26707	71.5754
3.26501	71.4865
3.26295	71.4106
3.2609	71.3932
3.25885	71.3479
3.2568	71.3138
3.25476	71.2683
3.25272	71.2338
3.25068	71.1723
3.24864	71.0426
3.24661	70.977
3.24458	70.9295
3.24255	70.9583
3.24052	70.9449
3.2385	70.8728
3.23648	70.8442
3.23446	70.8474
3.23244	70.8511
3.23043	70.8768
3.22841	70.8445
3.2264	70.7733
3.2244	70.797
3.22239	70.8922
3.22039	70.8577
3.21839	70.7885
3.2164	70.8552
3.2144	70.8043
3.21241	70.681
3.21042	70.6902
3.20844	70.6897
3.20645	70.7221
3.20447	70.728
3.20249	70.6597
3.20051	70.63
3.19854	70.6488
3.19657	70.6537
3.1946	70.6186
3.19263	70.6028
3.19067	70.5632
3.1887	70.4994
3.18674	70.4369
3.18479	70.4186
3.18283	70.3601
3.18088	70.2693
3.17893	70.2377
3.17698	70.2023
3.17504	70.2506
3.17309	70.2532
3.17115	70.2
3.16921	70.1204
3.16728	70.0022
3.16534	70.0006
3.16341	70.1125
3.16148	70.0968
3.15956	70.0063
3.15763	69.9165
3.15571	69.8685
3.15379	69.8619
3.15187	69.8959
3.14996	69.8548
3.14805	69.7095
3.14614	69.5959
3.14423	69.6299
3.14232	69.587
3.14042	69.5748
3.13852	69.573
3.13662	69.5395
3.13472	69.5453
3.13283	69.5337
3.13094	69.3727
3.12905	69.19
3.12716	69.1573
3.12528	69.1791
3.12339	69.2002
3.12151	69.2732
3.11964	69.2207
3.11776	69.052
3.11589	68.967
3.11401	69.0481
3.11214	69.0789
3.11028	68.9666
3.10841	68.8792
3.10655	68.8309
3.10469	68.8202
3.10283	68.8598
3.10098	68.891
3.09912	68.8493
3.09727	68.7578
3.09542	68.7135
3.09358	68.6868
3.09173	68.6528
3.08989	68.6347
3.08805	68.619
3.08621	68.5822
3.08437	68.6035
3.08254	68.6188
3.08071	68.5017
3.07888	68.4368
3.07705	68.3952
3.07523	68.2677
3.0734	68.2088
3.07158	68.2228
3.06977	68.1676
3.06795	68.114
3.06613	68.0875
3.06432	68.1292
3.06251	68.1424
3.0607	68.088
3.0589	67.9386
3.0571	67.8821
3.05529	67.958
3.05349	67.9298
3.0517	67.9407
3.0499	67.9541
3.04811	67.8901
3.04632	67.7819
3.04453	67.7481
3.04274	67.6973
3.04096	67.5864
3.03918	67.6073
3.0374	67.5553
3.03562	67.4221
3.03384	67.4059
3.03207	67.4431
3.03029	67.3736
3.02852	67.3341
3.02676	67.3791
3.02499	67.2783
3.02323	67.1596
3.02146	67.112
3.0197	66.9879
3.01795	66.9667
3.01619	67.0062
3.01444	66.9911
3.01269	66.9646
3.01094	66.9947
3.00919	66.9555
3.00744	66.8174
3.0057	66.7237
3.00396	66.7512
3.00222	66.7148
3.00048	66.5781
2.99875	66.5442
2.99701	66.5931
2.99528	66.5722
2.99355	66.4643
2.99183	66.4241
2.9901	66.3529
2.98838	66.2415
2.98666	66.2019
2.98494	66.2447
2.98322	66.3774
2.9815	66.2258
2.97979	66.0559
2.97808	66.0413
2.97637	66.0096
2.97466	65.9302
2.97295	65.8525
2.97125	65.9093
2.96955	65.9794
2.96785	66.0177
2.96615	66.0986
2.96446	66.0007
2.96276	65.8248
2.96107	65.7781
2.95938	65.769
2.95769	65.825
2.95601	65.8209
2.95432	65.7614
2.95264	65.7082
2.95096	65.6802
2.94928	65.7137
2.9476	65.76
2.94593	65.7386
2.94425	65.666
2.94258	65.641
2.94092	65.6466
2.93925	65.6975
2.93758	65.7693
2.93592	65.7571
2.93426	65.7787
2.9326	65.7528
2.93094	65.7823
2.92928	65.7822
2.92763	65.7805
2.92598	65.7963
2.92433	65.887
2.92268	66.0263
2.92103	66.005
2.91939	65.9678
2.91775	66.0293
2.9161	66.0096
2.91447	65.9101
2.91283	65.9116
2.91119	65.9917
2.90956	66.0552
2.90793	66.0462
2.9063	66.1313
2.90467	66.2279
2.90304	66.1797
2.90142	66.0683
2.89979	65.9506
2.89817	66.0031
2.89656	66.0866
2.89494	66.2066
2.89332	66.4043
2.89171	66.5392
2.8901	66.5612
2.88849	66.5848
2.88688	66.6416
2.88527	66.7014
2.88367	66.8305
2.88206	66.9087
2.88046	66.941
2.87886	66.9011
2.87727	66.9311
2.87567	67.0425
2.87408	67.1611
2.87248	67.2476
2.87089	67.3086
2.8693	67.2645
2.86772	67.2875
2.86613	67.3394
2.86455	67.3196
2.86297	67.4089
2.86139	67.5421
2.85981	67.5481
2.85823	67.6094
2.85666	67.7882
2.85508	67.7927
2.85351	67.7205
2.85194	67.7673
2.85038	67.9631
2.84881	68.0429
2.84724	68.0552
2.84568	68.1743
2.84412	68.1256
2.84256	68.1288
2.841	68.1748
2.83945	68.2562
2.83789	68.4092
2.83634	68.5809
2.83479	68.7203
2.83324	68.7968
2.83169	68.8795
2.83015	69.08
2.82861	69.194
2.82706	69.1793
2.82552	69.1791
2.82398	69.2863
2.82245	69.4266
2.82091	69.5878
2.81938	69.6508
2.81784	69.7414
2.81631	69.8842
2.81479	69.9281
2.81326	69.9577
2.81173	70.1218
2.81021	70.3364
2.80869	70.4659
2.80716	70.4675
2.80565	70.5729
2.80413	70.9557
2.80261	71.028
2.8011	70.8749
2.79959	70.98
2.79808	71.0263
2.79657	71.0753
2.79506	71.2603
2.79355	71.3786
2.79205	71.4073
2.79055	71.5251
2.78904	71.8019
2.78754	72.0704
2.78605	72.0839
2.78455	71.9675
2.78306	72.031
2.78156	72.1896
2.78007	72.3647
2.77858	72.2922
2.77709	72.3885
2.77561	72.5938
2.77412	72.7125
2.77264	72.8724
2.77116	73.103
2.76968	73.144
2.7682	73.2754
2.76672	73.3154
2.76524	73.2209
2.76377	73.4604
2.7623	73.5694
2.76083	73.4655
2.75936	73.5741
2.75789	73.8056
2.75642	74.3659
2.75496	74.6163
2.7535	74.189
2.75203	74.1669
2.75057	74.1745
2.74912	74.0964
2.74766	74.135
2.7462	74.2195
2.74475	74.3577
2.7433	74.6572
2.74185	75.1902
2.7404	75.6372
2.73895	75.5874
2.7375	75.1074
2.73606	75.0135
2.73462	75.2574
2.73318	75.1889
2.73174	75.0756
2.7303	75.065
2.72886	75.0846
2.72742	75.2372
2.72599	75.6955
2.72456	76.0887
2.72313	75.7826
2.7217	76.0094
2.72027	76.4079
2.71884	75.9684
2.71742	75.7558
2.71599	75.6361
2.71457	75.5925
2.71315	75.6834
2.71173	76.161
2.71032	76.2576
2.7089	75.8758
2.70748	75.6741
2.70607	75.6352
2.70466	75.581
2.70325	75.6253
2.70184	75.8557
2.70043	75.9645
2.69903	75.9721
2.69762	76.1054
2.69622	76.3634
2.69482	76.6213
2.69342	76.593
2.69202	76.2114
2.69062	76.1336
2.68923	76.2047
2.68783	76.2818
2.68644	76.2943
2.68505	76.2244
2.68366	76.3072
2.68227	76.2347
2.68089	76.3081
2.6795	76.7275
2.67812	76.7759
2.67673	76.8378
2.67535	76.5161
2.67397	76.2261
2.6726	76.3469
2.67122	77.1833
2.66984	77.2944
2.66847	76.7209
2.6671	76.9829
2.66572	77.0897
2.66435	76.6305
2.66299	75.9965
2.66162	75.9798
2.66025	76.1089
2.65889	76.111
2.65753	75.9087
2.65616	75.9305
2.65481	75.9477
2.65345	76.0237
2.65209	76.0108
2.65073	75.869
2.64938	75.8174
2.64803	75.8154
2.64667	75.8342
2.64532	75.8588
2.64397	75.768
2.64263	75.8219
2.64128	75.7868
2.63994	75.6623
2.63859	75.7218
2.63725	75.9012
2.63591	75.9577
2.63457	76.0837
2.63323	76.0437
2.6319	76.191
2.63056	76.6573
2.62923	76.3392
2.62789	76.202
2.62656	76.4592
2.62523	76.06
2.6239	75.773
2.62258	75.8577
2.62125	76.4715
2.61993	76.5644
2.6186	76.2531
2.61728	76.5975
2.61596	76.4586
2.61464	76.0283
2.61332	75.9896
2.61201	75.9654
2.61069	76.0926
2.60938	76.2636
2.60807	76.3128
2.60675	76.456
2.60544	76.6584
2.60414	76.4775
2.60283	76.3186
2.60152	76.1995
2.60022	76.003
2.59891	75.9113
2.59761	76.1351
2.59631	76.8268
2.59501	77.7246
2.59371	77.1428
2.59242	76.1626
2.59112	75.9135
2.58983	76.0708
2.58853	76.3539
2.58724	76.4452
2.58595	76.2073
2.58466	76.445
2.58338	76.4942
2.58209	76.1601
2.5808	76.1576
2.57952	75.9487
2.57824	76.0567
2.57695	76.3222
2.57567	76.2923
2.5744	76.4042
2.57312	76.4461
2.57184	76.0181
2.57057	76.1612
2.56929	76.3076
2.56802	76.1251
2.56675	76.0265
2.56548	76.1895
2.56421	76.4354
2.56294	76.5407
2.56168	76.5477
2.56041	76.3826
2.55915	76.0249
2.55789	75.859
2.55662	75.9306
2.55536	76.018
2.5541	76.0965
2.55285	76.1776
2.55159	76.1822
2.55034	76.1135
2.54908	76.0685
2.54783	76.0308
2.54658	76.0345
2.54533	76.091
2.54408	76.1189
2.54283	76.1302
2.54159	76.0162
2.54034	75.9744
2.5391	75.9857
2.53785	75.9858
2.53661	76.1189
2.53537	76.0035
2.53413	75.8929
2.53289	75.9969
2.53166	75.9789
2.53042	75.8835
2.52919	75.9146
2.52795	76.0246
2.52672	76.029
2.52549	76.0384
2.52426	76.0838
2.52303	75.9783
2.52181	75.8772
2.52058	75.8956
2.51936	75.9631
2.51813	75.9563
2.51691	75.9142
2.51569	75.9056
2.51447	75.9567
2.51325	75.9602
2.51203	75.8415
2.51082	75.8634
2.5096	75.8527
2.50839	75.9049
2.50717	75.8401
2.50596	75.8014
2.50475	75.7998
2.50354	75.8284
2.50233	75.9138
2.50113	75.9191
2.49992	75.9222
2.49872	75.8168
2.49751	75.7624
2.49631	75.7414
2.49511	75.7618
2.49391	75.7745
2.49271	75.704
2.49151	75.6566
2.49031	75.7647
2.48912	75.8678
2.48792	75.9327
2.48673	75.8747
2.48554	75.7706
2.48435	75.6814
2.48316	75.6571
2.48197	75.7761
2.48078	75.8063
2.4796	75.6848
2.47841	75.5604
2.47723	75.6823
2.47604	75.8547
2.47486	75.7794
2.47368	75.6237
2.4725	75.5711
2.47132	75.6028
2.47014	75.6069
2.46897	75.6497
2.46779	75.6978
2.46662	75.6347
2.46545	75.572
2.46427	75.6192
2.4631	75.809
2.46193	75.8401
2.46077	75.6916
2.4596	75.6324
2.45843	75.6219
2.45727	75.564
2.4561	75.5909
2.45494	75.6106
2.45378	75.5669
2.45262	75.6049
2.45146	75.6929
2.4503	75.7176
2.44914	75.7293
2.44799	75.7268
2.44683	75.7718
2.44568	75.702
2.44452	75.6829
2.44337	75.6687
2.44222	75.5629
2.44107	75.5587
2.43992	75.7079
2.43877	75.7284
2.43763	75.7061
2.43648	75.7249
2.43534	75.7747
2.43419	75.7848
2.43305	75.7386
2.43191	75.7619
2.43077	75.7235
2.42963	75.7086
2.42849	75.6633
2.42736	75.6804
2.42622	75.7316
2.42509	75.6823
2.42395	75.5454
2.42282	75.3979
2.42169	75.4615
2.42056	75.6453
2.41943	75.5774
2.4183	75.5522
2.41717	75.5996
2.41605	75.5808
2.41492	75.5379
2.4138	75.6171
2.41267	75.7161
2.41155	75.6487
2.41043	75.6357
2.40931	75.6797
2.40819	75.7154
2.40707	75.8347
2.40595	75.845
2.40484	75.6899
2.40372	75.5822
2.40261	75.6825
2.4015	75.7639
2.40039	75.6594
2.39928	75.6671
2.39817	75.7615
2.39706	75.7753
2.39595	75.8021
2.39484	75.7975
2.39374	75.6791
2.39263	75.5941
2.39153	75.6151
2.39043	75.6128
2.38932	75.6374
2.38822	75.7517
2.38712	75.7415
2.38603	75.7239
2.38493	75.7557
2.38383	75.7623
2.38274	75.6847
2.38164	75.6503
2.38055	75.6908
2.37946	75.6975
2.37836	75.64
2.37727	75.5364
2.37618	75.5532
2.3751	75.4949
2.37401	75.5332
2.37292	75.6875
2.37184	75.7908
2.37075	75.8037
2.36967	75.781
2.36859	75.7009
2.3675	75.5986
2.36642	75.6029
2.36534	75.6505
2.36427	75.6893
2.36319	75.677
2.36211	75.7315
2.36104	75.7134
2.35996	75.5393
2.35889	75.5382
2.35781	75.6228
2.35674	75.6686
2.35567	75.6348
2.3546	75.5829
2.35353	75.6825
2.35247	75.6642
2.3514	75.6063
2.35033	75.699
2.34927	75.6984
2.3482	75.6541
2.34714	75.6407
2.34608	75.6406
2.34502	75.712
2.34396	75.6196
2.3429	75.5587
2.34184	75.6461
2.34078	75.6929
2.33973	75.6751
2.33867	75.5357
2.33762	75.5164
2.33656	75.6575
2.33551	75.7029
2.33446	75.6802
2.33341	75.6074
2.33236	75.6556
2.33131	75.7301
2.33026	75.6511
2.32922	75.6678
2.32817	75.7167
2.32712	75.6979
2.32608	75.6813
2.32504	75.737
2.324	75.6285
2.32295	75.673
2.32191	75.7368
2.32087	75.5351
2.31984	75.5309
2.3188	75.5378
2.31776	75.6228
2.31673	75.68
2.31569	75.6627
2.31466	75.5699
2.31362	75.5483
2.31259	75.5819
2.31156	75.4934
2.31053	75.5194
2.3095	75.5853
2.30847	75.6102
2.30745	75.6255
2.30642	75.6762
2.3054	75.6292
2.30437	75.6943
2.30335	75.6754
2.30232	75.5973
2.3013	75.5777
2.30028	75.5977
2.29926	75.5801
2.29824	75.57
2.29722	75.6114
2.29621	75.7381
2.29519	75.5535
2.29417	75.3801
2.29316	75.5651
2.29215	75.7646
2.29113	75.6755
2.29012	75.662
2.28911	75.6384
2.2881	75.6575
2.28709	75.6593
2.28608	75.5333
2.28507	75.4845
2.28407	75.5192
2.28306	75.5346
2.28206	75.6174
2.28105	75.6327
2.28005	75.5555
2.27905	75.6151
2.27805	75.6379
2.27705	75.6331
2.27605	75.6962
2.27505	75.6477
2.27405	75.5529
2.27305	75.6227
2.27206	75.4661
2.27106	75.387
2.27007	75.5037
2.26907	75.5141
2.26808	75.5227
2.26709	75.6034
2.2661	75.5643
2.26511	75.4934
2.26412	75.5029
2.26313	75.5357
2.26214	75.5311
2.26116	75.5143
2.26017	75.5238
2.25919	75.6121
2.2582	75.6385
2.25722	75.5274
2.25624	75.4296
2.25526	75.5025
2.25428	75.5302
2.2533	75.5288
2.25232	75.4977
2.25134	75.5415
2.25036	75.5657
2.24939	75.4506
2.24841	75.4888
2.24744	75.5501
2.24646	75.5156
2.24549	75.5534
2.24452	75.3993
2.24355	75.2652
2.24257	75.2175
2.24161	75.347
2.24064	75.4884
2.23967	75.4608
2.2387	75.505
2.23774	75.5786
2.23677	75.5648
2.23581	75.4914
2.23484	75.3929
2.23388	75.5363
2.23292	75.6039
2.23196	75.5436
2.231	75.4877
2.23004	75.4829
2.22908	75.3743
2.22812	75.2939
2.22716	75.4782
2.22621	75.5557
2.22525	75.6572
2.2243	75.473
2.22334	75.3495
2.22239	75.5836
2.22144	75.5568
2.22049	75.4472
2.21953	75.4884
2.21859	75.4817
2.21764	75.4887
2.21669	75.5847
2.21574	75.5292
2.21479	75.5745
2.21385	75.6422
2.2129	75.6394
2.21196	75.5543
2.21102	75.453
2.21007	75.4241
2.20913	75.4328
2.20819	75.3771
2.20725	75.3696
2.20631	75.4431
2.20537	75.469
2.20444	75.531
2.2035	75.5399
2.20256	75.4276
2.20163	75.3481
2.20069	75.4402
2.19976	75.4357
2.19883	75.3913
2.19789	75.4269
2.19696	75.386
2.19603	75.361
2.1951	75.3858
2.19417	75.4148
2.19325	75.3606
2.19232	75.35
2.19139	75.484
2.19047	75.5651
2.18954	75.5355
2.18862	75.443
2.18769	75.5623
2.18677	75.7121
2.18585	75.6878
2.18493	75.4527
2.18401	75.3489
2.18309	75.4759
2.18217	75.6002
2.18125	75.6131
2.18033	75.5222
2.17942	75.3413
2.1785	75.3349
2.17759	75.4316
2.17667	75.4655
2.17576	75.5691
2.17485	75.5158
2.17393	75.4287
2.17302	75.5311
2.17211	75.4559
2.1712	75.2828
2.17029	75.2778
2.16939	75.2867
2.16848	75.3382
2.16757	75.2999
2.16667	75.2403
2.16576	75.4153
2.16486	75.5414
2.16395	75.6182
2.16305	75.7414
2.16215	75.631
2.16125	75.5536
2.16035	75.5812
2.15945	75.4413
2.15855	75.38
2.15765	75.4416
2.15675	75.4584
2.15586	75.3861
2.15496	75.4498
2.15406	75.602
2.15317	75.5921
2.15228	75.4657
2.15138	75.5296
2.15049	75.5873
2.1496	75.3918
2.14871	75.3321
2.14782	75.4428
2.14693	75.4412
2.14604	75.5027
2.14515	75.5829
2.14427	75.5264
2.14338	75.4656
2.14249	75.4418
2.14161	75.3637
2.14072	75.3796
2.13984	75.4745
2.13896	75.5698
2.13808	75.4478
2.13719	75.3822
2.13631	75.4909
2.13543	75.5298
2.13455	75.4416
2.13368	75.4416
2.1328	75.4924
2.13192	75.546
2.13105	75.6084
2.13017	75.612
2.1293	75.5317
2.12842	75.298
2.12755	75.3906
2.12668	75.5843
2.1258	75.3859
2.12493	75.1313
2.12406	75.2173
2.12319	75.3669
2.12232	75.1745
2.12145	75.0266
2.12059	75.2774
2.11972	75.4748
2.11885	75.3863
2.11799	75.2975
2.11712	75.3241
2.11626	75.3706
2.1154	75.5442
2.11453	75.5914
2.11367	75.5329
2.11281	75.4352
2.11195	75.278
2.11109	75.2482
2.11023	75.4547
2.10937	75.6038
2.10851	75.4542
2.10766	75.3505
2.1068	75.3658
2.10594	75.244
2.10509	75.1662
2.10423	75.1847
2.10338	75.3867
2.10253	75.4938
2.10168	75.5293
2.10082	75.4832
2.09997	75.3703
2.09912	75.3378
2.09827	75.4161
2.09742	75.4137
2.09658	75.4406
2.09573	75.3656
2.09488	75.3368
2.09404	75.3742
2.09319	75.3245
2.09235	75.4076
2.0915	75.3552
2.09066	75.49
2.08982	75.7669
2.08897	75.6544
2.08813	75.5395
2.08729	75.4717
2.08645	75.361
2.08561	75.234
2.08477	75.0634
2.08394	75.1679
2.0831	75.3844
2.08226	75.4778
2.08143	75.3427
2.08059	75.2615
2.07976	75.2151
2.07892	75.3349
2.07809	75.5222
2.07726	75.3424
2.07643	75.2398
2.07559	75.1267
2.07476	75.0465
2.07393	75.1312
2.0731	75.1932
2.07228	75.1475
2.07145	75.1183
2.07062	75.1811
2.06979	75.3712
2.06897	75.4201
2.06814	75.4506
2.06732	75.6656
2.06649	75.608
2.06567	75.4075
2.06485	75.2435
2.06403	75.1655
2.0632	75.2196
2.06238	75.3805
2.06156	75.3624
2.06074	75.4107
2.05993	75.2893
2.05911	75.2385
2.05829	75.3338
2.05747	75.3643
2.05666	75.2673
2.05584	75.2606
2.05503	75.2544
2.05421	74.9128
2.0534	74.8958
2.05259	75.2872
2.05177	75.4369
2.05096	75.4203
2.05015	75.2795
2.04934	75.1072
2.04853	75.1084
2.04772	75.3148
2.04691	75.352
2.04611	75.3984
2.0453	75.3173
2.04449	75.349
2.04369	75.4477
2.04288	75.5795
2.04208	75.4035
2.04127	75.2052
2.04047	75.2614
2.03967	75.158
2.03886	75.1342
2.03806	75.1616
2.03726	75.1683
2.03646	75.2164
2.03566	75.2442
2.03486	75.3487
2.03407	75.3761
2.03327	75.288
2.03247	75.3273
2.03167	75.4108
2.03088	75.1532
2.03008	74.937
2.02929	75.119
2.0285	75.317
2.0277	75.2578
2.02691	75.2514
2.02612	75.337
2.02533	75.3143
2.02453	75.3871
2.02374	75.5203
2.02295	75.364
2.02217	75.2114
2.02138	75.5052
2.02059	75.6225
2.0198	75.2527
2.01902	75.1842
2.01823	75.4644
2.01744	75.4237
2.01666	75.2869
2.01588	75.2591
2.01509	75.2498
2.01431	75.4287
2.01353	75.4964
2.01275	75.4872
2.01196	75.4301
2.01118	75.4407
2.0104	75.3535
2.00963	75.0816
2.00885	75.1564
2.00807	75.3381
2.00729	75.3275
2.00651	75.3167
2.00574	75.2855
2.00496	75.2454
2.00419	75.3813
2.00341	75.5207
2.00264	75.3992
2.00187	75.3084
2.00109	75.1387
2.00032	75.1529
