Name: Titanite (Sphene) CaTiSiO_5
Type: Mineral
Class: Silicates
Subclass: Nesosilicates
Particle Size: 0-45um
Sample No.: NS-7A
Owner: JPL
Wavelength range: IR
Origin: Brazil, Minas Gerais, Capelinha
Collected by JPL
Description: 





Measurement: Hemispherical reflectance
First Column: X
Second Column: Y
X Units:  Wavelength (micrometers)
Y Units:  Reflectance (percent)
First X Value: 15.3853
Last X Value: 2.00032
Number of X Values: 2256
Additional information: ns07aa.txt
 
15.3853	5.98738
15.3397	5.99629
15.2945	6.01412
15.2495	6.33327
15.2048	6.40219
15.1603	6.33608
15.1161	6.40339
15.0722	6.3894
15.0285	6.36909
14.9851	6.05653
14.9419	5.90845
14.8989	6.0841
14.8563	6.50551
14.8138	6.65448
14.7716	6.48351
14.7296	6.40462
14.6879	6.23884
14.6464	6.31155
14.6052	6.43692
14.5641	6.6286
14.5233	6.34586
14.4828	6.12963
14.4424	6.22284
14.4023	6.34451
14.3624	6.52814
14.3227	6.59624
14.2833	6.45063
14.244	6.44812
14.205	6.437
14.1662	6.17203
14.1276	6.17187
14.0892	6.37303
14.051	6.56631
14.0131	6.6898
13.9753	6.64062
13.9377	6.43762
13.9004	6.50648
13.8632	6.65928
13.8262	6.62443
13.7895	6.64228
13.7529	6.7265
13.7165	6.70035
13.6803	6.77907
13.6443	6.86001
13.6085	6.90276
13.5729	6.93174
13.5374	6.84522
13.5022	6.77595
13.4671	6.83151
13.4322	6.84412
13.3975	6.70111
13.363	6.5811
13.3286	6.76519
13.2944	6.93909
13.2604	6.87899
13.2266	6.6478
13.193	6.64937
13.1595	6.67979
13.1262	6.66321
13.093	6.49242
13.06	6.38939
13.0272	6.38296
12.9946	6.27604
12.9621	6.22957
12.9298	6.22683
12.8976	6.00299
12.8656	5.89904
12.8337	5.92157
12.8021	6.05182
12.7705	6.16473
12.7391	6.15741
12.7079	6.04715
12.6769	5.85585
12.6459	5.74356
12.6152	5.7181
12.5845	5.67861
12.5541	5.81051
12.5238	5.90319
12.4936	5.86906
12.4635	5.79498
12.4337	5.59259
12.4039	5.62176
12.3743	5.62302
12.3448	5.49443
12.3155	5.62107
12.2863	5.78852
12.2573	5.92738
12.2284	6.09894
12.1996	6.20661
12.171	6.28877
12.1425	6.40432
12.1141	6.62003
12.0859	6.75193
12.0578	6.87926
12.0298	7.08566
12.0019	7.22888
11.9742	7.3641
11.9466	7.64977
11.9192	8.00733
11.8918	8.21254
11.8646	8.46682
11.8375	8.75875
11.8106	9.01104
11.7837	9.17386
11.757	9.2461
11.7304	9.36372
11.7039	9.56206
11.6776	9.76616
11.6513	9.91234
11.6252	9.95382
11.5992	10.1258
11.5733	10.5013
11.5475	10.7297
11.5219	10.9338
11.4963	10.9529
11.4709	11.0746
11.4455	11.2589
11.4203	11.1128
11.3952	10.9169
11.3702	10.7906
11.3454	10.4646
11.3206	10.2066
11.2959	10.1489
11.2714	10.1696
11.2469	10.2532
11.2226	10.4291
11.1983	10.67
11.1742	11.0095
11.1502	11.241
11.1263	11.1953
11.1024	11.213
11.0787	11.359
11.0551	11.5365
11.0316	11.5242
11.0081	11.4506
10.9848	11.4854
10.9616	11.53
10.9385	11.4992
10.9154	11.4764
10.8925	11.4833
10.8697	11.6553
10.8469	11.8311
10.8243	12.0024
10.8017	12.1193
10.7793	12.1283
10.7569	12.1169
10.7346	12.2516
10.7125	12.3119
10.6904	12.2987
10.6684	12.3255
10.6465	12.3059
10.6247	12.3789
10.6029	12.5124
10.5813	12.5114
10.5597	12.5318
10.5383	12.552
10.5169	12.6472
10.4956	12.7173
10.4744	12.7568
10.4533	12.7036
10.4323	12.6155
10.4113	12.5457
10.3904	12.5134
10.3697	12.4459
10.349	12.3987
10.3284	12.3277
10.3078	12.3191
10.2874	12.2787
10.267	12.2705
10.2467	12.279
10.2265	12.3078
10.2064	12.4127
10.1863	12.494
10.1663	12.5266
10.1464	12.6857
10.1266	12.7783
10.1069	12.7992
10.0872	12.8024
10.0676	12.8795
10.0481	12.8886
10.0287	12.7065
10.0093	12.5216
9.99005	12.3768
9.97084	12.1286
9.95169	11.8532
9.93263	11.655
9.91364	11.2391
9.89472	10.6923
9.87587	10.1361
9.8571	9.61899
9.83839	9.11066
9.81976	8.56035
9.80119	7.89282
9.78271	7.18149
9.76428	6.4986
9.74592	5.83894
9.72764	5.19648
9.70943	4.5981
9.69128	4.13644
9.6732	3.79833
9.65518	3.3914
9.63724	2.87282
9.61935	2.54693
9.60155	2.23961
9.5838	1.98724
9.56611	1.71187
9.5485	1.40315
9.53094	1.25701
9.51345	1.15668
9.49604	1.00476
9.47867	0.851107
9.46137	0.75785
9.44414	0.71348
9.42697	0.699983
9.40986	0.688387
9.39281	0.469181
9.37583	0.314641
9.35891	0.341057
9.34204	0.431516
9.32524	0.403044
9.3085	0.291406
9.29182	0.381188
9.27519	0.518227
9.25863	0.547805
9.24213	0.423464
9.22568	0.477219
9.2093	0.700258
9.19297	0.798288
9.17669	0.769508
9.16048	0.850099
9.14433	0.865938
9.12823	0.903333
9.11218	0.914942
9.0962	0.974372
9.08027	1.02063
9.06439	1.12332
9.04858	1.20054
9.03281	1.21485
9.0171	1.34649
9.00145	1.49153
8.98585	1.72691
8.9703	2.04917
8.9548	1.98066
8.93937	1.84992
8.92398	2.08149
8.90865	2.37892
8.89337	2.49193
8.87814	2.56153
8.86296	2.71109
8.84784	2.98625
8.83277	3.14334
8.81774	3.23059
8.80277	3.43528
8.78786	3.52943
8.77298	3.66339
8.75816	3.91257
8.7434	4.18015
8.72868	4.42453
8.714	4.61682
8.69938	4.80184
8.68481	4.92894
8.67029	5.12944
8.65581	5.35668
8.64139	5.43022
8.62701	5.60692
8.61268	6.0316
8.5984	6.23707
8.58416	6.40015
8.56997	6.5969
8.55583	6.66308
8.54174	6.87923
8.52769	7.15886
8.51368	7.36711
8.49973	7.59377
8.48582	7.90421
8.47195	8.21549
8.45813	8.27759
8.44436	8.382
8.43062	8.78872
8.41693	9.17203
8.4033	9.34359
8.3897	9.40922
8.37614	9.55867
8.36264	9.80733
8.34917	9.92059
8.33574	10.0896
8.32236	10.3241
8.30903	10.5068
8.29573	10.6755
8.28248	10.8665
8.26927	11.0324
8.2561	11.1689
8.24298	11.2873
8.2299	11.3565
8.21685	11.5174
8.20385	11.7055
8.19089	11.7947
8.17797	11.9463
8.16509	12.0415
8.15225	12.0975
8.13946	12.2654
8.1267	12.5146
8.11398	12.6256
8.10131	12.7921
8.08867	12.8959
8.07606	13.1043
8.0635	13.4169
8.05099	13.6179
8.0385	13.8368
8.02606	14.1054
8.01366	14.3955
8.00129	14.7005
7.98896	15.0169
7.97667	15.3128
7.96442	15.698
7.9522	16.0968
7.94002	16.3819
7.92788	16.6741
7.91578	17.0205
7.90371	17.3986
7.89168	17.7137
7.87969	17.9321
7.86773	18.1901
7.85581	18.4701
7.84392	18.7605
7.83207	18.9763
7.82026	19.2209
7.80849	19.4918
7.79674	19.7198
7.78503	19.9645
7.77337	20.2088
7.76173	20.4642
7.75012	20.6702
7.73856	20.8322
7.72703	20.9932
7.71553	21.2172
7.70406	21.4032
7.69263	21.5608
7.68123	21.7202
7.66987	21.7883
7.65855	21.8668
7.64725	21.9604
7.63598	21.9533
7.62475	22.0155
7.61356	22.0931
7.60239	22.1904
7.59126	22.3058
7.58017	22.3476
7.5691	22.3902
7.55806	22.488
7.54707	22.5573
7.5361	22.6125
7.52516	22.7229
7.51425	22.9025
7.50338	23.1039
7.49253	23.2721
7.48172	23.3703
7.47094	23.498
7.46019	23.6994
7.44947	23.7602
7.43879	23.7746
7.42813	23.9532
7.4175	24.1599
7.4069	24.2753
7.39634	24.4441
7.3858	24.6038
7.37529	24.6851
7.36482	24.895
7.35437	25.2092
7.34396	25.4816
7.33357	25.7178
7.32321	25.8522
7.31288	25.9592
7.30258	26.0354
7.29231	26.1217
7.28207	26.2823
7.27185	26.4092
7.26167	26.3772
7.25152	26.3908
7.24139	26.3972
7.23129	26.4218
7.22122	26.5596
7.21117	26.8308
7.20116	26.8259
7.19117	26.7074
7.18121	26.8413
7.17128	27.0913
7.16137	27.077
7.1515	27.0092
7.14164	26.8741
7.13182	26.706
7.12203	26.7253
7.11225	26.7059
7.10251	26.6061
7.0928	26.6007
7.08311	26.5594
7.07344	26.6475
7.06381	26.8322
7.0542	27.1476
7.04461	27.4025
7.03506	27.0526
7.02552	26.9862
7.01601	27.0632
7.00653	27.0742
6.99708	27.3023
6.98765	27.2759
6.97824	27.2506
6.96886	27.7065
6.95951	28.1719
6.95018	27.8029
6.94087	27.6127
6.9316	27.6444
6.92234	27.6677
6.91311	27.8122
6.90391	27.9002
6.89473	27.7738
6.88557	27.8414
6.87644	28.2212
6.86733	29.3052
6.85824	29.5286
6.84918	28.892
6.84015	28.7116
6.83114	29.1063
6.82215	29.1818
6.81319	28.9601
6.80424	29.2587
6.79532	30.1279
6.78643	30.5314
6.77756	30.3301
6.76871	30.3591
6.75989	30.4049
6.75109	30.6653
6.74231	30.8785
6.73355	31.1749
6.72482	31.6325
6.71611	32.131
6.70742	32.3342
6.69875	32.274
6.69011	32.8089
6.68149	33.6114
6.67289	33.7434
6.66431	33.6361
6.65576	33.7597
6.64722	34.8733
6.63871	36.4227
6.63022	35.9983
6.62175	35.2422
6.61331	35.4106
6.60488	35.6206
6.59648	36.2035
6.5881	36.6922
6.57974	37.3505
6.5714	38.0591
6.56308	37.6661
6.55478	37.7284
6.54651	37.7703
6.53825	37.7637
6.53001	38.1403
6.5218	38.8585
6.51361	38.7768
6.50544	39.275
6.49729	40.9728
6.48915	41.3086
6.48104	40.5123
6.47295	40.1526
6.46488	39.7833
6.45683	39.7802
6.4488	39.903
6.44079	40.1025
6.4328	40.5685
6.42482	41.1551
6.41687	42.7603
6.40894	42.3192
6.40103	40.4379
6.39314	40.0206
6.38526	40.0123
6.37741	40.2439
6.36957	40.5637
6.36176	40.0813
6.35396	40.1596
6.34618	41.0016
6.33843	40.5801
6.33069	39.8515
6.32297	39.7983
6.31527	39.786
6.30758	39.8533
6.29992	40.0237
6.29227	40.2164
6.28465	40.3779
6.27704	40.5252
6.26945	40.6235
6.26188	40.7396
6.25432	40.8315
6.24679	40.9395
6.23927	41.015
6.23177	41.0743
6.22429	41.1746
6.21683	41.282
6.20938	41.2264
6.20195	41.1784
6.19454	41.5317
6.18715	42.4204
6.17978	41.9893
6.17242	41.1958
6.16508	41.4458
6.15776	41.6021
6.15045	41.2509
6.14317	41.1461
6.1359	40.976
6.12864	40.7949
6.12141	41.3303
6.11419	42.1482
6.10699	41.4136
6.0998	40.5731
6.09263	40.3574
6.08549	40.347
6.07835	40.9977
6.07123	41.1771
6.06413	40.4408
6.05705	40.9806
6.04998	42.6581
6.04293	41.3453
6.0359	39.6483
6.02888	39.1107
6.02187	39.0434
6.01489	39.2698
6.00792	38.9611
6.00096	38.7296
5.99403	39.2257
5.98711	39.2509
5.9802	38.6644
5.97331	38.7083
5.96644	38.6728
5.95958	37.9102
5.95274	37.6078
5.94591	37.7883
5.9391	38.8352
5.9323	38.1789
5.92552	36.7406
5.91876	36.2358
5.91201	35.7502
5.90528	35.6223
5.89856	36.3377
5.89186	35.9457
5.88517	35.967
5.8785	35.7075
5.87184	34.116
5.8652	33.5833
5.85857	33.0954
5.85196	32.5625
5.84536	32.048
5.83878	31.7644
5.83221	31.8043
5.82566	32.1028
5.81912	31.6625
5.81259	30.4632
5.80608	29.8197
5.79959	29.5168
5.79311	29.263
5.78665	29.1445
5.78019	29.0609
5.77376	29.4402
5.76734	30.2812
5.76093	29.7966
5.75453	29.4034
5.74815	29.7651
5.74179	29.7005
5.73543	29.8196
5.7291	30.1268
5.72277	30.5327
5.71646	30.9864
5.71017	31.4365
5.70389	31.3891
5.69762	31.5301
5.69136	31.8636
5.68513	31.9603
5.6789	32.3264
5.67268	32.5714
5.66648	32.5667
5.6603	32.9563
5.65413	33.3619
5.64797	33.8368
5.64182	34.4911
5.63569	34.2672
5.62957	34.0637
5.62347	34.3271
5.61737	34.7455
5.61129	34.9999
5.60522	35.2297
5.59917	35.4843
5.59313	35.6149
5.5871	36.0146
5.58109	36.7246
5.57509	36.9694
5.5691	36.8623
5.56312	37.0747
5.55716	37.4452
5.55121	37.8328
5.54528	37.9819
5.53935	38.1514
5.53344	38.2937
5.52754	38.5233
5.52166	38.7783
5.51578	38.8076
5.50992	38.7692
5.50407	38.8501
5.49823	38.9022
5.49241	38.9247
5.4866	38.9005
5.4808	39.0979
5.47501	39.099
5.46923	39.156
5.46347	39.3121
5.45772	39.0498
5.45198	38.8443
5.44625	38.8832
5.44054	38.9103
5.43484	38.8533
5.42914	38.9873
5.42347	39.4867
5.4178	39.3214
5.41214	38.9585
5.4065	38.8775
5.40087	38.8885
5.39525	38.9501
5.38964	39.0254
5.38404	39.1728
5.37846	39.3415
5.37288	39.6003
5.36732	39.9953
5.36177	40.4307
5.35623	41.0629
5.35071	41.6957
5.34519	41.9143
5.33968	42.1528
5.33419	42.5757
5.32871	42.9566
5.32324	43.3289
5.31778	43.7363
5.31233	44.1574
5.30689	44.5879
5.30147	45.0209
5.29605	45.577
5.29065	46.1389
5.28525	46.546
5.27987	47.1199
5.2745	47.7296
5.26914	48.4006
5.26379	49.1215
5.25845	49.8509
5.25312	50.5723
5.24781	51.293
5.2425	51.907
5.23721	52.5236
5.23192	53.1367
5.22665	53.7378
5.22138	54.3219
5.21613	55.104
5.21089	55.672
5.20566	56.1279
5.20044	56.7272
5.19522	57.1966
5.19002	57.7115
5.18483	58.2202
5.17965	58.7001
5.17448	59.2292
5.16933	59.6576
5.16418	59.9894
5.15904	60.291
5.15391	60.6282
5.14879	61.0145
5.14368	61.119
5.13859	61.1587
5.1335	61.2887
5.12842	61.4443
5.12335	61.5186
5.1183	61.4642
5.11325	61.4654
5.10821	61.5517
5.10318	61.6045
5.09817	61.5263
5.09316	61.415
5.08816	61.3215
5.08317	61.2688
5.07819	61.0669
5.07322	60.832
5.06826	60.6693
5.06331	60.5224
5.05837	60.3625
5.05344	60.3051
5.04852	60.3253
5.04361	60.367
5.03871	60.4297
5.03382	60.5402
5.02894	60.7302
5.02406	60.9927
5.0192	61.3134
5.01435	61.5869
5.0095	61.9508
5.00467	62.4165
4.99984	62.8102
4.99502	63.2391
4.99021	63.6841
4.98542	64.1808
4.98063	64.5991
4.97585	64.9828
4.97108	65.3846
4.96632	65.799
4.96156	66.2015
4.95682	66.6016
4.95209	66.9601
4.94736	67.2588
4.94264	67.594
4.93794	67.9496
4.93324	68.2657
4.92855	68.6245
4.92387	68.9477
4.9192	69.2187
4.91453	69.4766
4.90988	69.7656
4.90524	70.104
4.9006	70.465
4.89597	70.6725
4.89135	70.8545
4.88674	71.0854
4.88214	71.2572
4.87755	71.4279
4.87296	71.6311
4.86839	71.7885
4.86382	71.9674
4.85926	72.1011
4.85471	72.2541
4.85017	72.431
4.84564	72.5815
4.84111	72.6902
4.8366	72.8193
4.83209	72.9451
4.82759	73.091
4.8231	73.1647
4.81862	73.2524
4.81415	73.4247
4.80968	73.5293
4.80522	73.5802
4.80077	73.7203
4.79633	73.7943
4.7919	73.8236
4.78747	73.8559
4.78306	73.9695
4.77865	74.0929
4.77425	74.1978
4.76986	74.2059
4.76547	74.2296
4.7611	74.3482
4.75673	74.5083
4.75237	74.5522
4.74802	74.587
4.74367	74.6774
4.73934	74.7141
4.73501	74.7828
4.73069	74.8943
4.72638	74.9503
4.72207	74.9543
4.71777	74.9678
4.71348	75.0426
4.7092	75.066
4.70493	74.9955
4.70066	74.9039
4.69641	74.8744
4.69216	74.8697
4.68791	74.9165
4.68368	74.9419
4.67945	74.9284
4.67523	74.9469
4.67102	74.9939
4.66682	74.9955
4.66262	74.991
4.65843	74.9976
4.65425	75.0594
4.65007	75.1417
4.64591	75.2186
4.64175	75.3174
4.6376	75.3747
4.63345	75.4087
4.62932	75.4961
4.62519	75.6402
4.62106	75.7023
4.61695	75.735
4.61284	75.8094
4.60874	75.876
4.60465	75.929
4.60056	75.9598
4.59648	76.0202
4.59241	76.049
4.58835	76.1047
4.58429	76.1855
4.58024	76.2657
4.5762	76.2527
4.57216	76.2809
4.56814	76.3734
4.56411	76.4629
4.5601	76.4853
4.55609	76.534
4.55209	76.5826
4.5481	76.6524
4.54411	76.7659
4.54013	76.8191
4.53616	76.8044
4.5322	76.779
4.52824	76.745
4.52429	76.7859
4.52034	76.8306
4.51641	76.8977
4.51247	76.9347
4.50855	76.941
4.50463	76.9505
4.50072	76.9773
4.49682	76.9498
4.49292	76.9256
4.48903	76.9566
4.48515	76.983
4.48127	77.0266
4.4774	77.0712
4.47354	77.112
4.46968	77.1472
4.46584	77.1312
4.46199	77.0933
4.45815	77.076
4.45432	77.0846
4.4505	77.0413
4.44668	77.0492
4.44287	77.0889
4.43907	77.1144
4.43527	77.1457
4.43148	77.1362
4.4277	77.1287
4.42392	77.158
4.42015	77.234
4.41638	77.2464
4.41262	77.213
4.40887	77.289
4.40513	77.2861
4.40139	77.2176
4.39765	77.2294
4.39393	77.2132
4.39021	77.2439
4.38649	77.367
4.38278	77.4068
4.37908	77.3932
4.37539	77.3973
4.3717	77.4414
4.36801	77.4325
4.36434	77.4529
4.36067	77.5255
4.357	77.5484
4.35335	77.5026
4.34969	77.4035
4.34605	77.4596
4.34241	77.5694
4.33877	77.4953
4.33514	77.5135
4.33152	77.5765
4.32791	77.554
4.3243	77.5423
4.32069	77.5828
4.3171	77.5689
4.31351	77.5558
4.30992	77.6266
4.30634	77.6701
4.30277	77.655
4.2992	77.63
4.29564	77.5502
4.29208	77.5405
4.28853	77.5709
4.28499	77.5994
4.28145	77.6224
4.27792	77.6949
4.27439	77.7071
4.27087	77.6868
4.26735	77.7259
4.26384	77.7659
4.26034	77.7898
4.25684	77.865
4.25335	77.8486
4.24986	77.8099
4.24638	77.7861
4.24291	77.7948
4.23944	77.7775
4.23598	77.7265
4.23252	77.6395
4.22906	77.6892
4.22562	77.7531
4.22218	77.7455
4.21874	77.8258
4.21531	77.8957
4.21189	77.9133
4.20847	77.9187
4.20506	77.8992
4.20165	77.9309
4.19825	77.9647
4.19485	77.9776
4.19146	77.9821
4.18807	78.0283
4.18469	78.0066
4.18132	77.9672
4.17795	77.9449
4.17458	77.9937
4.17123	78.0397
4.16787	78.0406
4.16453	77.9721
4.16118	77.8984
4.15785	77.891
4.15451	77.9314
4.15119	77.8937
4.14787	77.8659
4.14455	77.8684
4.14124	77.8915
4.13794	77.8921
4.13464	77.8726
4.13134	77.8829
4.12805	77.9522
4.12477	78.0097
4.12149	77.989
4.11822	77.9461
4.11495	77.9098
4.11168	77.8935
4.10843	77.8902
4.10517	77.8759
4.10192	77.8928
4.09868	77.9381
4.09545	77.9604
4.09221	77.941
4.08899	77.8883
4.08576	77.8588
4.08255	77.9116
4.07933	77.9428
4.07613	77.8838
4.07292	77.9024
4.06973	77.9088
4.06654	77.8823
4.06335	77.8404
4.06017	77.7769
4.05699	77.7408
4.05382	77.7289
4.05065	77.7111
4.04749	77.6824
4.04433	77.6617
4.04118	77.6275
4.03803	77.6087
4.03489	77.6322
4.03175	77.5971
4.02862	77.5007
4.02549	77.4313
4.02237	77.4143
4.01925	77.4493
4.01614	77.3905
4.01303	77.2539
4.00993	77.2004
4.00683	77.1721
4.00373	77.1152
4.00064	77.0747
3.99756	77.0725
3.99448	77.0484
3.9914	76.9474
3.98833	76.8912
3.98527	76.8478
3.98221	76.7992
3.97915	76.7015
3.9761	76.6717
3.97305	76.648
3.97001	76.5884
3.96697	76.5251
3.96394	76.5027
3.96091	76.4674
3.95789	76.4366
3.95487	76.3319
3.95186	76.3149
3.94885	76.3373
3.94584	76.3437
3.94284	76.3741
3.93984	76.3633
3.93685	76.2728
3.93386	76.183
3.93088	76.1675
3.9279	76.2329
3.92493	76.1734
3.92196	76.1248
3.919	76.0428
3.91604	76.0152
3.91308	76.0449
3.91013	76.0354
3.90718	76.0176
3.90424	76.0166
3.9013	76.0302
3.89837	76.0082
3.89544	75.9294
3.89252	75.8857
3.8896	75.8958
3.88668	75.9397
3.88377	75.9026
3.88086	75.8905
3.87796	75.8726
3.87506	75.8139
3.87217	75.7894
3.86928	75.7572
3.86639	75.7479
3.86351	75.7591
3.86064	75.712
3.85776	75.7196
3.8549	75.7273
3.85203	75.7273
3.84917	75.7604
3.84631	75.7779
3.84346	75.7832
3.84062	75.8582
3.83777	75.8507
3.83494	75.8097
3.8321	75.6898
3.82927	75.639
3.82644	75.6925
3.82362	75.7256
3.82081	75.768
3.81799	75.7606
3.81518	75.7208
3.81238	75.7502
3.80958	75.7471
3.80678	75.73
3.80399	75.7145
3.8012	75.6317
3.79841	75.582
3.79563	75.6124
3.79286	75.6257
3.79008	75.6078
3.78731	75.5671
3.78455	75.5778
3.78179	75.5957
3.77903	75.6179
3.77628	75.6077
3.77353	75.5865
3.77079	75.5389
3.76805	75.4963
3.76531	75.5332
3.76258	75.5466
3.75985	75.4871
3.75713	75.3783
3.7544	75.3572
3.75169	75.3466
3.74898	75.2817
3.74627	75.301
3.74356	75.3588
3.74086	75.3352
3.73816	75.2701
3.73547	75.2303
3.73278	75.1953
3.7301	75.1546
3.72741	75.0758
3.72474	75.0169
3.72206	75.0493
3.71939	75.05
3.71673	74.9503
3.71406	74.8661
3.71141	74.7793
3.70875	74.7565
3.7061	74.7761
3.70345	74.7529
3.70081	74.699
3.69817	74.6619
3.69553	74.6043
3.6929	74.5953
3.69027	74.613
3.68765	74.5236
3.68503	74.4816
3.68241	74.433
3.6798	74.3399
3.67719	74.2583
3.67458	74.2622
3.67198	74.2609
3.66938	74.1831
3.66678	74.1184
3.66419	74.024
3.66161	73.9692
3.65902	73.992
3.65644	74.048
3.65387	74.0168
3.65129	73.9363
3.64872	73.8447
3.64616	73.758
3.64359	73.6838
3.64103	73.7378
3.63848	73.7417
3.63593	73.6036
3.63338	73.5224
3.63084	73.549
3.6283	73.4765
3.62576	73.414
3.62322	73.3481
3.62069	73.2748
3.61817	73.2668
3.61564	73.2604
3.61312	73.2364
3.61061	73.1534
3.6081	73.0789
3.60559	73.0133
3.60308	72.9945
3.60058	73.0038
3.59808	73.0085
3.59558	72.9505
3.59309	72.8379
3.59061	72.7139
3.58812	72.6842
3.58564	72.6718
3.58316	72.5681
3.58069	72.5399
3.57822	72.4946
3.57575	72.4477
3.57328	72.3841
3.57082	72.362
3.56836	72.3599
3.56591	72.3067
3.56346	72.231
3.56101	72.1853
3.55857	72.1804
3.55613	72.1755
3.55369	72.123
3.55126	72.0892
3.54883	72.078
3.5464	71.966
3.54397	71.8965
3.54155	71.8728
3.53914	71.8501
3.53672	71.8269
3.53431	71.7683
3.5319	71.7187
3.5295	71.6197
3.5271	71.5332
3.5247	71.4526
3.52231	71.3722
3.51991	71.2756
3.51753	71.1385
3.51514	71.0312
3.51276	70.9431
3.51038	70.7953
3.50801	70.6506
3.50563	70.5521
3.50327	70.4509
3.5009	70.3505
3.49854	70.3476
3.49618	70.3159
3.49382	70.2496
3.49147	70.2913
3.48912	70.3091
3.48677	70.2807
3.48443	70.3167
3.48209	70.3212
3.47975	70.1829
3.47742	70.1251
3.47509	70.2138
3.47276	70.2254
3.47044	70.1249
3.46812	70.0203
3.4658	70
3.46348	69.9855
3.46117	69.9374
3.45886	69.8428
3.45656	69.7394
3.45425	69.6608
3.45195	69.6301
3.44966	69.625
3.44736	69.5682
3.44507	69.5047
3.44279	69.3671
3.4405	69.2131
3.43822	69.1497
3.43594	69.1283
3.43367	69.0124
3.43139	68.8364
3.42912	68.6929
3.42686	68.54
3.42459	68.4062
3.42233	68.2326
3.42007	68.1139
3.41782	68.0576
3.41557	68.0168
3.41332	68.0353
3.41108	68.0062
3.40883	67.9649
3.40659	67.9789
3.40435	68.0235
3.40212	68.1624
3.39989	68.2555
3.39766	68.2967
3.39544	68.1985
3.39322	68.1522
3.391	68.1698
3.38878	68.1553
3.38657	68.124
3.38436	68.0784
3.38215	68.0705
3.37994	68.0621
3.37774	67.9212
3.37554	67.7904
3.37335	67.8312
3.37115	67.8679
3.36896	67.9169
3.36678	67.9893
3.36459	67.952
3.36241	67.8794
3.36023	67.9359
3.35805	68.035
3.35588	67.9878
3.35371	67.9255
3.35154	67.9155
3.34938	67.8127
3.34721	67.7465
3.34505	67.7
3.3429	67.7258
3.34074	67.8208
3.33859	67.8192
3.33644	67.7504
3.3343	67.6479
3.33215	67.5954
3.33001	67.5667
3.32788	67.5768
3.32574	67.5604
3.32361	67.4812
3.32148	67.4102
3.31936	67.2806
3.31723	67.2355
3.31511	67.3496
3.31299	67.326
3.31088	67.2679
3.30876	67.2371
3.30665	67.2119
3.30455	67.1587
3.30244	67.0293
3.30034	66.8761
3.29824	66.8489
3.29614	66.9235
3.29405	66.9175
3.29196	66.8554
3.28987	66.8047
3.28778	66.7312
3.2857	66.6026
3.28362	66.5081
3.28154	66.422
3.27946	66.5059
3.27739	66.6033
3.27532	66.5275
3.27325	66.4087
3.27119	66.3277
3.26913	66.3143
3.26707	66.2373
3.26501	66.1667
3.26295	66.1452
3.2609	66.0917
3.25885	65.9968
3.2568	65.9795
3.25476	65.9191
3.25272	65.874
3.25068	65.8262
3.24864	65.7944
3.24661	65.7335
3.24458	65.6423
3.24255	65.572
3.24052	65.5386
3.2385	65.5003
3.23648	65.4385
3.23446	65.3051
3.23244	65.1845
3.23043	65.1885
3.22841	65.2008
3.2264	65.1728
3.2244	65.0881
3.22239	65.0328
3.22039	64.9951
3.21839	64.9361
3.2164	64.857
3.2144	64.8436
3.21241	64.8078
3.21042	64.7563
3.20844	64.7581
3.20645	64.7506
3.20447	64.6908
3.20249	64.6324
3.20051	64.6096
3.19854	64.5225
3.19657	64.3532
3.1946	64.2608
3.19263	64.3356
3.19067	64.4011
3.1887	64.3134
3.18674	64.166
3.18479	64.0932
3.18283	64.0221
3.18088	64.026
3.17893	64.0313
3.17698	63.9071
3.17504	63.7828
3.17309	63.794
3.17115	63.8017
3.16921	63.6793
3.16728	63.6239
3.16534	63.6057
3.16341	63.5484
3.16148	63.5071
3.15956	63.4798
3.15763	63.479
3.15571	63.4147
3.15379	63.3566
3.15187	63.26
3.14996	63.1813
3.14805	63.1426
3.14614	63.1177
3.14423	63.1481
3.14232	63.0916
3.14042	62.9361
3.13852	62.8323
3.13662	62.7778
3.13472	62.7703
3.13283	62.7742
3.13094	62.7118
3.12905	62.6474
3.12716	62.5854
3.12528	62.6101
3.12339	62.6217
3.12151	62.4879
3.11964	62.417
3.11776	62.4171
3.11589	62.4293
3.11401	62.3857
3.11214	62.3292
3.11028	62.2962
3.10841	62.2357
3.10655	62.1779
3.10469	62.1357
3.10283	62.0785
3.10098	61.9873
3.09912	61.9481
3.09727	61.8897
3.09542	61.8628
3.09358	61.8777
3.09173	61.8523
3.08989	61.7865
3.08805	61.7483
3.08621	61.7125
3.08437	61.5959
3.08254	61.5782
3.08071	61.6511
3.07888	61.6172
3.07705	61.4538
3.07523	61.3646
3.0734	61.285
3.07158	61.2419
3.06977	61.3456
3.06795	61.3638
3.06613	61.2477
3.06432	61.248
3.06251	61.3075
3.0607	61.2755
3.0589	61.1978
3.0571	61.1715
3.05529	61.1363
3.05349	60.9541
3.0517	60.8026
3.0499	60.7266
3.04811	60.7294
3.04632	60.7586
3.04453	60.8261
3.04274	60.8116
3.04096	60.7877
3.03918	60.8105
3.0374	60.7566
3.03562	60.5941
3.03384	60.495
3.03207	60.5349
3.03029	60.5435
3.02852	60.5183
3.02676	60.4331
3.02499	60.4135
3.02323	60.4199
3.02146	60.3948
3.0197	60.2997
3.01795	60.2276
3.01619	60.1881
3.01444	60.0078
3.01269	59.9162
3.01094	60.029
3.00919	60.0104
3.00744	59.986
3.0057	59.863
3.00396	59.8142
3.00222	59.9059
3.00048	59.8308
2.99875	59.7371
2.99701	59.6636
2.99528	59.5703
2.99355	59.542
2.99183	59.5293
2.9901	59.3918
2.98838	59.3069
2.98666	59.3671
2.98494	59.3457
2.98322	59.2857
2.9815	59.2493
2.97979	59.1258
2.97808	58.9871
2.97637	58.9157
2.97466	58.8799
2.97295	58.8171
2.97125	58.763
2.96955	58.7032
2.96785	58.6808
2.96615	58.6515
2.96446	58.5693
2.96276	58.4967
2.96107	58.4775
2.95938	58.5222
2.95769	58.4921
2.95601	58.3729
2.95432	58.2175
2.95264	58.0542
2.95096	57.9464
2.94928	57.9167
2.9476	57.8703
2.94593	57.7773
2.94425	57.6525
2.94258	57.5228
2.94092	57.2481
2.93925	57.1742
2.93758	57.2835
2.93592	57.1214
2.93426	56.9416
2.9326	56.8606
2.93094	56.6066
2.92928	56.43
2.92763	56.3343
2.92598	56.2722
2.92433	56.2842
2.92268	56.0588
2.92103	55.6832
2.91939	55.4666
2.91775	55.4192
2.9161	55.2801
2.91447	55.0125
2.91283	54.6255
2.91119	54.33
2.90956	53.9901
2.90793	53.48
2.9063	53.0388
2.90467	52.3925
2.90304	51.6258
2.90142	50.8882
2.89979	50.0458
2.89817	49.0031
2.89656	48.0147
2.89494	47.0489
2.89332	45.862
2.89171	44.5604
2.8901	43.1253
2.88849	41.4817
2.88688	39.6452
2.88527	37.8136
2.88367	35.9334
2.88206	33.8688
2.88046	31.9265
2.87886	29.9462
2.87727	28.1261
2.87567	26.6052
2.87408	25.4343
2.87248	24.7024
2.87089	24.3275
2.8693	24.0851
2.86772	24.1831
2.86613	24.7163
2.86455	25.5349
2.86297	26.5467
2.86139	27.9429
2.85981	29.5166
2.85823	31.4028
2.85666	33.5226
2.85508	35.6721
2.85351	37.6571
2.85194	39.7537
2.85038	41.9855
2.84881	44.2427
2.84724	46.3648
2.84568	48.2895
2.84412	50.1198
2.84256	51.7769
2.841	53.1835
2.83945	54.3836
2.83789	55.4461
2.83634	56.1697
2.83479	56.7422
2.83324	57.354
2.83169	57.9126
2.83015	58.3392
2.82861	58.5835
2.82706	58.9173
2.82552	59.2898
2.82398	59.5489
2.82245	59.8597
2.82091	60.1431
2.81938	60.3906
2.81784	60.4628
2.81631	60.5621
2.81479	60.7694
2.81326	60.855
2.81173	60.851
2.81021	60.9176
2.80869	61.1698
2.80716	61.4015
2.80565	61.6447
2.80413	62.2216
2.80261	62.5684
2.8011	62.2999
2.79959	62.2189
2.79808	62.4959
2.79657	62.7468
2.79506	62.9488
2.79355	63.1712
2.79205	63.3738
2.79055	63.5857
2.78904	64.1255
2.78754	64.7956
2.78605	64.8947
2.78455	64.6455
2.78306	64.8199
2.78156	65.1401
2.78007	65.3328
2.77858	65.4491
2.77709	65.6639
2.77561	65.8181
2.77412	65.9587
2.77264	66.471
2.77116	67.2077
2.76968	67.3536
2.7682	67.4787
2.76672	67.4797
2.76524	67.5678
2.76377	68.3059
2.7623	68.5198
2.76083	68.0008
2.75936	67.8102
2.75789	68.2924
2.75642	69.8106
2.75496	70.5644
2.7535	69.395
2.75203	69.3632
2.75057	69.5544
2.74912	69.5408
2.74766	69.7814
2.7462	70.0766
2.74475	70.356
2.7433	70.8077
2.74185	71.9372
2.7404	73.0485
2.73895	72.7222
2.7375	71.5607
2.73606	71.8344
2.73462	72.3301
2.73318	71.8094
2.73174	71.6525
2.7303	71.9001
2.72886	72.062
2.72742	72.2853
2.72599	73.2272
2.72456	74.285
2.72313	73.8339
2.7217	74.4174
2.72027	75.3115
2.71884	74.0285
2.71742	73.4863
2.71599	73.3903
2.71457	73.4244
2.71315	73.7947
2.71173	75.1857
2.71032	75.5748
2.7089	74.5794
2.70748	73.8007
2.70607	73.521
2.70466	73.5954
2.70325	73.8036
2.70184	74.3811
2.70043	74.6362
2.69903	74.6796
2.69762	75.2267
2.69622	76.1777
2.69482	77.1792
2.69342	77.4666
2.69202	76.7471
2.69062	76.606
2.68923	77.004
2.68783	77.4382
2.68644	77.8222
2.68505	78.023
2.68366	78.2212
2.68227	78.154
2.68089	78.4479
2.6795	79.4657
2.67812	79.7872
2.67673	80.1942
2.67535	79.6549
2.67397	79.0369
2.6726	79.3768
2.67122	81.5744
2.66984	81.9722
2.66847	80.693
2.6671	81.7549
2.66572	82.083
2.66435	81.0715
2.66299	79.8319
2.66162	79.8569
2.66025	80.0352
2.65889	80.1016
2.65753	79.667
2.65616	79.9415
2.65481	80.061
2.65345	80.3263
2.65209	80.4348
2.65073	80.0159
2.64938	79.819
2.64803	79.9503
2.64667	80.3598
2.64532	80.5849
2.64397	80.2381
2.64263	80.3278
2.64128	80.2526
2.63994	80.2001
2.63859	80.2009
2.63725	80.2958
2.63591	80.3319
2.63457	80.7768
2.63323	80.8351
2.6319	81.2115
2.63056	82.3577
2.62923	81.5431
2.62789	81.178
2.62656	81.7947
2.62523	80.8214
2.6239	80.2786
2.62258	80.4165
2.62125	81.5735
2.61993	81.9462
2.6186	81.2528
2.61728	82.0657
2.61596	81.6099
2.61464	80.5198
2.61332	80.5184
2.61201	80.3929
2.61069	80.5617
2.60938	80.8558
2.60807	81.0989
2.60675	81.8251
2.60544	82.504
2.60414	81.6489
2.60283	80.96
2.60152	80.7198
2.60022	80.4546
2.59891	80.2292
2.59761	80.6572
2.59631	82.4753
2.59501	84.6325
2.59371	82.9737
2.59242	80.7394
2.59112	80.379
2.58983	80.6413
2.58853	80.9915
2.58724	81.3414
2.58595	81.0825
2.58466	81.7796
2.58338	81.9342
2.58209	81.0915
2.5808	81.0948
2.57952	80.7789
2.57824	81.0797
2.57695	81.6123
2.57567	81.4571
2.5744	81.8763
2.57312	82.3054
2.57184	81.6522
2.57057	82.0966
2.56929	82.4367
2.56802	81.8372
2.56675	81.6527
2.56548	82.2925
2.56421	83.0338
2.56294	83.2758
2.56168	83.359
2.56041	82.9637
2.55915	82.2536
2.55789	81.9605
2.55662	81.9597
2.55536	81.9839
2.5541	82.0895
2.55285	82.4082
2.55159	82.3351
2.55034	82.1115
2.54908	82.0249
2.54783	82.1
2.54658	82.0134
2.54533	81.9495
2.54408	82.0535
2.54283	82.2418
2.54159	81.988
2.54034	81.6813
2.5391	81.6641
2.53785	81.744
2.53661	81.8575
2.53537	81.7976
2.53413	81.664
2.53289	81.7566
2.53166	81.8261
2.53042	81.7196
2.52919	81.7014
2.52795	81.838
2.52672	81.8546
2.52549	81.7724
2.52426	81.7972
2.52303	81.9012
2.52181	81.9065
2.52058	81.9625
2.51936	81.9741
2.51813	81.9949
2.51691	82.0616
2.51569	82.0495
2.51447	82.0814
2.51325	82.0889
2.51203	82.0512
2.51082	81.8981
2.5096	81.8019
2.50839	81.8457
2.50717	81.9558
2.50596	81.9662
2.50475	81.8986
2.50354	81.9428
2.50233	81.9295
2.50113	81.8445
2.49992	81.8592
2.49872	81.8421
2.49751	81.8289
2.49631	81.7892
2.49511	81.7167
2.49391	81.5747
2.49271	81.583
2.49151	81.643
2.49031	81.7205
2.48912	81.8004
2.48792	81.7975
2.48673	81.765
2.48554	81.8241
2.48435	81.9489
2.48316	81.948
2.48197	82.0334
2.48078	82.1606
2.4796	82.1607
2.47841	82.2972
2.47723	82.4158
2.47604	82.502
2.47486	82.5115
2.47368	82.5563
2.4725	82.5817
2.47132	82.5925
2.47014	82.7191
2.46897	82.8391
2.46779	82.9404
2.46662	82.8992
2.46545	82.8604
2.46427	82.8992
2.4631	83.0117
2.46193	82.961
2.46077	82.9865
2.4596	83.0925
2.45843	83.233
2.45727	83.333
2.4561	83.3296
2.45494	83.3164
2.45378	83.2332
2.45262	83.2572
2.45146	83.4259
2.4503	83.5301
2.44914	83.496
2.44799	83.4928
2.44683	83.5123
2.44568	83.5791
2.44452	83.5958
2.44337	83.6626
2.44222	83.7434
2.44107	83.7044
2.43992	83.6006
2.43877	83.565
2.43763	83.3489
2.43648	83.2424
2.43534	83.2098
2.43419	83.0462
2.43305	82.8616
2.43191	82.8555
2.43077	82.7806
2.42963	82.5598
2.42849	82.2168
2.42736	81.866
2.42622	81.7392
2.42509	81.6535
2.42395	81.3681
2.42282	80.9328
2.42169	80.5338
2.42056	80.2954
2.41943	80.0515
2.4183	79.7051
2.41717	79.3167
2.41605	78.9796
2.41492	78.6856
2.4138	78.3625
2.41267	78.0677
2.41155	77.7905
2.41043	77.5572
2.40931	77.3443
2.40819	77.18
2.40707	77.0281
2.40595	76.8215
2.40484	76.5995
2.40372	76.501
2.40261	76.5383
2.4015	76.6141
2.40039	76.475
2.39928	76.4077
2.39817	76.5421
2.39706	76.6495
2.39595	76.8749
2.39484	77.1875
2.39374	77.4937
2.39263	77.8453
2.39153	78.3025
2.39043	78.7213
2.38932	79.1688
2.38822	79.6234
2.38712	80.0185
2.38603	80.3644
2.38493	80.8115
2.38383	81.2884
2.38274	81.736
2.38164	82.1643
2.38055	82.5141
2.37946	82.6314
2.37836	82.8865
2.37727	83.3713
2.37618	83.8062
2.3751	83.9168
2.37401	83.9377
2.37292	84.1856
2.37184	84.4114
2.37075	84.4742
2.36967	84.7248
2.36859	84.9891
2.3675	84.9882
2.36642	84.9115
2.36534	85.0688
2.36427	85.2595
2.36319	85.3099
2.36211	85.4015
2.36104	85.3408
2.35996	85.2862
2.35889	85.3968
2.35781	85.4577
2.35674	85.6072
2.35567	85.6952
2.3546	85.6301
2.35353	85.5447
2.35247	85.4499
2.3514	85.4719
2.35033	85.4581
2.34927	85.3761
2.3482	85.4101
2.34714	85.5786
2.34608	85.6584
2.34502	85.5409
2.34396	85.5165
2.3429	85.5178
2.34184	85.4784
2.34078	85.4662
2.33973	85.6038
2.33867	85.6902
2.33762	85.504
2.33656	85.3744
2.33551	85.3165
2.33446	85.4316
2.33341	85.5307
2.33236	85.4102
2.33131	85.2768
2.33026	85.1802
2.32922	85.1171
2.32817	85.0726
2.32712	85.062
2.32608	85.1277
2.32504	85.0907
2.324	84.9863
2.32295	84.8209
2.32191	84.8259
2.32087	84.8605
2.31984	84.8589
2.3188	84.816
2.31776	84.7156
2.31673	84.6155
2.31569	84.5308
2.31466	84.3499
2.31362	84.1727
2.31259	84.1216
2.31156	84.1628
2.31053	84.157
2.3095	84.1103
2.30847	84.0957
2.30745	83.9946
2.30642	83.8521
2.3054	83.8113
2.30437	83.8241
2.30335	83.7651
2.30232	83.7921
2.3013	83.8037
2.30028	83.7815
2.29926	83.776
2.29824	83.7411
2.29722	83.7048
2.29621	83.6396
2.29519	83.6601
2.29417	83.8331
2.29316	83.9511
2.29215	83.9327
2.29113	83.9692
2.29012	84.0118
2.28911	84.0716
2.2881	84.0036
2.28709	83.8432
2.28608	83.8319
2.28507	83.9558
2.28407	84.1165
2.28306	84.049
2.28206	83.8617
2.28105	83.7275
2.28005	83.6503
2.27905	83.5168
2.27805	83.3753
2.27705	83.2212
2.27605	83.1276
2.27505	82.9366
2.27405	82.5844
2.27305	82.4454
2.27206	82.4098
2.27106	82.118
2.27007	81.89
2.26907	81.7008
2.26808	81.3889
2.26709	81.1425
2.2661	81.1129
2.26511	80.9549
2.26412	80.6413
2.26313	80.5633
2.26214	80.6267
2.26116	80.7881
2.26017	80.9862
2.25919	81.1879
2.2582	81.3367
2.25722	81.5153
2.25624	81.726
2.25526	81.9793
2.25428	82.242
2.2533	82.4736
2.25232	82.6012
2.25134	82.721
2.25036	82.8935
2.24939	82.8956
2.24841	82.8255
2.24744	82.7936
2.24646	82.8564
2.24549	82.929
2.24452	82.9327
2.24355	82.956
2.24257	83.0127
2.24161	83.0991
2.24064	82.9662
2.23967	82.8157
2.2387	82.805
2.23774	82.7804
2.23677	82.7001
2.23581	82.7588
2.23484	82.8185
2.23388	82.7341
2.23292	82.7191
2.23196	82.7817
2.231	82.7388
2.23004	82.5935
2.22908	82.4634
2.22812	82.5177
2.22716	82.4519
2.22621	82.2978
2.22525	82.1887
2.2243	82.2506
2.22334	82.3637
2.22239	82.3759
2.22144	82.3081
2.22049	82.3001
2.21953	82.3758
2.21859	82.5163
2.21764	82.5811
2.21669	82.5161
2.21574	82.5105
2.21479	82.4753
2.21385	82.4201
2.2129	82.475
2.21196	82.4793
2.21102	82.4832
2.21007	82.2925
2.20913	81.985
2.20819	81.7083
2.20725	81.2851
2.20631	80.7336
2.20537	80.2491
2.20444	79.8057
2.2035	79.4142
2.20256	79.0879
2.20163	78.7502
2.20069	78.5431
2.19976	78.5948
2.19883	78.8642
2.19789	79.0879
2.19696	79.4662
2.19603	79.8944
2.1951	80.4308
2.19417	81.1373
2.19325	81.6805
2.19232	81.9492
2.19139	82.2353
2.19047	82.725
2.18954	83.2182
2.18862	83.3998
2.18769	83.4728
2.18677	83.7565
2.18585	84.2403
2.18493	84.698
2.18401	84.8703
2.18309	84.9203
2.18217	85.0512
2.18125	85.1403
2.18033	85.3523
2.17942	85.4064
2.1785	85.5729
2.17759	85.7174
2.17667	85.7475
2.17576	85.8829
2.17485	85.9543
2.17393	86.0179
2.17302	85.8953
2.17211	86.0272
2.1712	86.2155
2.17029	86.2566
2.16939	86.3721
2.16848	86.2776
2.16757	86.3591
2.16667	86.4127
2.16576	86.3263
2.16486	86.2415
2.16395	86.2562
2.16305	86.4854
2.16215	86.6612
2.16125	86.6286
2.16035	86.6091
2.15945	86.5837
2.15855	86.5294
2.15765	86.5417
2.15675	86.5713
2.15586	86.5528
2.15496	86.5288
2.15406	86.5642
2.15317	86.7356
2.15228	86.8702
2.15138	86.8292
2.15049	86.8674
2.1496	86.9187
2.14871	86.6325
2.14782	86.3769
2.14693	86.4237
2.14604	86.6673
2.14515	86.7245
2.14427	86.7177
2.14338	86.8323
2.14249	86.9218
2.14161	86.8781
2.14072	86.8621
2.13984	86.851
2.13896	86.8706
2.13808	86.952
2.13719	87.0245
2.13631	86.9398
2.13543	86.8959
2.13455	86.8926
2.13368	86.8377
2.1328	86.7784
2.13192	86.7849
2.13105	86.891
2.13017	86.9708
2.1293	86.9721
2.12842	86.9313
2.12755	86.8138
2.12668	86.7645
2.1258	86.8159
2.12493	87.0631
2.12406	86.9859
2.12319	86.7698
2.12232	86.8374
2.12145	86.9127
2.12059	86.7684
2.11972	86.9186
2.11885	86.982
2.11799	86.9689
2.11712	86.9102
2.11626	86.9166
2.1154	87.0026
2.11453	86.9516
2.11367	86.9029
2.11281	86.962
2.11195	87.0081
2.11109	87.0322
2.11023	86.8708
2.10937	86.8211
2.10851	86.8108
2.10766	86.7031
2.1068	86.7368
2.10594	86.8099
2.10509	86.7475
2.10423	86.7644
2.10338	86.9136
2.10253	86.9088
2.10168	86.9333
2.10082	86.9267
2.09997	86.8497
2.09912	86.726
2.09827	86.8959
2.09742	87.0175
2.09658	87.0773
2.09573	87.0324
2.09488	86.7526
2.09404	86.7475
2.09319	86.8786
2.09235	86.7526
2.0915	86.5593
2.09066	86.5704
2.08982	86.5532
2.08897	86.5479
2.08813	86.7805
2.08729	87.0576
2.08645	86.7916
2.08561	86.7662
2.08477	86.7108
2.08394	86.4819
2.0831	86.7772
2.08226	86.971
2.08143	86.8231
2.08059	86.5783
2.07976	86.4449
2.07892	86.5583
2.07809	86.4406
2.07726	86.375
2.07643	86.6038
2.07559	86.6567
2.07476	86.6667
2.07393	86.5243
2.0731	86.1042
2.07228	86.5274
2.07145	87.1714
2.07062	86.9887
2.06979	86.7328
2.06897	86.8672
2.06814	86.8593
2.06732	86.6772
2.06649	86.5776
2.06567	86.3927
2.06485	86.46
2.06403	86.6327
2.0632	86.6752
2.06238	86.879
2.06156	86.9782
2.06074	86.8842
2.05993	86.9044
2.05911	86.9086
2.05829	86.8048
2.05747	86.7053
2.05666	86.6177
2.05584	86.6087
2.05503	86.5718
2.05421	86.5819
2.0534	86.7691
2.05259	86.8125
2.05177	86.6462
2.05096	86.4963
2.05015	86.5045
2.04934	86.6736
2.04853	86.7036
2.04772	86.6127
2.04691	86.5101
2.04611	86.563
2.0453	86.7223
2.04449	86.6286
2.04369	86.5211
2.04288	86.586
2.04208	86.5928
2.04127	86.4931
2.04047	86.4367
2.03967	86.5923
2.03886	86.6539
2.03806	86.5133
2.03726	86.5198
2.03646	86.6801
2.03566	86.6873
2.03486	86.7472
2.03407	86.6656
2.03327	86.5442
2.03247	86.527
2.03167	86.5317
2.03088	86.6674
2.03008	86.7607
2.02929	86.7652
2.0285	86.6849
2.0277	86.4687
2.02691	86.3528
2.02612	86.4565
2.02533	86.3627
2.02453	86.4499
2.02374	86.5798
2.02295	86.4743
2.02217	86.5487
2.02138	86.6812
2.02059	86.5689
2.0198	86.5153
2.01902	86.3728
2.01823	86.2436
2.01744	86.33
2.01666	86.3459
2.01588	86.4813
2.01509	86.6766
2.01431	86.7279
2.01353	86.804
2.01275	86.622
2.01196	86.3984
2.01118	86.4492
2.0104	86.6054
2.00963	86.5719
2.00885	86.5923
2.00807	86.4913
2.00729	86.4193
2.00651	86.4394
2.00574	86.2983
2.00496	86.3196
2.00419	86.3473
2.00341	86.2991
2.00264	86.468
2.00187	86.5991
2.00109	86.5402
2.00032	86.3652
