Name: Spodumene LiAlS_2O_6
Type: Mineral
Class: Silicates
Subclass: Inosilicates
Particle Size: 45-125um
Sample No.: IN-13A
Owner: JPL
Wavelength range: IR
Origin: Brazil, Minas Gerais
Collected by Ward's
Description: 





Measurement: Hemispherical reflectance
First Column: X
Second Column: Y
X Units:  Wavelength (micrometers)
Y Units:  Reflectance (percent)
First X Value: 15.3853
Last X Value: 2.00032
Number of X Values: 2256
Additional information: in13aa.txt
 
15.3853	5.39729
15.3397	5.86262
15.2945	6.53476
15.2495	7.48564
15.2048	8.48891
15.1603	9.14263
15.1161	9.07874
15.0722	8.66717
15.0285	8.26876
14.9851	7.78542
14.9419	7.61876
14.8989	7.44113
14.8563	6.5029
14.8138	5.20867
14.7716	4.07629
14.7296	3.12133
14.6879	2.31876
14.6464	1.72167
14.6052	1.29692
14.5641	1.09618
14.5233	0.893926
14.4828	0.763464
14.4424	0.860221
14.4023	0.966229
14.3624	1.08354
14.3227	1.18478
14.2833	1.12188
14.244	1.18783
14.205	1.32027
14.1662	1.34549
14.1276	1.3366
14.0892	1.56524
14.051	1.72405
14.0131	1.71418
13.9753	1.73511
13.9377	1.85632
13.9004	1.97565
13.8632	2.13096
13.8262	2.1688
13.7895	2.35212
13.7529	2.45783
13.7165	2.49396
13.6803	2.80456
13.6443	2.90259
13.6085	2.87586
13.5729	2.99191
13.5374	2.95205
13.5022	3.08588
13.4671	3.29691
13.4322	3.36321
13.3975	3.54665
13.363	3.83791
13.3286	3.86225
13.2944	3.72177
13.2604	3.76847
13.2266	4.07716
13.193	4.12344
13.1595	4.10596
13.1262	4.20755
13.093	4.27616
13.06	4.27221
13.0272	4.32612
12.9946	4.37311
12.9621	4.36767
12.9298	4.55502
12.8976	4.81273
12.8656	4.85857
12.8337	4.76133
12.8021	4.67484
12.7705	4.79619
12.7391	4.965
12.7079	5.19171
12.6769	5.34673
12.6459	5.3864
12.6152	5.38904
12.5845	5.49447
12.5541	5.39276
12.5238	5.38479
12.4936	5.67786
12.4635	5.78756
12.4337	5.72263
12.4039	5.62327
12.3743	5.79805
12.3448	6.07786
12.3155	6.06447
12.2863	6.08313
12.2573	6.23481
12.2284	6.31919
12.1996	6.39949
12.171	6.52255
12.1425	6.71291
12.1141	6.91401
12.0859	7.03934
12.0578	7.17123
12.0298	7.18399
12.0019	7.33587
11.9742	7.55567
11.9466	7.70727
11.9192	7.79218
11.8918	7.87827
11.8646	8.19863
11.8375	8.47907
11.8106	8.69287
11.7837	8.95772
11.757	9.27832
11.7304	9.63455
11.7039	10.0078
11.6776	10.2976
11.6513	10.5173
11.6252	10.3883
11.5992	9.83431
11.5733	9.07007
11.5475	8.18309
11.5219	7.52386
11.4963	7.2003
11.4709	7.14948
11.4455	7.44984
11.4203	7.75166
11.3952	8.06653
11.3702	8.5456
11.3454	8.95641
11.3206	9.3589
11.2959	9.66992
11.2714	10.154
11.2469	10.7899
11.2226	11.2481
11.1983	11.7335
11.1742	12.207
11.1502	12.7644
11.1263	13.3521
11.1024	13.9185
11.0787	14.6529
11.0551	15.4738
11.0316	16.2244
11.0081	16.9202
10.9848	17.5931
10.9616	18.292
10.9385	18.9429
10.9154	19.4501
10.8925	19.9626
10.8697	20.493
10.8469	20.8995
10.8243	21.2384
10.8017	21.5572
10.7793	21.8903
10.7569	22.1678
10.7346	22.3425
10.7125	22.5269
10.6904	22.637
10.6684	22.7107
10.6465	22.9081
10.6247	23.1886
10.6029	23.2336
10.5813	23.3055
10.5597	23.3927
10.5383	23.4339
10.5169	23.5342
10.4956	23.5381
10.4744	23.4975
10.4533	23.5478
10.4323	23.6242
10.4113	23.6464
10.3904	23.542
10.3697	23.3814
10.349	23.2993
10.3284	23.2207
10.3078	22.983
10.2874	22.6773
10.267	22.4727
10.2467	22.1022
10.2265	21.5498
10.2064	20.9408
10.1863	20.3653
10.1663	19.6703
10.1464	18.7889
10.1266	17.7734
10.1069	16.6831
10.0872	15.573
10.0676	14.5555
10.0481	13.7637
10.0287	13.3084
10.0093	13.0611
9.99005	13.0252
9.97084	13.1306
9.95169	13.3743
9.93263	13.8319
9.91364	14.4957
9.89472	15.2637
9.87587	16.379
9.8571	17.898
9.83839	19.4249
9.81976	20.5989
9.80119	21.5167
9.78271	22.2797
9.76428	22.8298
9.74592	23.1965
9.72764	23.5159
9.70943	23.8916
9.69128	24.189
9.6732	24.4331
9.65518	24.7066
9.63724	25.0378
9.61935	25.2928
9.60155	25.5181
9.5838	25.7261
9.56611	26.0082
9.5485	26.2735
9.53094	26.4667
9.51345	26.7071
9.49604	26.9253
9.47867	27.1405
9.46137	27.3981
9.44414	27.8583
9.42697	28.3582
9.40986	28.8064
9.39281	29.1972
9.37583	29.8101
9.35891	30.6458
9.34204	31.4888
9.32524	32.2974
9.3085	33.1497
9.29182	33.8055
9.27519	33.9845
9.25863	34.218
9.24213	35.6474
9.22568	38.0626
9.2093	40.2346
9.19297	41.7979
9.17669	42.8617
9.16048	43.5416
9.14433	44.0225
9.12823	44.2909
9.11218	44.426
9.0962	44.5416
9.08027	44.5373
9.06439	44.5164
9.04858	44.4624
9.03281	44.2241
9.0171	43.9967
9.00145	43.7081
8.98585	43.3142
8.9703	42.7847
8.9548	42.2112
8.93937	41.6636
8.92398	40.8457
8.90865	39.7263
8.89337	38.3426
8.87814	36.6938
8.86296	34.8513
8.84784	33.0234
8.83277	31.312
8.81774	29.6743
8.80277	28.3207
8.78786	27.1648
8.77298	26.0824
8.75816	25.0327
8.7434	24.0117
8.72868	23.1985
8.714	22.5354
8.69938	21.8036
8.68481	20.8744
8.67029	19.9664
8.65581	19.1346
8.64139	18.0837
8.62701	16.8633
8.61268	15.6177
8.5984	14.4641
8.58416	13.4305
8.56997	12.4277
8.55583	11.6108
8.54174	10.995
8.52769	10.4153
8.51368	9.88827
8.49973	9.44274
8.48582	9.26165
8.47195	9.13417
8.45813	9.03888
8.44436	9.19907
8.43062	9.47028
8.41693	9.70317
8.4033	10.0441
8.3897	10.5302
8.37614	11.0287
8.36264	11.3671
8.34917	11.6384
8.33574	11.8497
8.32236	11.8936
8.30903	11.6547
8.29573	11.3095
8.28248	10.8425
8.26927	10.0291
8.2561	9.10605
8.24298	8.0606
8.2299	7.01433
8.21685	5.99987
8.20385	5.13431
8.19089	4.56366
8.17797	3.89169
8.16509	3.35323
8.15225	2.89168
8.13946	2.41058
8.1267	2.0688
8.11398	1.69898
8.10131	1.45729
8.08867	1.33099
8.07606	1.1202
8.0635	0.934207
8.05099	0.841701
8.0385	0.698995
8.02606	0.518024
8.01366	0.421532
8.00129	0.41085
7.98896	0.411397
7.97667	0.386679
7.96442	0.328206
7.9522	0.293743
7.94002	0.32356
7.92788	0.279168
7.91578	0.209645
7.90371	0.155714
7.89168	0.119775
7.87969	0.238305
7.86773	0.350063
7.85581	0.321364
7.84392	0.340361
7.83207	0.449299
7.82026	0.487092
7.80849	0.437068
7.79674	0.326585
7.78503	0.327412
7.77337	0.420292
7.76173	0.562788
7.75012	0.558942
7.73856	0.548292
7.72703	0.576186
7.71553	0.482839
7.70406	0.513094
7.69263	0.575339
7.68123	0.634638
7.66987	0.654509
7.65855	0.649502
7.64725	0.690818
7.63598	0.672283
7.62475	0.694198
7.61356	0.782416
7.60239	0.832838
7.59126	0.833044
7.58017	0.883905
7.5691	0.956384
7.55806	0.979144
7.54707	0.923768
7.5361	0.992302
7.52516	1.11666
7.51425	1.06649
7.50338	1.07843
7.49253	1.18032
7.48172	1.18989
7.47094	1.21724
7.46019	1.27862
7.44947	1.30719
7.43879	1.45179
7.42813	1.49533
7.4175	1.46445
7.4069	1.61277
7.39634	1.68813
7.3858	1.64891
7.37529	1.74081
7.36482	1.7667
7.35437	1.73126
7.34396	1.81902
7.33357	1.88138
7.32321	1.85065
7.31288	1.91399
7.30258	2.03845
7.29231	2.0692
7.28207	2.16977
7.27185	2.27709
7.26167	2.26775
7.25152	2.28039
7.24139	2.2858
7.23129	2.31194
7.22122	2.42883
7.21117	2.58118
7.20116	2.62189
7.19117	2.65007
7.18121	2.69269
7.17128	2.70637
7.16137	2.66575
7.1515	2.67814
7.14164	2.73928
7.13182	2.72778
7.12203	2.75064
7.11225	2.79586
7.10251	2.74052
7.0928	2.75899
7.08311	2.83226
7.07344	2.88524
7.06381	2.98392
7.0542	3.07659
7.04461	3.06426
7.03506	3.03295
7.02552	3.06894
7.01601	3.10667
7.00653	3.15565
6.99708	3.24644
6.98765	3.35601
6.97824	3.45013
6.96886	3.61317
6.95951	3.84251
6.95018	3.73928
6.94087	3.59649
6.9316	3.6569
6.92234	3.73048
6.91311	3.84547
6.90391	3.99461
6.89473	4.08783
6.88557	4.1291
6.87644	4.17651
6.86733	4.54132
6.85824	4.73962
6.84918	4.65155
6.84015	4.66104
6.83114	4.82846
6.82215	4.93945
6.81319	4.92063
6.80424	5.09617
6.79532	5.37903
6.78643	5.5945
6.77756	5.64991
6.76871	5.66775
6.75989	5.71464
6.75109	5.89305
6.74231	6.01467
6.73355	6.16516
6.72482	6.35874
6.71611	6.46322
6.70742	6.58936
6.69875	6.63914
6.69011	6.75594
6.68149	6.92596
6.67289	6.95429
6.66431	6.90186
6.65576	6.87819
6.64722	7.08065
6.63871	7.51417
6.63022	7.48372
6.62175	7.22596
6.61331	7.16574
6.60488	7.20887
6.59648	7.3843
6.5881	7.46723
6.57974	7.59109
6.5714	7.81399
6.56308	7.68687
6.55478	7.60023
6.54651	7.59074
6.53825	7.5927
6.53001	7.6789
6.5218	7.7608
6.51361	7.71818
6.50544	7.75935
6.49729	8.0373
6.48915	8.02517
6.48104	7.80241
6.47295	7.68971
6.46488	7.66036
6.45683	7.57328
6.4488	7.49473
6.44079	7.47853
6.4328	7.50542
6.42482	7.60695
6.41687	7.99163
6.40894	7.87866
6.40103	7.42491
6.39314	7.39806
6.38526	7.50579
6.37741	7.59493
6.36957	7.66174
6.36176	7.55647
6.35396	7.63383
6.34618	7.84777
6.33843	7.81291
6.33069	7.69274
6.32297	7.61968
6.31527	7.51332
6.30758	7.52638
6.29992	7.56058
6.29227	7.55618
6.28465	7.55468
6.27704	7.55813
6.26945	7.48401
6.26188	7.448
6.25432	7.52589
6.24679	7.59812
6.23927	7.68016
6.23177	7.77148
6.22429	7.70815
6.21683	7.64239
6.20938	7.66051
6.20195	7.79446
6.19454	7.99829
6.18715	8.25171
6.17978	8.23628
6.17242	8.12856
6.16508	8.26828
6.15776	8.4077
6.15045	8.36775
6.14317	8.3604
6.1359	8.35202
6.12864	8.36459
6.12141	8.58697
6.11419	8.84468
6.10699	8.71549
6.0998	8.56741
6.09263	8.54683
6.08549	8.65079
6.07835	8.92157
6.07123	9.08112
6.06413	8.94076
6.05705	9.14805
6.04998	9.74509
6.04293	9.536
6.0359	9.18455
6.02888	9.12944
6.02187	9.17577
6.01489	9.36191
6.00792	9.34946
6.00096	9.33459
5.99403	9.57779
5.98711	9.63847
5.9802	9.50001
5.97331	9.49312
5.96644	9.37321
5.95958	9.14557
5.95274	9.12618
5.94591	9.20558
5.9391	9.41434
5.9323	9.15671
5.92552	8.74872
5.91876	8.64055
5.91201	8.54713
5.90528	8.52279
5.89856	8.72397
5.89186	8.67554
5.88517	8.66595
5.8785	8.5997
5.87184	8.4226
5.8652	8.49575
5.85857	8.44592
5.85196	8.41786
5.84536	8.38789
5.83878	8.50178
5.83221	8.71496
5.82566	8.92994
5.81912	9.01961
5.81259	8.82043
5.80608	8.75251
5.79959	8.70801
5.79311	8.5789
5.78665	8.52939
5.78019	8.48781
5.77376	8.49867
5.76734	8.5359
5.76093	8.20729
5.75453	7.92264
5.74815	7.79304
5.74179	7.43905
5.73543	7.14234
5.7291	6.94333
5.72277	6.77993
5.71646	6.71476
5.71017	6.58658
5.70389	6.38282
5.69762	6.29182
5.69136	6.37916
5.68513	6.41606
5.6789	6.45927
5.67268	6.50087
5.66648	6.42737
5.6603	6.38375
5.65413	6.36589
5.64797	6.40043
5.64182	6.45227
5.63569	6.27069
5.62957	6.08909
5.62347	6.03026
5.61737	6.03519
5.61129	6.07123
5.60522	6.05027
5.59917	5.93965
5.59313	5.86755
5.5871	5.86719
5.58109	5.87928
5.57509	5.89277
5.5691	5.83206
5.56312	5.82445
5.55716	5.93006
5.55121	5.95835
5.54528	5.84342
5.53935	5.84419
5.53344	5.89205
5.52754	5.97368
5.52166	6.10847
5.51578	6.17367
5.50992	6.25902
5.50407	6.41252
5.49823	6.5774
5.49241	6.68538
5.4866	6.82727
5.4808	7.01088
5.47501	7.123
5.46923	7.1798
5.46347	7.2684
5.45772	7.44242
5.45198	7.55884
5.44625	7.58877
5.44054	7.70772
5.43484	7.81051
5.42914	7.94834
5.42347	8.16576
5.4178	8.1855
5.41214	8.07279
5.4065	8.10381
5.40087	8.08573
5.39525	8.06888
5.38964	8.09325
5.38404	8.04301
5.37846	8.03154
5.37288	8.07217
5.36732	8.07877
5.36177	8.1288
5.35623	8.25864
5.35071	8.39166
5.34519	8.49192
5.33968	8.63525
5.33419	8.78729
5.32871	8.89158
5.32324	9.07117
5.31778	9.12306
5.31233	9.065
5.30689	9.10132
5.30147	9.16245
5.29605	9.31503
5.29065	9.59382
5.28525	9.8961
5.27987	10.3441
5.2745	10.9221
5.26914	11.5388
5.26379	12.3593
5.25845	13.3465
5.25312	14.255
5.24781	15.1847
5.2425	15.9893
5.23721	16.6418
5.23192	17.2407
5.22665	17.7739
5.22138	18.2248
5.21613	18.6948
5.21089	19.0079
5.20566	19.2271
5.20044	19.4686
5.19522	19.6545
5.19002	19.8476
5.18483	20.0295
5.17965	20.1748
5.17448	20.2869
5.16933	20.4927
5.16418	20.7683
5.15904	20.9542
5.15391	21.1483
5.14879	21.3418
5.14368	21.5006
5.13859	21.602
5.1335	21.6357
5.12842	21.673
5.12335	21.6858
5.1183	21.7305
5.11325	21.831
5.10821	21.9092
5.10318	22.0588
5.09817	22.2683
5.09316	22.4176
5.08816	22.5254
5.08317	22.5866
5.07819	22.6774
5.07322	22.7542
5.06826	22.7993
5.06331	22.786
5.05837	22.7411
5.05344	22.64
5.04852	22.5766
5.04361	22.5947
5.03871	22.5601
5.03382	22.5559
5.02894	22.5348
5.02406	22.5298
5.0192	22.6921
5.01435	22.7409
5.0095	22.6297
5.00467	22.6435
4.99984	22.6483
4.99502	22.5937
4.99021	22.6682
4.98542	22.7547
4.98063	22.797
4.97585	22.8204
4.97108	22.8119
4.96632	22.9785
4.96156	23.2667
4.95682	23.5423
4.95209	23.8146
4.94736	24.1195
4.94264	24.4674
4.93794	24.8078
4.93324	25.1155
4.92855	25.3297
4.92387	25.4189
4.9192	25.4213
4.91453	25.2333
4.90988	25.1106
4.90524	25.0494
4.9006	24.8877
4.89597	24.6032
4.89135	24.2549
4.88674	23.7938
4.88214	23.3817
4.87755	23.0401
4.87296	22.6613
4.86839	22.2936
4.86382	21.9541
4.85926	21.6708
4.85471	21.4802
4.85017	21.2907
4.84564	21.2263
4.84111	21.2293
4.8366	21.2566
4.83209	21.3443
4.82759	21.3661
4.8231	21.3971
4.81862	21.5145
4.81415	21.4477
4.80968	21.3542
4.80522	21.3794
4.80077	21.3958
4.79633	21.2986
4.7919	21.1473
4.78747	21.0597
4.78306	21.0384
4.77865	21.0285
4.77425	21.0838
4.76986	21.2627
4.76547	21.5521
4.7611	21.9183
4.75673	22.3917
4.75237	22.829
4.74802	23.2924
4.74367	23.8227
4.73934	24.3405
4.73501	24.8109
4.73069	25.3444
4.72638	25.8213
4.72207	26.2873
4.71777	26.6493
4.71348	26.9453
4.7092	27.261
4.70493	27.4341
4.70066	27.385
4.69641	27.3907
4.69216	27.3478
4.68791	27.31
4.68368	27.2968
4.67945	27.2183
4.67523	27.2249
4.67102	27.3411
4.66682	27.3416
4.66262	27.2947
4.65843	27.1904
4.65425	27.0854
4.65007	27.0719
4.64591	27.0497
4.64175	27.1896
4.6376	27.5649
4.63345	28.004
4.62932	28.5113
4.62519	28.9692
4.62106	29.414
4.61695	29.7354
4.61284	29.8765
4.60874	30.0769
4.60465	30.3319
4.60056	30.4573
4.59648	30.53
4.59241	30.648
4.58835	30.7425
4.58429	30.8159
4.58024	30.9826
4.5762	31.1547
4.57216	31.1902
4.56814	31.2334
4.56411	31.2476
4.5601	31.1998
4.55609	31.11
4.55209	31.0009
4.5481	30.9493
4.54411	30.8134
4.54013	30.6422
4.53616	30.4825
4.5322	30.4329
4.52824	30.5246
4.52429	30.6241
4.52034	30.798
4.51641	31.1252
4.51247	31.5157
4.50855	31.9059
4.50463	32.3255
4.50072	32.7968
4.49682	33.2907
4.49292	33.7177
4.48903	34.1916
4.48515	34.6274
4.48127	34.9863
4.4774	35.3848
4.47354	35.7983
4.46968	36.3102
4.46584	36.9255
4.46199	37.6097
4.45815	38.2808
4.45432	39.0005
4.4505	39.794
4.44668	40.5966
4.44287	41.3941
4.43907	42.2609
4.43527	43.1227
4.43148	44.0414
4.4277	44.951
4.42392	45.7965
4.42015	46.7018
4.41638	47.6567
4.41262	48.541
4.40887	49.4467
4.40513	50.4167
4.40139	51.3499
4.39765	52.2248
4.39393	53.1077
4.39021	53.9622
4.38649	54.7683
4.38278	55.5095
4.37908	56.2349
4.37539	56.8887
4.3717	57.4594
4.36801	57.9749
4.36434	58.5345
4.36067	59.0622
4.357	59.5308
4.35335	60.0321
4.34969	60.576
4.34605	61.0891
4.34241	61.5742
4.33877	61.9784
4.33514	62.3276
4.33152	62.7044
4.32791	63.1205
4.3243	63.4628
4.32069	63.7529
4.3171	64.0169
4.31351	64.264
4.30992	64.3845
4.30634	64.4703
4.30277	64.6257
4.2992	64.8205
4.29564	64.9068
4.29208	65.0457
4.28853	65.133
4.28499	65.2303
4.28145	65.3891
4.27792	65.5271
4.27439	65.684
4.27087	65.8739
4.26735	66.111
4.26384	66.3589
4.26034	66.5758
4.25684	66.7753
4.25335	66.818
4.24986	66.7369
4.24638	66.7439
4.24291	66.7654
4.23944	66.7328
4.23598	66.7451
4.23252	66.8326
4.22906	66.992
4.22562	67.1767
4.22218	67.384
4.21874	67.6227
4.21531	67.903
4.21189	68.1098
4.20847	68.3014
4.20506	68.5356
4.20165	68.7263
4.19825	68.7794
4.19485	68.856
4.19146	68.9972
4.18807	69.0818
4.18469	69.1247
4.18132	69.2284
4.17795	69.2994
4.17458	69.3442
4.17123	69.339
4.16787	69.3849
4.16453	69.4547
4.16118	69.524
4.15785	69.5728
4.15451	69.6439
4.15119	69.6563
4.14787	69.6071
4.14455	69.5885
4.14124	69.6568
4.13794	69.6747
4.13464	69.7595
4.13134	69.7625
4.12805	69.7209
4.12477	69.8008
4.12149	69.8897
4.11822	69.9387
4.11495	69.9981
4.11168	70.0312
4.10843	70.0359
4.10517	70.0251
4.10192	70.0201
4.09868	70.0468
4.09545	70.1183
4.09221	70.1358
4.08899	70.1249
4.08576	70.077
4.08255	70.1171
4.07933	70.2035
4.07613	70.2405
4.07292	70.2306
4.06973	70.2407
4.06654	70.2178
4.06335	70.2339
4.06017	70.1511
4.05699	70.1256
4.05382	70.1887
4.05065	70.1983
4.04749	70.2095
4.04433	70.2345
4.04118	70.2187
4.03803	70.1526
4.03489	70.1054
4.03175	70.1129
4.02862	70.1651
4.02549	70.2237
4.02237	70.2532
4.01925	70.2546
4.01614	70.2094
4.01303	70.1963
4.00993	70.1712
4.00683	70.167
4.00373	70.1598
4.00064	70.1523
3.99756	70.1361
3.99448	70.1684
3.9914	70.2072
3.98833	70.2633
3.98527	70.2796
3.98221	70.2901
3.97915	70.2797
3.9761	70.2593
3.97305	70.2886
3.97001	70.2654
3.96697	70.2896
3.96394	70.3326
3.96091	70.2958
3.95789	70.2826
3.95487	70.3018
3.95186	70.3064
3.94885	70.3166
3.94584	70.3388
3.94284	70.3402
3.93984	70.3401
3.93685	70.3336
3.93386	70.306
3.93088	70.2301
3.9279	70.1981
3.92493	70.2013
3.92196	70.1991
3.919	70.152
3.91604	70.1184
3.91308	70.0448
3.91013	70.0229
3.90718	69.9775
3.90424	69.9088
3.9013	69.8886
3.89837	69.8592
3.89544	69.7844
3.89252	69.7046
3.8896	69.681
3.88668	69.6728
3.88377	69.6353
3.88086	69.6295
3.87796	69.6513
3.87506	69.6918
3.87217	69.6667
3.86928	69.7062
3.86639	69.7572
3.86351	69.7278
3.86064	69.7092
3.85776	69.7539
3.8549	69.7984
3.85203	69.861
3.84917	69.9665
3.84631	70.0817
3.84346	70.2075
3.84062	70.3073
3.83777	70.4382
3.83494	70.6089
3.8321	70.7545
3.82927	70.8522
3.82644	70.9339
3.82362	71.0736
3.82081	71.2121
3.81799	71.36
3.81518	71.4848
3.81238	71.6145
3.80958	71.7207
3.80678	71.8215
3.80399	71.9106
3.8012	72.0118
3.79841	72.1054
3.79563	72.1677
3.79286	72.2924
3.79008	72.4663
3.78731	72.5532
3.78455	72.5822
3.78179	72.627
3.77903	72.691
3.77628	72.797
3.77353	72.9564
3.77079	73.1142
3.76805	73.2025
3.76531	73.2658
3.76258	73.2642
3.75985	73.3022
3.75713	73.4231
3.7544	73.4216
3.75169	73.4453
3.74898	73.5719
3.74627	73.6386
3.74356	73.7142
3.74086	73.7777
3.73816	73.8273
3.73547	73.9172
3.73278	73.9527
3.7301	73.9646
3.72741	74.0235
3.72474	74.083
3.72206	74.0839
3.71939	74.1008
3.71673	74.1627
3.71406	74.1881
3.71141	74.1957
3.70875	74.2677
3.7061	74.292
3.70345	74.2906
3.70081	74.2941
3.69817	74.3059
3.69553	74.3256
3.6929	74.3872
3.69027	74.4339
3.68765	74.4083
3.68503	74.4405
3.68241	74.5673
3.6798	74.6658
3.67719	74.6538
3.67458	74.6974
3.67198	74.6886
3.66938	74.7042
3.66678	74.8193
3.66419	74.9818
3.66161	75.0833
3.65902	75.1459
3.65644	75.1094
3.65387	75.0393
3.65129	75.0804
3.64872	75.2105
3.64616	75.2636
3.64359	75.2625
3.64103	75.2724
3.63848	75.3219
3.63593	75.3243
3.63338	75.3441
3.63084	75.4278
3.6283	75.5389
3.62576	75.5527
3.62322	75.5436
3.62069	75.5658
3.61817	75.5795
3.61564	75.5663
3.61312	75.5933
3.61061	75.6626
3.6081	75.703
3.60559	75.687
3.60308	75.6747
3.60058	75.628
3.59808	75.6638
3.59558	75.7755
3.59309	75.7868
3.59061	75.7845
3.58812	75.7987
3.58564	75.7895
3.58316	75.7866
3.58069	75.8319
3.57822	75.8302
3.57575	75.8124
3.57328	75.7841
3.57082	75.7516
3.56836	75.7387
3.56591	75.7347
3.56346	75.6855
3.56101	75.7054
3.55857	75.7419
3.55613	75.7307
3.55369	75.7153
3.55126	75.7049
3.54883	75.6546
3.5464	75.6186
3.54397	75.5928
3.54155	75.6019
3.53914	75.5532
3.53672	75.4452
3.53431	75.3178
3.5319	75.2596
3.5295	75.3025
3.5271	75.2869
3.5247	75.1675
3.52231	74.9918
3.51991	74.8599
3.51753	74.7932
3.51514	74.6573
3.51276	74.4932
3.51038	74.366
3.50801	74.2497
3.50563	74.0911
3.50327	73.9675
3.5009	73.9768
3.49854	73.9817
3.49618	73.9525
3.49382	73.993
3.49147	74.0126
3.48912	73.9733
3.48677	73.9021
3.48443	73.8951
3.48209	73.9341
3.47975	73.8861
3.47742	73.7934
3.47509	73.7363
3.47276	73.7281
3.47044	73.7607
3.46812	73.8168
3.4658	73.8331
3.46348	73.7828
3.46117	73.7995
3.45886	73.7626
3.45656	73.7981
3.45425	73.7193
3.45195	73.5868
3.44966	73.5255
3.44736	73.3718
3.44507	73.2361
3.44279	73.1745
3.4405	73.1486
3.43822	73.074
3.43594	72.938
3.43367	72.8296
3.43139	72.6921
3.42912	72.5145
3.42686	72.4243
3.42459	72.2026
3.42233	71.9762
3.42007	71.9169
3.41782	71.8636
3.41557	71.7118
3.41332	71.6139
3.41108	71.6002
3.40883	71.6583
3.40659	71.7879
3.40435	71.8323
3.40212	71.8195
3.39989	71.8225
3.39766	71.8061
3.39544	71.8657
3.39322	71.985
3.391	71.9909
3.38878	71.9422
3.38657	71.9657
3.38436	72.0028
3.38215	71.92
3.37994	71.7453
3.37774	71.5777
3.37554	71.5468
3.37335	71.5809
3.37115	71.5007
3.36896	71.4417
3.36678	71.5566
3.36459	71.6626
3.36241	71.7893
3.36023	71.9258
3.35805	72.0167
3.35588	72.0846
3.35371	72.0487
3.35154	72.0275
3.34938	72.0356
3.34721	72.0143
3.34505	72.051
3.3429	72.0704
3.34074	72.0643
3.33859	72.0186
3.33644	71.9263
3.3343	71.9318
3.33215	71.9905
3.33001	72.0386
3.32788	72.0008
3.32574	71.9531
3.32361	71.9274
3.32148	71.8986
3.31936	71.8196
3.31723	71.7501
3.31511	71.7405
3.31299	71.7411
3.31088	71.7404
3.30876	71.582
3.30665	71.4277
3.30455	71.354
3.30244	71.3226
3.30034	71.3478
3.29824	71.3373
3.29614	71.2038
3.29405	71.0973
3.29196	71.0413
3.28987	70.9799
3.28778	70.963
3.2857	70.9332
3.28362	70.8252
3.28154	70.6483
3.27946	70.4965
3.27739	70.4745
3.27532	70.4245
3.27325	70.3462
3.27119	70.4034
3.26913	70.3253
3.26707	70.2001
3.26501	70.1535
3.26295	70.0639
3.2609	69.9801
3.25885	69.9138
3.2568	69.8457
3.25476	69.7623
3.25272	69.5968
3.25068	69.524
3.24864	69.5589
3.24661	69.5007
3.24458	69.412
3.24255	69.2878
3.24052	69.2127
3.2385	69.1455
3.23648	69.0156
3.23446	68.894
3.23244	68.8384
3.23043	68.8208
3.22841	68.8017
3.2264	68.753
3.2244	68.666
3.22239	68.554
3.22039	68.4088
3.21839	68.3171
3.2164	68.2496
3.2144	68.1388
3.21241	67.9741
3.21042	67.8367
3.20844	67.8621
3.20645	67.8628
3.20447	67.7694
3.20249	67.7085
3.20051	67.611
3.19854	67.4975
3.19657	67.3811
3.1946	67.2946
3.19263	67.2637
3.19067	67.2407
3.1887	67.132
3.18674	67.0816
3.18479	67.1032
3.18283	67.1099
3.18088	66.9613
3.17893	66.7742
3.17698	66.7205
3.17504	66.6925
3.17309	66.7377
3.17115	66.8224
3.16921	66.7623
3.16728	66.7087
3.16534	66.5507
3.16341	66.4741
3.16148	66.5597
3.15956	66.4651
3.15763	66.332
3.15571	66.3257
3.15379	66.2792
3.15187	66.1888
3.14996	66.1334
3.14805	66.1313
3.14614	66.0523
3.14423	65.9181
3.14232	65.8286
3.14042	65.7527
3.13852	65.6686
3.13662	65.7058
3.13472	65.679
3.13283	65.6632
3.13094	65.6762
3.12905	65.6058
3.12716	65.5307
3.12528	65.3545
3.12339	65.3207
3.12151	65.3134
3.11964	65.2667
3.11776	65.1797
3.11589	65.1352
3.11401	65.1141
3.11214	65.1361
3.11028	65.1045
3.10841	65.0255
3.10655	64.9574
3.10469	64.881
3.10283	64.869
3.10098	64.8597
3.09912	64.8423
3.09727	64.8163
3.09542	64.7523
3.09358	64.6619
3.09173	64.5684
3.08989	64.5638
3.08805	64.6993
3.08621	64.8015
3.08437	64.79
3.08254	64.7673
3.08071	64.7574
3.07888	64.7018
3.07705	64.6119
3.07523	64.5535
3.0734	64.5761
3.07158	64.5489
3.06977	64.5483
3.06795	64.5032
3.06613	64.4458
3.06432	64.448
3.06251	64.4576
3.0607	64.3362
3.0589	64.281
3.0571	64.3519
3.05529	64.3701
3.05349	64.3775
3.0517	64.3672
3.0499	64.3414
3.04811	64.3188
3.04632	64.2877
3.04453	64.4059
3.04274	64.4492
3.04096	64.3678
3.03918	64.3315
3.0374	64.1978
3.03562	64.1097
3.03384	64.2164
3.03207	64.2812
3.03029	64.3139
3.02852	64.3295
3.02676	64.2239
3.02499	64.144
3.02323	64.1776
3.02146	64.2601
3.0197	64.3183
3.01795	64.3024
3.01619	64.1651
3.01444	64.0886
3.01269	64.0724
3.01094	63.9756
3.00919	63.9441
3.00744	63.9875
3.0057	64.0588
3.00396	64.0545
3.00222	63.9362
3.00048	63.8409
2.99875	63.8662
2.99701	64.0374
2.99528	64.0649
2.99355	63.8992
2.99183	63.8716
2.9901	63.9049
2.98838	63.8735
2.98666	63.8725
2.98494	63.8699
2.98322	63.8467
2.9815	63.7335
2.97979	63.6836
2.97808	63.7908
2.97637	63.8022
2.97466	63.7491
2.97295	63.647
2.97125	63.5618
2.96955	63.6402
2.96785	63.6646
2.96615	63.5875
2.96446	63.6548
2.96276	63.7129
2.96107	63.6461
2.95938	63.5889
2.95769	63.5837
2.95601	63.5336
2.95432	63.4612
2.95264	63.4416
2.95096	63.4564
2.94928	63.3172
2.9476	63.2262
2.94593	63.1999
2.94425	63.2651
2.94258	63.2929
2.94092	63.1833
2.93925	63.2109
2.93758	63.2424
2.93592	63.0862
2.93426	62.855
2.9326	62.7703
2.93094	62.8656
2.92928	63.0562
2.92763	63.1595
2.92598	63.2232
2.92433	63.2756
2.92268	63.2072
2.92103	63.1069
2.91939	63.1091
2.91775	63.1724
2.9161	63.2311
2.91447	63.1934
2.91283	63.1843
2.91119	63.22
2.90956	63.2696
2.90793	63.181
2.9063	63.2029
2.90467	63.3627
2.90304	63.5209
2.90142	63.6452
2.89979	63.5935
2.89817	63.3944
2.89656	63.2919
2.89494	63.3757
2.89332	63.3536
2.89171	63.3423
2.8901	63.454
2.88849	63.461
2.88688	63.3487
2.88527	63.2624
2.88367	63.286
2.88206	63.4202
2.88046	63.4809
2.87886	63.4564
2.87727	63.4345
2.87567	63.4735
2.87408	63.5529
2.87248	63.646
2.87089	63.5734
2.8693	63.5751
2.86772	63.6619
2.86613	63.5525
2.86455	63.5308
2.86297	63.4666
2.86139	63.5575
2.85981	63.691
2.85823	63.702
2.85666	63.8254
2.85508	64.0052
2.85351	63.971
2.85194	63.9309
2.85038	64.1065
2.84881	64.138
2.84724	64.0811
2.84568	64.0624
2.84412	63.9329
2.84256	64.0424
2.841	64.1082
2.83945	64.1666
2.83789	64.2505
2.83634	64.1858
2.83479	64.314
2.83324	64.456
2.83169	64.5175
2.83015	64.4681
2.82861	64.5193
2.82706	64.4844
2.82552	64.3199
2.82398	64.4577
2.82245	64.7364
2.82091	64.9342
2.81938	64.9312
2.81784	64.769
2.81631	64.8453
2.81479	64.977
2.81326	64.8757
2.81173	64.8792
2.81021	64.9904
2.80869	65.0702
2.80716	65.2751
2.80565	65.4697
2.80413	65.86
2.80261	65.8995
2.8011	65.4461
2.79959	65.3378
2.79808	65.4821
2.79657	65.5509
2.79506	65.5506
2.79355	65.5679
2.79205	65.6246
2.79055	65.7337
2.78904	66.0818
2.78754	66.5774
2.78605	66.482
2.78455	66.0458
2.78306	66.0573
2.78156	66.0593
2.78007	66.064
2.77858	66.2331
2.77709	66.2643
2.77561	66.1787
2.77412	66.1798
2.77264	66.4391
2.77116	66.7816
2.76968	66.6608
2.7682	66.4749
2.76672	66.2052
2.76524	65.6878
2.76377	65.6818
2.7623	65.4393
2.76083	64.7211
2.75936	64.6366
2.75789	65.1406
2.75642	66.7047
2.75496	67.3318
2.7535	66.5511
2.75203	66.694
2.75057	66.8757
2.74912	66.8985
2.74766	67.0017
2.7462	67.3378
2.74475	67.584
2.7433	67.9981
2.74185	69.1182
2.7404	69.951
2.73895	69.6334
2.7375	68.6622
2.73606	68.7758
2.73462	69.2826
2.73318	68.8772
2.73174	68.7873
2.7303	69.0055
2.72886	69.2329
2.72742	69.6804
2.72599	70.7236
2.72456	71.6377
2.72313	71.1941
2.7217	71.7802
2.72027	72.5945
2.71884	71.515
2.71742	71.0404
2.71599	70.7524
2.71457	70.788
2.71315	71.0843
2.71173	72.1104
2.71032	72.1807
2.7089	71.1241
2.70748	70.1834
2.70607	69.6061
2.70466	69.4688
2.70325	69.6248
2.70184	70.2858
2.70043	70.8319
2.69903	71.2855
2.69762	72.1933
2.69622	73.5468
2.69482	75.0632
2.69342	75.8643
2.69202	75.5781
2.69062	75.7885
2.68923	76.5007
2.68783	77.1634
2.68644	77.7246
2.68505	78.1827
2.68366	78.6976
2.68227	78.6951
2.68089	78.9576
2.6795	80.1432
2.67812	80.8728
2.67673	81.4697
2.67535	81.0742
2.67397	80.5872
2.6726	80.9655
2.67122	83.1166
2.66984	83.5919
2.66847	82.5104
2.6671	83.7464
2.66572	84.2847
2.66435	83.389
2.66299	82.179
2.66162	82.2982
2.66025	82.5033
2.65889	82.4452
2.65753	82.1025
2.65616	82.4733
2.65481	82.5982
2.65345	82.9092
2.65209	83.0648
2.65073	82.6009
2.64938	82.3925
2.64803	82.5609
2.64667	82.9121
2.64532	83.0925
2.64397	82.8459
2.64263	83.046
2.64128	82.9934
2.63994	82.8613
2.63859	82.8465
2.63725	82.8449
2.63591	82.9323
2.63457	83.4311
2.63323	83.6051
2.6319	84.1523
2.63056	85.2009
2.62923	84.3561
2.62789	84.0928
2.62656	84.7294
2.62523	83.7955
2.6239	83.2345
2.62258	83.3427
2.62125	84.5706
2.61993	84.895
2.6186	84.2273
2.61728	85.0376
2.61596	84.7045
2.61464	83.7279
2.61332	83.7811
2.61201	83.6698
2.61069	83.9198
2.60938	84.2403
2.60807	84.4126
2.60675	85.1825
2.60544	85.8303
2.60414	85.0658
2.60283	84.5093
2.60152	84.1734
2.60022	83.7283
2.59891	83.5974
2.59761	84.1512
2.59631	85.8763
2.59501	87.7806
2.59371	86.2038
2.59242	84.2902
2.59112	83.9944
2.58983	84.2145
2.58853	84.5802
2.58724	84.8592
2.58595	84.467
2.58466	85.1141
2.58338	85.3562
2.58209	84.6746
2.5808	84.5122
2.57952	83.9338
2.57824	84.1442
2.57695	84.6744
2.57567	84.4281
2.5744	84.744
2.57312	85.0159
2.57184	84.2235
2.57057	84.5086
2.56929	84.6958
2.56802	84.1567
2.56675	83.9876
2.56548	84.4931
2.56421	85.0712
2.56294	85.2868
2.56168	85.3404
2.56041	84.8122
2.55915	84.1553
2.55789	83.8869
2.55662	83.9707
2.55536	84.1723
2.5541	84.3659
2.55285	84.5941
2.55159	84.4921
2.55034	84.2798
2.54908	84.2197
2.54783	84.3321
2.54658	84.306
2.54533	84.2815
2.54408	84.4522
2.54283	84.5363
2.54159	84.2703
2.54034	84.1954
2.5391	84.2659
2.53785	84.2722
2.53661	84.357
2.53537	84.3509
2.53413	84.3164
2.53289	84.4335
2.53166	84.5368
2.53042	84.4079
2.52919	84.2448
2.52795	84.2287
2.52672	84.381
2.52549	84.4733
2.52426	84.4175
2.52303	84.2718
2.52181	84.2172
2.52058	84.3513
2.51936	84.3416
2.51813	84.3191
2.51691	84.3644
2.51569	84.4124
2.51447	84.3676
2.51325	84.3849
2.51203	84.4341
2.51082	84.4331
2.5096	84.4486
2.50839	84.4672
2.50717	84.3285
2.50596	84.2338
2.50475	84.3235
2.50354	84.4218
2.50233	84.47
2.50113	84.4978
2.49992	84.4733
2.49872	84.4579
2.49751	84.4831
2.49631	84.5614
2.49511	84.6043
2.49391	84.6201
2.49271	84.5961
2.49151	84.5051
2.49031	84.4671
2.48912	84.4914
2.48792	84.4761
2.48673	84.4754
2.48554	84.5531
2.48435	84.6309
2.48316	84.648
2.48197	84.5668
2.48078	84.4934
2.4796	84.5358
2.47841	84.6286
2.47723	84.682
2.47604	84.6951
2.47486	84.6474
2.47368	84.6304
2.4725	84.6468
2.47132	84.5995
2.47014	84.6204
2.46897	84.7668
2.46779	84.8242
2.46662	84.7846
2.46545	84.7668
2.46427	84.6666
2.4631	84.6475
2.46193	84.641
2.46077	84.6996
2.4596	84.7166
2.45843	84.7073
2.45727	84.7355
2.4561	84.802
2.45494	84.881
2.45378	84.7894
2.45262	84.7418
2.45146	84.7573
2.4503	84.8135
2.44914	84.7941
2.44799	84.8058
2.44683	84.8828
2.44568	84.9166
2.44452	84.8829
2.44337	84.8895
2.44222	84.8861
2.44107	84.8279
2.43992	84.8248
2.43877	84.8536
2.43763	84.7583
2.43648	84.8305
2.43534	84.9769
2.43419	85.0254
2.43305	85.0015
2.43191	84.9598
2.43077	85.0456
2.42963	85.0573
2.42849	84.9398
2.42736	84.9519
2.42622	84.9926
2.42509	85.0164
2.42395	84.9988
2.42282	84.9921
2.42169	85.0874
2.42056	85.2579
2.41943	85.3213
2.4183	85.2173
2.41717	85.1627
2.41605	85.2449
2.41492	85.2516
2.4138	85.147
2.41267	85.0472
2.41155	84.8397
2.41043	84.8863
2.40931	85.104
2.40819	85.1108
2.40707	85.1384
2.40595	85.1526
2.40484	85.3106
2.40372	85.4236
2.40261	85.3771
2.4015	85.4055
2.40039	85.3547
2.39928	85.2492
2.39817	85.2603
2.39706	85.24
2.39595	85.0755
2.39484	85.1126
2.39374	85.152
2.39263	85.1363
2.39153	85.2139
2.39043	85.1962
2.38932	85.1537
2.38822	85.1204
2.38712	85.0113
2.38603	85.0986
2.38493	85.1836
2.38383	85.1349
2.38274	85.1435
2.38164	85.1011
2.38055	85.0244
2.37946	85.1034
2.37836	85.1261
2.37727	85.0968
2.37618	85.0951
2.3751	85.1162
2.37401	85.1714
2.37292	85.2679
2.37184	85.3604
2.37075	85.334
2.36967	85.2526
2.36859	85.2609
2.3675	85.2801
2.36642	85.3326
2.36534	85.2582
2.36427	85.174
2.36319	85.2095
2.36211	85.2836
2.36104	85.3295
2.35996	85.3843
2.35889	85.4329
2.35781	85.4156
2.35674	85.2846
2.35567	85.2688
2.3546	85.3145
2.35353	85.2415
2.35247	85.2973
2.3514	85.3546
2.35033	85.3076
2.34927	85.3164
2.3482	85.3471
2.34714	85.3513
2.34608	85.2901
2.34502	85.2966
2.34396	85.4276
2.3429	85.5601
2.34184	85.6089
2.34078	85.6047
2.33973	85.4863
2.33867	85.4959
2.33762	85.4803
2.33656	85.4365
2.33551	85.4322
2.33446	85.3386
2.33341	85.3719
2.33236	85.4606
2.33131	85.5847
2.33026	85.6297
2.32922	85.591
2.32817	85.532
2.32712	85.5831
2.32608	85.6726
2.32504	85.6578
2.324	85.5888
2.32295	85.4048
2.32191	85.3211
2.32087	85.5027
2.31984	85.6667
2.3188	85.7044
2.31776	85.5974
2.31673	85.5189
2.31569	85.577
2.31466	85.6319
2.31362	85.633
2.31259	85.5419
2.31156	85.5429
2.31053	85.5962
2.3095	85.6371
2.30847	85.6302
2.30745	85.6361
2.30642	85.7275
2.3054	85.7421
2.30437	85.7304
2.30335	85.6628
2.30232	85.6842
2.3013	85.7144
2.30028	85.6801
2.29926	85.7167
2.29824	85.7199
2.29722	85.7095
2.29621	85.693
2.29519	85.6819
2.29417	85.6691
2.29316	85.6398
2.29215	85.6601
2.29113	85.7175
2.29012	85.7416
2.28911	85.6981
2.2881	85.7895
2.28709	85.8439
2.28608	85.8028
2.28507	85.7672
2.28407	85.8957
2.28306	85.9525
2.28206	85.9265
2.28105	85.8477
2.28005	85.8166
2.27905	85.7416
2.27805	85.7593
2.27705	85.9
2.27605	86.0023
2.27505	85.9938
2.27405	85.9728
2.27305	85.8518
2.27206	85.7935
2.27106	85.8739
2.27007	85.938
2.26907	85.9224
2.26808	85.8581
2.26709	85.8322
2.2661	85.7644
2.26511	85.5951
2.26412	85.6661
2.26313	85.8695
2.26214	85.8768
2.26116	85.8186
2.26017	85.9478
2.25919	85.9543
2.2582	85.9323
2.25722	85.9615
2.25624	85.9303
2.25526	85.8521
2.25428	85.8674
2.2533	85.8963
2.25232	85.9208
2.25134	85.9181
2.25036	85.9404
2.24939	85.9077
2.24841	85.8275
2.24744	85.8511
2.24646	85.9533
2.24549	85.9263
2.24452	85.902
2.24355	85.8183
2.24257	85.7557
2.24161	85.8378
2.24064	85.7889
2.23967	85.7672
2.2387	85.8584
2.23774	86.0031
2.23677	85.9211
2.23581	85.7279
2.23484	85.7086
2.23388	85.7415
2.23292	85.9044
2.23196	86.0166
2.231	85.9139
2.23004	85.8187
2.22908	85.7559
2.22812	85.7551
2.22716	85.643
2.22621	85.6603
2.22525	85.7067
2.2243	85.6482
2.22334	85.5866
2.22239	85.5986
2.22144	85.702
2.22049	85.7427
2.21953	85.7252
2.21859	85.5653
2.21764	85.4747
2.21669	85.4991
2.21574	85.5042
2.21479	85.5244
2.21385	85.3803
2.2129	85.1832
2.21196	85.0283
2.21102	84.8765
2.21007	84.8719
2.20913	84.814
2.20819	84.7491
2.20725	84.6567
2.20631	84.6839
2.20537	84.714
2.20444	84.8126
2.2035	84.9699
2.20256	84.9564
2.20163	84.9383
2.20069	85.0603
2.19976	85.1047
2.19883	85.2003
2.19789	85.378
2.19696	85.4403
2.19603	85.4064
2.1951	85.2779
2.19417	85.2818
2.19325	85.3904
2.19232	85.3442
2.19139	85.348
2.19047	85.3164
2.18954	85.3078
2.18862	85.3784
2.18769	85.3839
2.18677	85.3932
2.18585	85.4114
2.18493	85.2862
2.18401	85.3976
2.18309	85.5586
2.18217	85.5325
2.18125	85.5719
2.18033	85.6385
2.17942	85.5312
2.1785	85.4513
2.17759	85.5968
2.17667	85.6592
2.17576	85.6609
2.17485	85.6361
2.17393	85.5507
2.17302	85.5721
2.17211	85.636
2.1712	85.8056
2.17029	85.6891
2.16939	85.5262
2.16848	85.4919
2.16757	85.5329
2.16667	85.5408
2.16576	85.5073
2.16486	85.4736
2.16395	85.5324
2.16305	85.6305
2.16215	85.679
2.16125	85.688
2.16035	85.5963
2.15945	85.8232
2.15855	86.0191
2.15765	85.873
2.15675	85.6744
2.15586	85.6913
2.15496	85.9326
2.15406	85.9205
2.15317	85.7284
2.15228	85.6911
2.15138	85.8734
2.15049	85.9754
2.1496	85.9953
2.14871	85.9421
2.14782	85.8528
2.14693	85.8356
2.14604	85.8548
2.14515	86.0106
2.14427	86.3149
2.14338	86.2331
2.14249	86.0276
2.14161	86.0119
2.14072	86.1909
2.13984	86.1672
2.13896	86.0815
2.13808	86.1427
2.13719	86.2332
2.13631	86.3051
2.13543	86.2542
2.13455	86.2369
2.13368	86.1205
2.1328	85.9628
2.13192	86.0125
2.13105	86.173
2.13017	86.3248
2.1293	86.3585
2.12842	86.316
2.12755	86.3073
2.12668	86.3343
2.1258	86.2171
2.12493	86.1812
2.12406	86.1677
2.12319	86.2161
2.12232	86.285
2.12145	86.2904
2.12059	86.225
2.11972	86.1996
2.11885	86.2252
2.11799	86.3005
2.11712	86.2454
2.11626	86.2884
2.1154	86.3422
2.11453	86.3138
2.11367	86.2586
2.11281	86.2298
2.11195	86.2737
2.11109	86.4143
2.11023	86.4084
2.10937	86.2947
2.10851	86.2169
2.10766	86.1064
2.1068	86.1747
2.10594	86.183
2.10509	86.1059
2.10423	86.1837
2.10338	86.2875
2.10253	86.1543
2.10168	86.283
2.10082	86.5936
2.09997	86.57
2.09912	86.2646
2.09827	86.2213
2.09742	86.4228
2.09658	86.3681
2.09573	86.2843
2.09488	86.395
2.09404	86.2327
2.09319	86.135
2.09235	86.229
2.0915	86.1952
2.09066	86.278
2.08982	86.3878
2.08897	86.2977
2.08813	86.2037
2.08729	86.2744
2.08645	86.2347
2.08561	86.1697
2.08477	86.1754
2.08394	86.4182
2.0831	86.4844
2.08226	86.2979
2.08143	86.0917
2.08059	86.1038
2.07976	86.3055
2.07892	86.3468
2.07809	86.1712
2.07726	86.3601
2.07643	86.4888
2.07559	86.4366
2.07476	86.3511
2.07393	86.3076
2.0731	86.4524
2.07228	86.4172
2.07145	85.9915
2.07062	86.1403
2.06979	86.3906
2.06897	86.2083
2.06814	86.3262
2.06732	86.4901
2.06649	86.4065
2.06567	86.3682
2.06485	86.2939
2.06403	86.3506
2.0632	86.4047
2.06238	86.2958
2.06156	86.2133
2.06074	86.2837
2.05993	86.388
2.05911	86.3749
2.05829	86.2645
2.05747	86.327
2.05666	86.2775
2.05584	86.2969
2.05503	86.5481
2.05421	86.7493
2.0534	86.5691
2.05259	86.3031
2.05177	86.2716
2.05096	86.3997
2.05015	86.4411
2.04934	86.4286
2.04853	86.4055
2.04772	86.312
2.04691	86.2285
2.04611	86.1965
2.0453	86.2503
2.04449	86.3795
2.04369	86.4907
2.04288	86.5125
2.04208	86.4594
2.04127	86.4609
2.04047	86.5433
2.03967	86.4106
2.03886	86.2492
2.03806	86.3917
2.03726	86.3962
2.03646	86.384
2.03566	86.4852
2.03486	86.4721
2.03407	86.2477
2.03327	86.3124
2.03247	86.4484
2.03167	86.5079
2.03088	86.3993
2.03008	86.4576
2.02929	86.6522
2.0285	86.6881
2.0277	86.6291
2.02691	86.5795
2.02612	86.3445
2.02533	86.2212
2.02453	86.3153
2.02374	86.41
2.02295	86.3577
2.02217	86.445
2.02138	86.477
2.02059	86.4108
2.0198	86.3447
2.01902	86.3747
2.01823	86.4193
2.01744	86.3419
2.01666	86.3489
2.01588	86.5188
2.01509	86.5156
2.01431	86.3958
2.01353	86.3952
2.01275	86.5283
2.01196	86.5668
2.01118	86.4017
2.0104	86.1922
2.00963	86.263
2.00885	86.2612
2.00807	86.2405
2.00729	86.3328
2.00651	86.3682
2.00574	86.4687
2.00496	86.4449
2.00419	86.3949
2.00341	86.4478
2.00264	86.3385
2.00187	86.2487
2.00109	86.3374
2.00032	86.3702
