Name: Scheelite CaWO_4
Type: Mineral
Class: Tungstates
Subclass: 
Particle Size: 0-45um
Sample No.: T-1A
Owner: JPL
Wavelength range: IR
Origin: USA, California, Kern County, Atolia
Collected by Burminco
Description: 





Measurement: Hemispherical reflectance
First Column: X
Second Column: Y
X Units:  Wavelength (micrometers)
Y Units:  Reflectance (percent)
First X Value: 15.3853
Last X Value: 2.00032
Number of X Values: 2256
Additional information: t01aa.txt
 
15.3853	15.2268
15.3397	15.2657
15.2945	15.2168
15.2495	15.416
15.2048	15.5804
15.1603	15.4711
15.1161	15.385
15.0722	15.2764
15.0285	15.2609
14.9851	15.3384
14.9419	15.173
14.8989	14.9965
14.8563	14.871
14.8138	14.8173
14.7716	14.8862
14.7296	14.9649
14.6879	14.8731
14.6464	14.6415
14.6052	14.5118
14.5641	14.357
14.5233	14.0938
14.4828	13.9565
14.4424	13.6382
14.4023	13.3914
14.3624	13.3117
14.3227	13.259
14.2833	13.2552
14.244	13.1492
14.205	13.2364
14.1662	13.363
14.1276	13.0494
14.0892	12.6241
14.051	12.6457
14.0131	12.5432
13.9753	12.2058
13.9377	12.0639
13.9004	11.9131
13.8632	11.5806
13.8262	11.3313
13.7895	11.2671
13.7529	11.0815
13.7165	10.8578
13.6803	10.9099
13.6443	10.9857
13.6085	10.8685
13.5729	10.7225
13.5374	10.6009
13.5022	10.6253
13.4671	10.7688
13.4322	10.7838
13.3975	10.7084
13.363	10.6408
13.3286	10.3265
13.2944	10.0099
13.2604	9.89833
13.2266	9.74759
13.193	9.57063
13.1595	9.49719
13.1262	9.39021
13.093	9.29833
13.06	9.15722
13.0272	9.22265
12.9946	9.34337
12.9621	9.39193
12.9298	9.55379
12.8976	9.7027
12.8656	9.81003
12.8337	10.2559
12.8021	10.832
12.7705	11.5158
12.7391	12.3526
12.7079	13.2142
12.6769	14.1325
12.6459	14.8618
12.6152	15.2305
12.5845	15.2504
12.5541	14.9985
12.5238	14.7884
12.4936	14.6181
12.4635	14.1843
12.4337	13.7433
12.4039	13.5906
12.3743	13.4593
12.3448	13.4063
12.3155	13.2288
12.2863	12.9971
12.2573	12.9602
12.2284	12.849
12.1996	12.6476
12.171	12.5212
12.1425	12.5398
12.1141	12.5368
12.0859	12.4909
12.0578	12.4236
12.0298	12.2979
12.0019	12.2855
11.9742	12.2761
11.9466	12.2372
11.9192	12.3006
11.8918	12.4307
11.8646	12.5902
11.8375	12.4632
11.8106	12.351
11.7837	12.3033
11.757	12.3685
11.7304	12.5454
11.7039	12.6152
11.6776	12.7597
11.6513	12.785
11.6252	12.6624
11.5992	12.6722
11.5733	12.6733
11.5475	12.444
11.5219	12.3791
11.4963	12.4106
11.4709	12.3945
11.4455	12.2658
11.4203	12.4879
11.3952	12.8713
11.3702	13.3034
11.3454	13.9545
11.3206	14.8259
11.2959	16.0884
11.2714	17.5059
11.2469	18.9111
11.2226	20.1627
11.1983	20.7126
11.1742	20.3805
11.1502	19.6821
11.1263	18.921
11.1024	17.9696
11.0787	16.5507
11.0551	14.8952
11.0316	13.2721
11.0081	12.1692
10.9848	11.3354
10.9616	10.3326
10.9385	9.38872
10.9154	8.45542
10.8925	7.70775
10.8697	7.30153
10.8469	7.14576
10.8243	7.08839
10.8017	6.79758
10.7793	6.54971
10.7569	6.41541
10.7346	6.19389
10.7125	6.02922
10.6904	5.88476
10.6684	5.85881
10.6465	5.95505
10.6247	5.97106
10.6029	5.8296
10.5813	5.91906
10.5597	6.05343
10.5383	6.11895
10.5169	6.17424
10.4956	6.22412
10.4744	6.15677
10.4533	6.03055
10.4323	6.05898
10.4113	6.07068
10.3904	6.16267
10.3697	6.30417
10.349	6.27061
10.3284	6.26222
10.3078	6.23069
10.2874	6.15826
10.267	6.22875
10.2467	6.20664
10.2265	6.04854
10.2064	6.02283
10.1863	6.13926
10.1663	6.32553
10.1464	6.37902
10.1266	6.44034
10.1069	6.50763
10.0872	6.46125
10.0676	6.57593
10.0481	6.67163
10.0287	6.68283
10.0093	6.72449
9.99005	6.83204
9.97084	6.82931
9.95169	6.8776
9.93263	7.12939
9.91364	7.31714
9.89472	7.3081
9.87587	7.27413
9.8571	7.42817
9.83839	7.50854
9.81976	7.47054
9.80119	7.55156
9.78271	7.56229
9.76428	7.65282
9.74592	7.67776
9.72764	7.81546
9.70943	7.98048
9.69128	8.18386
9.6732	8.40309
9.65518	8.56272
9.63724	8.80732
9.61935	8.96656
9.60155	9.09082
9.5838	9.21914
9.56611	9.37479
9.5485	9.62289
9.53094	9.88072
9.51345	10.0493
9.49604	10.1423
9.47867	10.3801
9.46137	10.7787
9.44414	11.164
9.42697	11.3999
9.40986	11.7615
9.39281	12.3107
9.37583	12.9082
9.35891	13.4433
9.34204	14.001
9.32524	14.5024
9.3085	14.6988
9.29182	14.8093
9.27519	14.9713
9.25863	15.1217
9.24213	15.1222
9.22568	15.17
9.2093	15.1718
9.19297	15.1153
9.17669	15.1714
9.16048	15.2649
9.14433	15.203
9.12823	15.1301
9.11218	15.1055
9.0962	15.1815
9.08027	15.2477
9.06439	15.2629
9.04858	15.2715
9.03281	15.1504
9.0171	15.0289
9.00145	15.1402
8.98585	15.2573
8.9703	15.339
8.9548	15.4106
8.93937	15.4778
8.92398	15.6959
8.90865	15.8858
8.89337	16.0488
8.87814	16.1637
8.86296	16.3338
8.84784	16.5242
8.83277	16.5895
8.81774	16.6379
8.80277	16.8678
8.78786	17.1042
8.77298	17.3163
8.75816	17.5096
8.7434	17.6862
8.72868	17.824
8.714	17.93
8.69938	18.0891
8.68481	18.2068
8.67029	18.3207
8.65581	18.2637
8.64139	18.0275
8.62701	18.0236
8.61268	18.2592
8.5984	18.7643
8.58416	19.3198
8.56997	19.7787
8.55583	20.1162
8.54174	20.526
8.52769	20.9691
8.51368	21.3236
8.49973	21.547
8.48582	21.7971
8.47195	22.0694
8.45813	22.3144
8.44436	22.5172
8.43062	22.7508
8.41693	22.9547
8.4033	23.2204
8.3897	23.6713
8.37614	24.0276
8.36264	24.2077
8.34917	24.5763
8.33574	24.9464
8.32236	25.1947
8.30903	25.6344
8.29573	26.269
8.28248	26.8378
8.26927	27.3657
8.2561	27.9586
8.24298	28.5643
8.2299	29.1127
8.21685	29.7943
8.20385	30.5394
8.19089	31.1864
8.17797	31.7102
8.16509	32.2125
8.15225	32.6052
8.13946	32.9097
8.1267	33.1866
8.11398	33.4705
8.10131	33.6983
8.08867	33.9173
8.07606	34.1942
8.0635	34.4863
8.05099	34.7915
8.0385	35.1458
8.02606	35.5269
8.01366	35.9104
8.00129	36.2537
7.98896	36.5874
7.97667	36.8736
7.96442	37.0864
7.9522	37.2351
7.94002	37.2892
7.92788	37.3302
7.91578	37.4471
7.90371	37.5615
7.89168	37.6779
7.87969	37.7596
7.86773	37.9083
7.85581	38.0456
7.84392	38.2043
7.83207	38.3266
7.82026	38.5311
7.80849	38.7676
7.79674	39.0296
7.78503	39.3414
7.77337	39.5814
7.76173	39.7675
7.75012	39.9566
7.73856	40.0879
7.72703	40.1774
7.71553	40.3313
7.70406	40.5023
7.69263	40.638
7.68123	40.7685
7.66987	40.8814
7.65855	40.9727
7.64725	41.0401
7.63598	40.8905
7.62475	40.6141
7.61356	40.3855
7.60239	40.1545
7.59126	39.9649
7.58017	39.9335
7.5691	39.9815
7.55806	40.1115
7.54707	40.2491
7.5361	40.4382
7.52516	40.7359
7.51425	40.8996
7.50338	40.9765
7.49253	41.0723
7.48172	41.2798
7.47094	41.3218
7.46019	41.3291
7.44947	41.3416
7.43879	41.3209
7.42813	41.2447
7.4175	41.1956
7.4069	41.1802
7.39634	41.1659
7.3858	41.135
7.37529	41.0031
7.36482	40.8543
7.35437	40.7927
7.34396	40.7175
7.33357	40.5005
7.32321	40.1742
7.31288	39.941
7.30258	39.7173
7.29231	39.4831
7.28207	39.3675
7.27185	39.1067
7.26167	38.7742
7.25152	38.6398
7.24139	38.5334
7.23129	38.4585
7.22122	38.2349
7.21117	38.1542
7.20116	37.9152
7.19117	37.4711
7.18121	37.1585
7.17128	37.1019
7.16137	36.7145
7.1515	36.35
7.14164	36.0424
7.13182	35.76
7.12203	35.6308
7.11225	35.3687
7.10251	34.9742
7.0928	34.6117
7.08311	34.2801
7.07344	33.9767
7.06381	33.599
7.0542	33.4039
7.04461	33.2135
7.03506	32.6506
7.02552	32.3123
7.01601	32.0757
7.00653	31.7925
6.99708	31.6356
6.98765	31.451
6.97824	31.2946
6.96886	31.4451
6.95951	31.5993
6.95018	31.2113
6.94087	30.8877
6.9316	30.7275
6.92234	30.6688
6.91311	30.7135
6.90391	30.7243
6.89473	30.5864
6.88557	30.5475
6.87644	30.7019
6.86733	31.2312
6.85824	31.2617
6.84918	30.8131
6.84015	30.7365
6.83114	31.1157
6.82215	31.3114
6.81319	31.2984
6.80424	31.5995
6.79532	32.2805
6.78643	32.7373
6.77756	32.7918
6.76871	32.8621
6.75989	32.968
6.75109	33.2612
6.74231	33.4802
6.73355	33.8051
6.72482	34.2411
6.71611	34.6181
6.70742	34.824
6.69875	34.8497
6.69011	35.2258
6.68149	35.7434
6.67289	35.9033
6.66431	36.1015
6.65576	36.4151
6.64722	37.1445
6.63871	38.1614
6.63022	38.1314
6.62175	37.8085
6.61331	37.9474
6.60488	38.1576
6.59648	38.5614
6.5881	38.9763
6.57974	39.4556
6.5714	39.9526
6.56308	39.809
6.55478	39.8494
6.54651	39.8526
6.53825	39.9528
6.53001	40.2626
6.5218	40.7829
6.51361	40.8768
6.50544	41.1438
6.49729	42.038
6.48915	42.2446
6.48104	41.7712
6.47295	41.3956
6.46488	40.9731
6.45683	40.7474
6.4488	40.4909
6.44079	40.1576
6.4328	39.7219
6.42482	39.3037
6.41687	39.3648
6.40894	38.4218
6.40103	36.89
6.39314	36.0936
6.38526	35.4855
6.37741	34.9388
6.36957	34.2873
6.36176	33.1744
6.35396	32.46
6.34618	32.1961
6.33843	31.3313
6.33069	30.2793
6.32297	29.5875
6.31527	29.1142
6.30758	28.7338
6.29992	28.4529
6.29227	28.2748
6.28465	28.1461
6.27704	28.0956
6.26945	28.0083
6.26188	27.8747
6.25432	27.7748
6.24679	27.7349
6.23927	27.6655
6.23177	27.5173
6.22429	27.4232
6.21683	27.4425
6.20938	27.553
6.20195	27.6287
6.19454	27.7648
6.18715	28.1148
6.17978	28.0266
6.17242	27.7579
6.16508	28.0108
6.15776	28.3838
6.15045	28.544
6.14317	28.8659
6.1359	29.1995
6.12864	29.5693
6.12141	30.3278
6.11419	31.148
6.10699	31.1801
6.0998	31.1469
6.09263	31.2714
6.08549	31.4324
6.07835	31.8671
6.07123	31.965
6.06413	31.5893
6.05705	31.7786
6.04998	32.3818
6.04293	31.6451
6.0359	30.7954
6.02888	30.5228
6.02187	30.4594
6.01489	30.4726
6.00792	30.1833
6.00096	29.9293
5.99403	30.0052
5.98711	29.9783
5.9802	29.7051
5.97331	29.6675
5.96644	29.6535
5.95958	29.3098
5.95274	29.2206
5.94591	29.4011
5.9391	29.9817
5.9323	29.8698
5.92552	29.2916
5.91876	28.6412
5.91201	27.7088
5.90528	26.8019
5.89856	26.2962
5.89186	25.5927
5.88517	25.6915
5.8785	26.1173
5.87184	26.0949
5.8652	26.4769
5.85857	26.7006
5.85196	26.7404
5.84536	26.8245
5.83878	27.078
5.83221	27.6034
5.82566	28.4368
5.81912	29.0986
5.81259	29.3985
5.80608	29.9172
5.79959	30.7086
5.79311	31.7145
5.78665	33.1276
5.78019	34.8054
5.77376	36.7019
5.76734	38.8156
5.76093	39.8881
5.75453	40.4644
5.74815	41.0566
5.74179	40.9464
5.73543	40.7195
5.7291	40.5954
5.72277	40.7599
5.71646	41.0752
5.71017	41.3745
5.70389	41.4408
5.69762	41.779
5.69136	42.3512
5.68513	42.8727
5.6789	43.6499
5.67268	44.2517
5.66648	44.5783
5.6603	45.2185
5.65413	45.7539
5.64797	46.1088
5.64182	46.485
5.63569	46.2366
5.62957	45.8499
5.62347	45.5868
5.61737	45.2151
5.61129	44.4657
5.60522	43.5249
5.59917	42.3209
5.59313	40.8004
5.5871	39.4277
5.58109	38.2405
5.57509	36.9287
5.5691	35.8463
5.56312	35.3394
5.55716	35.2917
5.55121	35.7606
5.54528	36.8925
5.53935	38.7604
5.53344	41.2727
5.52754	44.2317
5.52166	47.2081
5.51578	49.8088
5.50992	51.9336
5.50407	53.7408
5.49823	55.1225
5.49241	56.2441
5.4866	57.1328
5.4808	58.0037
5.47501	58.5346
5.46923	59.0691
5.46347	59.5481
5.45772	59.6294
5.45198	59.7019
5.44625	59.9472
5.44054	60.1041
5.43484	60.1542
5.42914	60.2672
5.42347	60.5191
5.4178	60.1172
5.41214	59.5185
5.4065	59.0793
5.40087	58.5866
5.39525	58.0635
5.38964	57.4962
5.38404	56.9378
5.37846	56.468
5.37288	56.0477
5.36732	55.7531
5.36177	55.5039
5.35623	55.4551
5.35071	55.5359
5.34519	55.4237
5.33968	55.4169
5.33419	55.5814
5.32871	55.7019
5.32324	55.8447
5.31778	55.9528
5.31233	56.1481
5.30689	56.3883
5.30147	56.6493
5.29605	56.9464
5.29065	57.3216
5.28525	57.5693
5.27987	57.9132
5.2745	58.295
5.26914	58.6751
5.26379	59.1072
5.25845	59.6346
5.25312	60.1227
5.24781	60.6756
5.2425	61.2153
5.23721	61.7726
5.23192	62.2894
5.22665	62.7827
5.22138	63.241
5.21613	63.7532
5.21089	64.0635
5.20566	64.1409
5.20044	64.2401
5.19522	64.2879
5.19002	64.3048
5.18483	64.334
5.17965	64.3586
5.17448	64.3633
5.16933	64.3139
5.16418	64.3497
5.15904	64.3493
5.15391	64.3194
5.14879	64.3535
5.14368	64.3381
5.13859	64.2704
5.1335	64.2147
5.12842	64.1678
5.12335	64.2069
5.1183	64.2741
5.11325	64.2829
5.10821	64.2233
5.10318	64.1531
5.09817	63.9694
5.09316	63.8464
5.08816	63.7652
5.08317	63.6862
5.07819	63.5217
5.07322	63.3535
5.06826	63.2524
5.06331	63.2307
5.05837	63.2312
5.05344	63.2409
5.04852	63.2153
5.04361	63.2524
5.03871	63.2818
5.03382	63.2761
5.02894	63.2662
5.02406	63.3586
5.0192	63.4091
5.01435	63.3391
5.0095	63.3814
5.00467	63.5086
4.99984	63.6279
4.99502	63.8192
4.99021	63.9502
4.98542	64.149
4.98063	64.3598
4.97585	64.6834
4.97108	65.1143
4.96632	65.5207
4.96156	65.8305
4.95682	66.1383
4.95209	66.3677
4.94736	66.5343
4.94264	66.6524
4.93794	66.7883
4.93324	66.9528
4.92855	67.1429
4.92387	67.4119
4.9192	67.7756
4.91453	68.0946
4.90988	68.4356
4.90524	68.8073
4.9006	69.2736
4.89597	69.6928
4.89135	70.037
4.88674	70.3335
4.88214	70.617
4.87755	70.885
4.87296	71.1324
4.86839	71.3384
4.86382	71.4742
4.85926	71.6212
4.85471	71.8068
4.85017	71.9495
4.84564	72.0263
4.84111	72.062
4.8366	72.1507
4.83209	72.2138
4.82759	72.2605
4.8231	72.359
4.81862	72.4116
4.81415	72.4289
4.80968	72.5127
4.80522	72.5355
4.80077	72.6484
4.79633	72.7524
4.7919	72.7554
4.78747	72.7883
4.78306	72.8278
4.77865	72.8217
4.77425	72.8602
4.76986	72.8757
4.76547	72.8891
4.7611	72.9317
4.75673	72.9763
4.75237	72.9735
4.74802	72.923
4.74367	72.9016
4.73934	72.9738
4.73501	73.0038
4.73069	72.9928
4.72638	72.9836
4.72207	73.0092
4.71777	72.9997
4.71348	72.9936
4.7092	72.9622
4.70493	72.8994
4.70066	72.8607
4.69641	72.8156
4.69216	72.7184
4.68791	72.6535
4.68368	72.6063
4.67945	72.7013
4.67523	72.821
4.67102	72.8285
4.66682	72.8381
4.66262	72.9761
4.65843	73.0737
4.65425	73.1163
4.65007	73.1867
4.64591	73.3182
4.64175	73.4427
4.6376	73.4882
4.63345	73.5366
4.62932	73.6199
4.62519	73.6766
4.62106	73.7677
4.61695	73.8375
4.61284	73.9191
4.60874	73.9637
4.60465	73.9857
4.60056	73.9327
4.59648	73.9724
4.59241	73.9607
4.58835	73.9716
4.58429	74.012
4.58024	74.0362
4.5762	74.0582
4.57216	74.1058
4.56814	74.0853
4.56411	74.0591
4.5601	74.0709
4.55609	74.0573
4.55209	74.0291
4.5481	73.9644
4.54411	73.9461
4.54013	73.9781
4.53616	73.9663
4.5322	73.9522
4.52824	73.8726
4.52429	73.8649
4.52034	73.8281
4.51641	73.7729
4.51247	73.7657
4.50855	73.7305
4.50463	73.6382
4.50072	73.5655
4.49682	73.4991
4.49292	73.5111
4.48903	73.5052
4.48515	73.4658
4.48127	73.4739
4.4774	73.4758
4.47354	73.446
4.46968	73.4801
4.46584	73.5123
4.46199	73.5264
4.45815	73.577
4.45432	73.7249
4.4505	73.794
4.44668	73.7421
4.44287	73.7691
4.43907	73.8489
4.43527	73.9186
4.43148	73.9955
4.4277	74.013
4.42392	74.0577
4.42015	74.1511
4.41638	74.2807
4.41262	74.3328
4.40887	74.338
4.40513	74.3717
4.40139	74.4838
4.39765	74.5322
4.39393	74.5096
4.39021	74.5823
4.38649	74.6455
4.38278	74.7236
4.37908	74.8509
4.37539	74.9061
4.3717	74.9441
4.36801	74.9737
4.36434	74.9983
4.36067	75.0282
4.357	75.087
4.35335	75.1021
4.34969	75.0709
4.34605	75.1201
4.34241	75.2268
4.33877	75.24
4.33514	75.2
4.33152	75.1918
4.32791	75.1947
4.3243	75.1495
4.32069	75.1301
4.3171	75.1371
4.31351	75.1243
4.30992	75.095
4.30634	75.0035
4.30277	74.961
4.2992	74.9423
4.29564	74.887
4.29208	74.8078
4.28853	74.6542
4.28499	74.474
4.28145	74.2724
4.27792	73.9626
4.27439	73.4679
4.27087	72.9158
4.26735	72.6149
4.26384	72.9303
4.26034	73.4776
4.25684	73.8674
4.25335	74.207
4.24986	74.4878
4.24638	74.5972
4.24291	74.668
4.23944	74.729
4.23598	74.7889
4.23252	74.8209
4.22906	74.8052
4.22562	74.7937
4.22218	74.8667
4.21874	74.9785
4.21531	75.0627
4.21189	75.0896
4.20847	75.1392
4.20506	75.208
4.20165	75.2517
4.19825	75.224
4.19485	75.2367
4.19146	75.2986
4.18807	75.3388
4.18469	75.3878
4.18132	75.4635
4.17795	75.4042
4.17458	75.3805
4.17123	75.4193
4.16787	75.3975
4.16453	75.3789
4.16118	75.4556
4.15785	75.5475
4.15451	75.5392
4.15119	75.5211
4.14787	75.5821
4.14455	75.5857
4.14124	75.6352
4.13794	75.5821
4.13464	75.5378
4.13134	75.5357
4.12805	75.5399
4.12477	75.6129
4.12149	75.6734
4.11822	75.6601
4.11495	75.638
4.11168	75.585
4.10843	75.5212
4.10517	75.5303
4.10192	75.4982
4.09868	75.4388
4.09545	75.4372
4.09221	75.4377
4.08899	75.3963
4.08576	75.2909
4.08255	75.2068
4.07933	75.2253
4.07613	75.219
4.07292	75.0989
4.06973	75.0863
4.06654	75.0794
4.06335	75.0009
4.06017	74.8606
4.05699	74.758
4.05382	74.6476
4.05065	74.5181
4.04749	74.361
4.04433	74.2196
4.04118	74.0707
4.03803	73.8277
4.03489	73.5893
4.03175	73.3607
4.02862	73.0791
4.02549	72.8475
4.02237	72.6758
4.01925	72.5052
4.01614	72.2442
4.01303	71.9181
4.00993	71.6021
4.00683	71.2693
4.00373	70.8604
4.00064	70.4218
3.99756	70.0524
3.99448	69.7033
3.9914	69.2858
3.98833	68.925
3.98527	68.7667
3.98221	68.7046
3.97915	68.6949
3.9761	68.6737
3.97305	68.679
3.97001	68.812
3.96697	68.981
3.96394	69.1754
3.96091	69.5022
3.95789	69.8539
3.95487	70.1822
3.95186	70.5585
3.94885	70.9531
3.94584	71.3237
3.94284	71.6866
3.93984	72.0355
3.93685	72.2669
3.93386	72.4323
3.93088	72.5394
3.9279	72.5789
3.92493	72.6412
3.92196	72.7481
3.919	72.7988
3.91604	72.8532
3.91308	72.8644
3.91013	72.8935
3.90718	72.9386
3.90424	73.0419
3.9013	73.0538
3.89837	73.107
3.89544	73.1445
3.89252	73.0019
3.8896	73.0142
3.88668	73.1535
3.88377	73.0702
3.88086	72.9455
3.87796	72.9438
3.87506	72.9865
3.87217	72.976
3.86928	72.9714
3.86639	72.9816
3.86351	72.9505
3.86064	72.9084
3.85776	72.9236
3.8549	72.9694
3.85203	72.9655
3.84917	73.0399
3.84631	73.0592
3.84346	73.0114
3.84062	72.9442
3.83777	72.9108
3.83494	72.974
3.8321	73.0552
3.82927	73.177
3.82644	73.2262
3.82362	73.3059
3.82081	73.4382
3.81799	73.4784
3.81518	73.6439
3.81238	73.7375
3.80958	73.7641
3.80678	73.8404
3.80399	73.9093
3.8012	74.0388
3.79841	74.1435
3.79563	74.2037
3.79286	74.2508
3.79008	74.2572
3.78731	74.2558
3.78455	74.2718
3.78179	74.2637
3.77903	74.2786
3.77628	74.2555
3.77353	74.25
3.77079	74.3222
3.76805	74.2844
3.76531	74.2374
3.76258	74.2335
3.75985	74.1685
3.75713	74.074
3.7544	74.0068
3.75169	73.998
3.74898	74.023
3.74627	73.9883
3.74356	73.9041
3.74086	73.8813
3.73816	73.8175
3.73547	73.7852
3.73278	73.7243
3.7301	73.6595
3.72741	73.6805
3.72474	73.686
3.72206	73.643
3.71939	73.6452
3.71673	73.6391
3.71406	73.569
3.71141	73.5607
3.70875	73.5431
3.7061	73.5141
3.70345	73.4838
3.70081	73.3962
3.69817	73.3251
3.69553	73.3297
3.6929	73.2462
3.69027	73.1536
3.68765	73.117
3.68503	73.0522
3.68241	73.0133
3.6798	72.9537
3.67719	72.9322
3.67458	72.895
3.67198	72.8008
3.66938	72.7314
3.66678	72.7025
3.66419	72.6747
3.66161	72.6154
3.65902	72.5828
3.65644	72.5244
3.65387	72.4458
3.65129	72.4611
3.64872	72.4677
3.64616	72.3561
3.64359	72.2715
3.64103	72.2564
3.63848	72.2103
3.63593	72.1216
3.63338	72.0005
3.63084	71.9585
3.6283	71.9403
3.62576	71.8354
3.62322	71.7215
3.62069	71.6763
3.61817	71.7503
3.61564	71.7357
3.61312	71.5527
3.61061	71.453
3.6081	71.3791
3.60559	71.3105
3.60308	71.2359
3.60058	71.1462
3.59808	71.0716
3.59558	70.9763
3.59309	70.8736
3.59061	70.7611
3.58812	70.6868
3.58564	70.6359
3.58316	70.5078
3.58069	70.3997
3.57822	70.2995
3.57575	70.167
3.57328	70.0698
3.57082	69.8838
3.56836	69.7385
3.56591	69.6805
3.56346	69.591
3.56101	69.4682
3.55857	69.2624
3.55613	69.0964
3.55369	68.982
3.55126	68.8454
3.54883	68.6934
3.5464	68.5257
3.54397	68.3309
3.54155	68.1466
3.53914	67.9271
3.53672	67.7209
3.53431	67.4316
3.5319	67.0605
3.5295	66.6161
3.5271	65.9806
3.5247	65.3044
3.52231	64.5598
3.51991	63.6499
3.51753	62.7039
3.51514	61.6752
3.51276	60.5985
3.51038	59.6017
3.50801	58.7863
3.50563	58.2049
3.50327	57.8386
3.5009	57.8089
3.49854	58.1477
3.49618	58.5992
3.49382	58.8524
3.49147	59.0698
3.48912	59.2901
3.48677	59.316
3.48443	59.3745
3.48209	59.4438
3.47975	59.4898
3.47742	59.6441
3.47509	59.9121
3.47276	60.1717
3.47044	60.3447
3.46812	60.4908
3.4658	60.5043
3.46348	60.3333
3.46117	60.1263
3.45886	59.8435
3.45656	59.5126
3.45425	59.1843
3.45195	58.8251
3.44966	58.5292
3.44736	58.1879
3.44507	57.7719
3.44279	57.3553
3.4405	56.9802
3.43822	56.5457
3.43594	55.9965
3.43367	55.4057
3.43139	54.7297
3.42912	53.9446
3.42686	53.0622
3.42459	52.3051
3.42233	51.7104
3.42007	51.3742
3.41782	51.3048
3.41557	51.5092
3.41332	51.8203
3.41108	52.3038
3.40883	52.92
3.40659	53.5854
3.40435	54.2337
3.40212	54.8972
3.39989	55.4401
3.39766	55.7362
3.39544	55.8693
3.39322	55.9266
3.391	55.8615
3.38878	55.6851
3.38657	55.5576
3.38436	55.5455
3.38215	55.5514
3.37994	55.6696
3.37774	55.9053
3.37554	56.2671
3.37335	56.7255
3.37115	57.1585
3.36896	57.6708
3.36678	58.2925
3.36459	58.8383
3.36241	59.2813
3.36023	59.6488
3.35805	59.9336
3.35588	60.1545
3.35371	60.3559
3.35154	60.5049
3.34938	60.6651
3.34721	60.872
3.34505	61.0121
3.3429	61.1812
3.34074	61.4141
3.33859	61.5863
3.33644	61.6908
3.3343	61.7355
3.33215	61.764
3.33001	61.8168
3.32788	61.838
3.32574	61.876
3.32361	61.8261
3.32148	61.7507
3.31936	61.7115
3.31723	61.6877
3.31511	61.6602
3.31299	61.6064
3.31088	61.5188
3.30876	61.4224
3.30665	61.357
3.30455	61.2065
3.30244	61.0842
3.30034	61.095
3.29824	61.0735
3.29614	60.9605
3.29405	60.8876
3.29196	60.753
3.28987	60.6454
3.28778	60.6141
3.2857	60.522
3.28362	60.3483
3.28154	60.2777
3.27946	60.1426
3.27739	60.0214
3.27532	59.943
3.27325	59.9316
3.27119	59.9083
3.26913	59.7868
3.26707	59.5976
3.26501	59.4302
3.26295	59.2884
3.2609	59.2381
3.25885	59.2452
3.2568	59.2418
3.25476	59.1201
3.25272	58.9523
3.25068	58.8424
3.24864	58.7887
3.24661	58.7293
3.24458	58.5943
3.24255	58.3956
3.24052	58.2886
3.2385	58.2809
3.23648	58.2059
3.23446	58.0657
3.23244	58.0276
3.23043	57.9392
3.22841	57.7504
3.2264	57.5572
3.2244	57.4585
3.22239	57.4803
3.22039	57.3759
3.21839	57.1507
3.2164	57.0307
3.2144	57.0262
3.21241	56.9404
3.21042	56.7693
3.20844	56.6437
3.20645	56.5456
3.20447	56.4528
3.20249	56.342
3.20051	56.1836
3.19854	56.0588
3.19657	56.024
3.1946	55.9454
3.19263	55.7321
3.19067	55.5775
3.1887	55.5563
3.18674	55.5206
3.18479	55.4235
3.18283	55.2697
3.18088	55.0643
3.17893	54.8521
3.17698	54.8159
3.17504	54.854
3.17309	54.7578
3.17115	54.626
3.16921	54.461
3.16728	54.3818
3.16534	54.3743
3.16341	54.1862
3.16148	53.9838
3.15956	53.8933
3.15763	53.8315
3.15571	53.7736
3.15379	53.7623
3.15187	53.629
3.14996	53.4662
3.14805	53.3968
3.14614	53.2493
3.14423	53.1181
3.14232	53.0333
3.14042	52.9405
3.13852	52.8713
3.13662	52.7989
3.13472	52.7404
3.13283	52.6326
3.13094	52.4853
3.12905	52.3641
3.12716	52.299
3.12528	52.2896
3.12339	52.3032
3.12151	52.1745
3.11964	51.9552
3.11776	51.8338
3.11589	51.8387
3.11401	51.8207
3.11214	51.7726
3.11028	51.6762
3.10841	51.6455
3.10655	51.5576
3.10469	51.4641
3.10283	51.276
3.10098	51.234
3.09912	51.1736
3.09727	51.0429
3.09542	51.0404
3.09358	51.0886
3.09173	51.0313
3.08989	50.9373
3.08805	50.7892
3.08621	50.6767
3.08437	50.6626
3.08254	50.6533
3.08071	50.5345
3.07888	50.3893
3.07705	50.3764
3.07523	50.3913
3.0734	50.3282
3.07158	50.3864
3.06977	50.4926
3.06795	50.3688
3.06613	50.2347
3.06432	50.2481
3.06251	50.2905
3.0607	50.172
3.0589	50.0327
3.0571	49.9932
3.05529	50.0001
3.05349	49.9754
3.0517	49.9395
3.0499	49.9811
3.04811	49.9276
3.04632	49.8036
3.04453	49.8143
3.04274	49.8823
3.04096	49.7101
3.03918	49.525
3.0374	49.5311
3.03562	49.5222
3.03384	49.4717
3.03207	49.4129
3.03029	49.3937
3.02852	49.3582
3.02676	49.2847
3.02499	49.2055
3.02323	49.1856
3.02146	49.1621
3.0197	49.1713
3.01795	49.0416
3.01619	48.8876
3.01444	48.9785
3.01269	49.0757
3.01094	49.0247
3.00919	48.9843
3.00744	48.9421
3.0057	48.8304
3.00396	48.7326
3.00222	48.7548
3.00048	48.6891
2.99875	48.6652
2.99701	48.6787
2.99528	48.5885
2.99355	48.565
2.99183	48.4821
2.9901	48.375
2.98838	48.4515
2.98666	48.3837
2.98494	48.1908
2.98322	48.2497
2.9815	48.4185
2.97979	48.2839
2.97808	48.1405
2.97637	48.125
2.97466	48.0479
2.97295	48.0087
2.97125	48.0982
2.96955	48.0606
2.96785	48.0515
2.96615	47.9183
2.96446	47.6888
2.96276	47.6166
2.96107	47.6141
2.95938	47.5715
2.95769	47.5093
2.95601	47.4482
2.95432	47.4203
2.95264	47.3052
2.95096	47.1869
2.94928	47.2105
2.9476	47.2156
2.94593	47.2361
2.94425	47.1741
2.94258	46.9573
2.94092	46.8862
2.93925	46.9555
2.93758	47.0456
2.93592	47.0133
2.93426	47.0371
2.9326	47.1233
2.93094	47.2056
2.92928	47.3331
2.92763	47.406
2.92598	47.4351
2.92433	47.5651
2.92268	47.5809
2.92103	47.6203
2.91939	47.7781
2.91775	47.9241
2.9161	48.0787
2.91447	48.2175
2.91283	48.3105
2.91119	48.5243
2.90956	48.6197
2.90793	48.5967
2.9063	48.6364
2.90467	48.8059
2.90304	48.9353
2.90142	48.9898
2.89979	49.0009
2.89817	49.0143
2.89656	49.0554
2.89494	49.2261
2.89332	49.4286
2.89171	49.449
2.8901	49.4027
2.88849	49.3719
2.88688	49.4449
2.88527	49.6245
2.88367	49.7073
2.88206	49.6954
2.88046	49.7268
2.87886	49.7999
2.87727	49.9285
2.87567	49.9561
2.87408	49.9464
2.87248	49.9629
2.87089	49.9624
2.8693	49.9861
2.86772	50.1391
2.86613	50.266
2.86455	50.2552
2.86297	50.1611
2.86139	50.305
2.85981	50.488
2.85823	50.6373
2.85666	50.7457
2.85508	50.8682
2.85351	50.8274
2.85194	50.6486
2.85038	50.7385
2.84881	50.8771
2.84724	50.8972
2.84568	50.907
2.84412	50.8941
2.84256	50.8947
2.841	50.9311
2.83945	51.1079
2.83789	51.1706
2.83634	51.0983
2.83479	51.1487
2.83324	51.1394
2.83169	51.0813
2.83015	51.1673
2.82861	51.1996
2.82706	51.1976
2.82552	51.2658
2.82398	51.3706
2.82245	51.3602
2.82091	51.5545
2.81938	51.7964
2.81784	51.8178
2.81631	51.8405
2.81479	52.0258
2.81326	52.1353
2.81173	52.2069
2.81021	52.3415
2.80869	52.5202
2.80716	52.7662
2.80565	53.0735
2.80413	53.3372
2.80261	53.4365
2.8011	53.3812
2.79959	53.4101
2.79808	53.4612
2.79657	53.5454
2.79506	53.6365
2.79355	53.7887
2.79205	53.8082
2.79055	53.7701
2.78904	54.02
2.78754	54.3082
2.78605	54.2784
2.78455	54.0841
2.78306	54.0807
2.78156	54.1961
2.78007	54.092
2.77858	54.0353
2.77709	54.108
2.77561	53.9438
2.77412	53.8766
2.77264	53.8221
2.77116	53.8316
2.76968	53.7251
2.7682	53.5565
2.76672	53.3903
2.76524	53.2983
2.76377	53.3516
2.7623	53.1776
2.76083	52.8825
2.75936	52.8666
2.75789	53.2701
2.75642	53.988
2.75496	54.4088
2.7535	54.2556
2.75203	54.3595
2.75057	54.5856
2.74912	54.9062
2.74766	55.2714
2.7462	55.6608
2.74475	55.9251
2.7433	56.4137
2.74185	57.3358
2.7404	58.0667
2.73895	58.1397
2.7375	57.9966
2.73606	58.3899
2.73462	58.9611
2.73318	59.1533
2.73174	59.5621
2.7303	60.195
2.72886	60.8045
2.72742	61.4712
2.72599	62.5415
2.72456	63.6312
2.72313	63.8954
2.7217	64.825
2.72027	65.9852
2.71884	66.1277
2.71742	66.583
2.71599	67.0449
2.71457	67.6699
2.71315	68.4792
2.71173	69.6718
2.71032	70.2724
2.7089	70.1059
2.70748	70.0541
2.70607	70.2712
2.70466	70.593
2.70325	71.1041
2.70184	71.9309
2.70043	72.608
2.69903	73.0586
2.69762	73.8431
2.69622	74.9435
2.69482	76.0242
2.69342	76.6998
2.69202	76.8745
2.69062	77.1879
2.68923	77.6179
2.68783	78.0449
2.68644	78.5255
2.68505	78.8593
2.68366	79.1769
2.68227	79.2809
2.68089	79.5241
2.6795	80.1439
2.67812	80.3392
2.67673	80.5718
2.67535	80.3739
2.67397	80.1798
2.6726	80.4607
2.67122	81.5264
2.66984	81.7346
2.66847	81.0972
2.6671	81.5416
2.66572	81.8459
2.66435	81.5327
2.66299	80.9189
2.66162	81.0091
2.66025	81.0892
2.65889	80.9933
2.65753	80.7971
2.65616	81.0302
2.65481	81.1491
2.65345	81.3831
2.65209	81.514
2.65073	81.2456
2.64938	81.0913
2.64803	81.1573
2.64667	81.3568
2.64532	81.4473
2.64397	81.1587
2.64263	81.1726
2.64128	81.2757
2.63994	81.2765
2.63859	81.1988
2.63725	81.2223
2.63591	81.2498
2.63457	81.4778
2.63323	81.5915
2.6319	81.976
2.63056	82.5729
2.62923	82.0687
2.62789	81.9
2.62656	82.2153
2.62523	81.7559
2.6239	81.514
2.62258	81.6006
2.62125	82.1552
2.61993	82.4336
2.6186	82.1232
2.61728	82.4207
2.61596	82.2425
2.61464	81.7659
2.61332	81.7796
2.61201	81.6586
2.61069	81.7476
2.60938	81.9393
2.60807	82.0786
2.60675	82.4513
2.60544	82.7427
2.60414	82.4467
2.60283	82.214
2.60152	82.0802
2.60022	81.8879
2.59891	81.7383
2.59761	81.9367
2.59631	82.7619
2.59501	83.7699
2.59371	83.0631
2.59242	82.1389
2.59112	81.9713
2.58983	82.1182
2.58853	82.2704
2.58724	82.3172
2.58595	82.1579
2.58466	82.5994
2.58338	82.6552
2.58209	82.1828
2.5808	82.1457
2.57952	81.8721
2.57824	82.0181
2.57695	82.3817
2.57567	82.2333
2.5744	82.2983
2.57312	82.4322
2.57184	82.0414
2.57057	82.2048
2.56929	82.2303
2.56802	81.8868
2.56675	81.8151
2.56548	82.0656
2.56421	82.3727
2.56294	82.4473
2.56168	82.4835
2.56041	82.2347
2.55915	81.869
2.55789	81.7707
2.55662	81.8215
2.55536	81.8938
2.5541	81.9969
2.55285	82.0913
2.55159	81.9839
2.55034	81.9407
2.54908	81.9484
2.54783	82.0053
2.54658	81.9621
2.54533	81.9523
2.54408	81.984
2.54283	81.9916
2.54159	81.9173
2.54034	81.8589
2.5391	81.8148
2.53785	81.7499
2.53661	81.7659
2.53537	81.7785
2.53413	81.7528
2.53289	81.7512
2.53166	81.7106
2.53042	81.7019
2.52919	81.6516
2.52795	81.6986
2.52672	81.7236
2.52549	81.8053
2.52426	81.8983
2.52303	81.7965
2.52181	81.7086
2.52058	81.7571
2.51936	81.821
2.51813	81.7692
2.51691	81.7936
2.51569	81.8762
2.51447	81.8473
2.51325	81.7101
2.51203	81.7457
2.51082	81.8293
2.5096	81.874
2.50839	81.7923
2.50717	81.8026
2.50596	81.8169
2.50475	81.8078
2.50354	81.7766
2.50233	81.8438
2.50113	81.9038
2.49992	81.8338
2.49872	81.7493
2.49751	81.7563
2.49631	81.7604
2.49511	81.7205
2.49391	81.7076
2.49271	81.7523
2.49151	81.7755
2.49031	81.877
2.48912	81.891
2.48792	81.8982
2.48673	81.8956
2.48554	81.9347
2.48435	81.9626
2.48316	81.8614
2.48197	81.7774
2.48078	81.7852
2.4796	81.895
2.47841	81.9735
2.47723	82.0203
2.47604	82.0107
2.47486	81.943
2.47368	81.8735
2.4725	81.8021
2.47132	81.8296
2.47014	81.9453
2.46897	82.0006
2.46779	81.9209
2.46662	81.874
2.46545	81.9246
2.46427	81.9909
2.4631	82.0705
2.46193	82.0673
2.46077	82
2.4596	82.0098
2.45843	82.0758
2.45727	82.1132
2.4561	82.0554
2.45494	82.0008
2.45378	81.9708
2.45262	81.9418
2.45146	82.0039
2.4503	82.0167
2.44914	82.0423
2.44799	82.0726
2.44683	82.0373
2.44568	82.0861
2.44452	82.1317
2.44337	82.1507
2.44222	82.1575
2.44107	82.1286
2.43992	82.1178
2.43877	82.1127
2.43763	82.0137
2.43648	82.1368
2.43534	82.2972
2.43419	82.3494
2.43305	82.2963
2.43191	82.2532
2.43077	82.2837
2.42963	82.2908
2.42849	82.2598
2.42736	82.2297
2.42622	82.3037
2.42509	82.3218
2.42395	82.3232
2.42282	82.3278
2.42169	82.4069
2.42056	82.5428
2.41943	82.4432
2.4183	82.4929
2.41717	82.5511
2.41605	82.4491
2.41492	82.4296
2.4138	82.5576
2.41267	82.5786
2.41155	82.4037
2.41043	82.3203
2.40931	82.3808
2.40819	82.4237
2.40707	82.5131
2.40595	82.5335
2.40484	82.4827
2.40372	82.6112
2.40261	82.7087
2.4015	82.6507
2.40039	82.5652
2.39928	82.6071
2.39817	82.6266
2.39706	82.5557
2.39595	82.6151
2.39484	82.6742
2.39374	82.7127
2.39263	82.7674
2.39153	82.7722
2.39043	82.7684
2.38932	82.8279
2.38822	82.8289
2.38712	82.8384
2.38603	82.7469
2.38493	82.703
2.38383	82.7584
2.38274	82.7983
2.38164	82.7191
2.38055	82.6884
2.37946	82.7901
2.37836	82.858
2.37727	82.8705
2.37618	82.829
2.3751	82.8187
2.37401	82.9261
2.37292	82.924
2.37184	82.8367
2.37075	82.867
2.36967	82.9012
2.36859	82.8612
2.3675	82.7785
2.36642	82.8161
2.36534	83.0018
2.36427	83.0417
2.36319	82.9037
2.36211	82.8175
2.36104	82.807
2.35996	82.9125
2.35889	82.9693
2.35781	82.9158
2.35674	82.8876
2.35567	82.8919
2.3546	82.9487
2.35353	82.8902
2.35247	82.8578
2.3514	82.8535
2.35033	82.8557
2.34927	82.8623
2.3482	82.82
2.34714	82.7327
2.34608	82.8394
2.34502	82.8484
2.34396	82.7339
2.3429	82.8211
2.34184	82.8221
2.34078	82.7688
2.33973	82.7762
2.33867	82.8777
2.33762	82.8915
2.33656	82.9545
2.33551	83.0807
2.33446	83.1365
2.33341	83.1157
2.33236	83.0842
2.33131	82.9989
2.33026	82.9684
2.32922	83.0562
2.32817	83.103
2.32712	83.0927
2.32608	83.1131
2.32504	83.1838
2.324	83.1395
2.32295	83.0627
2.32191	83.1236
2.32087	83.1135
2.31984	83.0442
2.3188	83.0235
2.31776	83.0817
2.31673	83.1568
2.31569	83.1554
2.31466	83.0934
2.31362	83.0248
2.31259	83.0496
2.31156	83.0092
2.31053	82.9335
2.3095	82.92
2.30847	83.072
2.30745	83.1314
2.30642	83.1263
2.3054	83.0805
2.30437	83.057
2.30335	83.0405
2.30232	83.172
2.3013	83.3526
2.30028	83.2857
2.29926	83.2239
2.29824	83.3198
2.29722	83.4193
2.29621	83.4063
2.29519	83.324
2.29417	83.2874
2.29316	83.1435
2.29215	83.2271
2.29113	83.2846
2.29012	83.3469
2.28911	83.3641
2.2881	83.3182
2.28709	83.3806
2.28608	83.473
2.28507	83.4292
2.28407	83.4023
2.28306	83.3675
2.28206	83.3277
2.28105	83.435
2.28005	83.5757
2.27905	83.4427
2.27805	83.4125
2.27705	83.5849
2.27605	83.6825
2.27505	83.547
2.27405	83.3784
2.27305	83.443
2.27206	83.5534
2.27106	83.6347
2.27007	83.6545
2.26907	83.6316
2.26808	83.7012
2.26709	83.764
2.2661	83.6411
2.26511	83.5642
2.26412	83.6123
2.26313	83.6346
2.26214	83.782
2.26116	83.8108
2.26017	83.8365
2.25919	83.8421
2.2582	83.7238
2.25722	83.7344
2.25624	83.8321
2.25526	83.7608
2.25428	83.7779
2.2533	83.7809
2.25232	83.8814
2.25134	83.8249
2.25036	83.7037
2.24939	83.8034
2.24841	83.8938
2.24744	83.8345
2.24646	83.7439
2.24549	83.7693
2.24452	83.7415
2.24355	83.7895
2.24257	83.9513
2.24161	83.9997
2.24064	83.8984
2.23967	83.8438
2.2387	83.944
2.23774	84.0254
2.23677	84.0165
2.23581	83.8654
2.23484	83.7765
2.23388	83.855
2.23292	83.7948
2.23196	83.8709
2.231	83.9462
2.23004	83.887
2.22908	83.8866
2.22812	83.9066
2.22716	83.7909
2.22621	83.7172
2.22525	83.7699
2.2243	83.7281
2.22334	83.7147
2.22239	83.794
2.22144	83.8737
2.22049	83.8979
2.21953	83.8676
2.21859	83.817
2.21764	83.7619
2.21669	83.7865
2.21574	83.7741
2.21479	83.6787
2.21385	83.6603
2.2129	83.5935
2.21196	83.5861
2.21102	83.6889
2.21007	83.6419
2.20913	83.6181
2.20819	83.6512
2.20725	83.5853
2.20631	83.6248
2.20537	83.679
2.20444	83.6002
2.2035	83.503
2.20256	83.451
2.20163	83.5679
2.20069	83.5713
2.19976	83.6366
2.19883	83.7867
2.19789	83.7632
2.19696	83.7777
2.19603	83.7964
2.1951	83.7096
2.19417	83.6134
2.19325	83.6334
2.19232	83.6664
2.19139	83.7941
2.19047	83.9167
2.18954	83.8789
2.18862	83.8634
2.18769	83.8374
2.18677	83.97
2.18585	83.8592
2.18493	83.711
2.18401	83.8145
2.18309	83.8378
2.18217	83.8215
2.18125	83.7483
2.18033	83.7605
2.17942	83.8669
2.1785	84.0449
2.17759	84.1791
2.17667	84.0714
2.17576	84.0543
2.17485	84.0536
2.17393	83.9544
2.17302	83.9701
2.17211	84.078
2.1712	84.1377
2.17029	84.2171
2.16939	84.1979
2.16848	84.0591
2.16757	84.0162
2.16667	83.9835
2.16576	84.0953
2.16486	84.2152
2.16395	84.2236
2.16305	84.1915
2.16215	84.1993
2.16125	84.1612
2.16035	84.2699
2.15945	84.259
2.15855	84.1783
2.15765	84.2074
2.15675	84.2059
2.15586	84.1368
2.15496	84.1783
2.15406	84.2191
2.15317	84.0729
2.15228	83.9873
2.15138	83.9457
2.15049	84.0722
2.1496	84.1945
2.14871	84.1584
2.14782	84.1964
2.14693	84.2362
2.14604	84.0946
2.14515	83.9513
2.14427	84.09
2.14338	84.2593
2.14249	84.2767
2.14161	84.3548
2.14072	84.3357
2.13984	84.278
2.13896	84.218
2.13808	84.2158
2.13719	84.3118
2.13631	84.3162
2.13543	84.1357
2.13455	84.0755
2.13368	84.1294
2.1328	84.1369
2.13192	84.1819
2.13105	84.3513
2.13017	84.3347
2.1293	84.3008
2.12842	84.4909
2.12755	84.333
2.12668	84.1889
2.1258	84.2172
2.12493	84.1926
2.12406	84.2267
2.12319	84.3327
2.12232	84.3767
2.12145	84.4116
2.12059	84.4648
2.11972	84.397
2.11885	84.3137
2.11799	84.2186
2.11712	84.0387
2.11626	84.0816
2.1154	84.245
2.11453	84.1484
2.11367	84.2328
2.11281	84.6029
2.11195	84.5502
2.11109	84.3011
2.11023	84.1353
2.10937	84.1218
2.10851	84.2779
2.10766	84.3305
2.1068	84.2512
2.10594	84.2089
2.10509	84.2629
2.10423	84.2878
2.10338	84.2988
2.10253	84.2635
2.10168	84.313
2.10082	84.381
2.09997	84.3204
2.09912	84.4139
2.09827	84.4091
2.09742	84.4083
2.09658	84.302
2.09573	84.1631
2.09488	84.0637
2.09404	84.1672
2.09319	84.2524
2.09235	84.4011
2.0915	84.5552
2.09066	84.4022
2.08982	84.2385
2.08897	84.0606
2.08813	84.257
2.08729	84.4343
2.08645	84.34
2.08561	84.2261
2.08477	84.2449
2.08394	84.2913
2.0831	84.2631
2.08226	84.135
2.08143	84.0518
2.08059	84.1473
2.07976	84.3898
2.07892	84.3866
2.07809	84.2738
2.07726	84.2695
2.07643	84.3839
2.07559	84.4505
2.07476	84.4022
2.07393	84.2866
2.0731	83.9965
2.07228	84.04
2.07145	84.4524
2.07062	84.685
2.06979	84.8041
2.06897	84.3394
2.06814	84.2582
2.06732	84.2714
2.06649	84.0485
2.06567	84.1329
2.06485	84.1387
2.06403	84.2611
2.0632	84.385
2.06238	84.3682
2.06156	84.1972
2.06074	84.1102
2.05993	84.3561
2.05911	84.5003
2.05829	84.3876
2.05747	84.2235
2.05666	84.0859
2.05584	84.142
2.05503	84.2311
2.05421	84.2738
2.0534	84.2999
2.05259	84.388
2.05177	84.4869
2.05096	84.4354
2.05015	84.2155
2.04934	84.0728
2.04853	84.0864
2.04772	84.1511
2.04691	84.2911
2.04611	84.4853
2.0453	84.3661
2.04449	84.1195
2.04369	84.0753
2.04288	84.1687
2.04208	84.1908
2.04127	84.216
2.04047	84.1852
2.03967	84.1851
2.03886	84.283
2.03806	84.0911
2.03726	84.0663
2.03646	84.2365
2.03566	84.3783
2.03486	84.4204
2.03407	84.3649
2.03327	84.2123
2.03247	84.0696
2.03167	84.2293
2.03088	84.3646
2.03008	84.2304
2.02929	84.2009
2.0285	84.332
2.0277	84.3296
2.02691	84.1885
2.02612	84.295
2.02533	84.3746
2.02453	84.19
2.02374	84.1473
2.02295	84.2271
2.02217	84.2345
2.02138	84.2533
2.02059	84.2922
2.0198	84.2328
2.01902	84.2723
2.01823	84.2782
2.01744	84.3328
2.01666	84.2868
2.01588	84.2159
2.01509	84.1004
2.01431	84.0267
2.01353	84.0887
2.01275	84.0975
2.01196	84.0186
2.01118	84.0119
2.0104	84.065
2.00963	84.0952
2.00885	84.0364
2.00807	83.9782
2.00729	84.0269
2.00651	84.1155
2.00574	84.053
2.00496	84.1122
2.00419	84.0806
2.00341	83.9963
2.00264	84.0198
2.00187	84.1429
2.00109	84.2234
2.00032	84.0662
