Name: Siliceous Oolite
Type: Rock
Class: Sedimentary
Subclass: Siliceous
Particle Size: Solid surface
Sample No.: Ward77.txt
Owner: JPL
Wavelength range:  IR
Origin: Ward's Collection of American Rocks.  Sample locality - State College, Center County, Pennsylvania.
Collected by:  Ward's Natural Science
Description: A light gray rock consisting of small gray siliceous oolites
cemented by a light gray compact silica.
Geologic age - Cambrian.



Measurement: Hemispherical reflectance
First Column: X
Second Column: Y
X Units: Wavelength (micrometers)
Y Units: Reflectance (percent)
First X Value: 15.3871
Last X Value: 1.9998
Number of X Values: 2257
Additional information: None

15.3871   3.44308
15.3416   3.49562
15.2964   3.54059
15.2514   3.49280
15.2066   3.38341
15.1622   3.38200
15.1180   3.39080
15.0740   3.75637
15.0303   4.05115
14.9869   3.72624
14.9437   3.74202
14.9008   3.78590
14.8581   3.74797
14.8156   3.75255
14.7734   3.95670
14.7314   3.99296
14.6897   3.96968
14.6482   4.05997
14.6069   4.15721
14.5659   4.24328
14.5251   4.34155
14.4845   4.53432
14.4442   4.50415
14.4041   4.22219
14.3642   3.64693
14.3245   3.26585
14.2850   3.05811
14.2458   3.19870
14.2068   3.50736
14.1679   3.51306
14.1293   3.36587
14.0909   3.53825
14.0528   3.66878
14.0148   3.68956
13.9770   3.86720
13.9394   3.96081
13.9021   3.97169
13.8649   4.03242
13.8279   4.02824
13.7911   4.10377
13.7546   4.28660
13.7182   4.39285
13.6820   4.37654
13.6460   4.55845
13.6101   4.67690
13.5745   4.85686
13.5391   5.05440
13.5038   4.92512
13.4687   4.79741
13.4339   4.73044
13.3991   4.87394
13.3646   5.10122
13.3302   5.31900
13.2961   5.38198
13.2621   5.47181
13.2282   5.57289
13.1946   5.71155
13.1611   5.93363
13.1278   5.98824
13.0946   6.25615
13.0616   6.61803
13.0288   6.82890
12.9962   7.00209
12.9637   7.59518
12.9313   8.30884
12.8992   9.04704
12.8672   9.67417
12.8353   9.83832
12.8036   9.61083
12.7721   9.10567
12.7407   8.32154
12.7095   7.61897
12.6784   7.35370
12.6475   7.24162
12.6167   7.32762
12.5861   7.78642
12.5556   8.27096
12.5253   8.52348
12.4951   8.37371
12.4651   7.80270
12.4352   6.83676
12.4054   5.21728
12.3758   3.31910
12.3463   1.94897
12.3170   1.33344
12.2878   1.24850
12.2588   1.27269
12.2299   1.36641
12.2011   1.71681
12.1725   2.05911
12.1439   2.18483
12.1156   2.19972
12.0873   2.28274
12.0592   2.48064
12.0312   2.69289
12.0034   2.69028
11.9757   2.77157
11.9481   3.05572
11.9206   3.17378
11.8933   3.12014
11.8661   3.29848
11.8390   3.42887
11.8120   3.45053
11.7852   3.68881
11.7584   3.87295
11.7318   3.80266
11.7053   3.83135
11.6790   3.96839
11.6527   3.90771
11.6266   3.77508
11.6006   3.96879
11.5747   4.32471
11.5489   4.43861
11.5233   4.43694
11.4977   4.55275
11.4723   4.64732
11.4469   4.77227
11.4217   4.75427
11.3966   4.67585
11.3716   4.58454
11.3468   4.64760
11.3220   4.77669
11.2973   4.99399
11.2728   4.91680
11.2483   4.77997
11.2240   4.75247
11.1997   4.97612
11.1756   5.14672
11.1515   5.16142
11.1276   5.24886
11.1038   5.37594
11.0801   5.32946
11.0564   5.31812
11.0329   5.48734
11.0095   5.65629
10.9862   5.56249
10.9629   5.41167
10.9398   5.49847
10.9168   5.71334
10.8938   5.74333
10.8710   5.70615
10.8483   5.70380
10.8256   5.79533
10.8031   5.80267
10.7806   5.87083
10.7582   5.94188
10.7360   5.97500
10.7138   5.96124
10.6917   5.90514
10.6697   5.99257
10.6478   6.23860
10.6260   6.35384
10.6042   6.29055
10.5826   6.32657
10.5610   6.32357
10.5396   6.36507
10.5182   6.54966
10.4969   6.67892
10.4757   6.56452
10.4546   6.52577
10.4335   6.64544
10.4126   6.70090
10.3917   6.77039
10.3709   6.89780
10.3502   7.02576
10.3296   7.09309
10.3091   7.14688
10.2886   7.30223
10.2683   7.46107
10.2480   7.56940
10.2277   7.63008
10.2076   7.63679
10.1876   7.65709
10.1676   7.77058
10.1477   7.98547
10.1279   8.14464
10.1081   8.33476
10.0885   8.41388
10.0689   8.48846
10.0494   8.65514
10.0299   8.67807
10.0106   8.81016
 9.9913   8.95689
 9.9720   9.12594
 9.9529   9.38898
 9.9338   9.53653
 9.9148   9.51285
 9.8959   9.66286
 9.8771   9.88205
 9.8583  10.11100
 9.8396  10.28810
 9.8210  10.46800
 9.8024  10.68190
 9.7839  10.95640
 9.7655  11.22500
 9.7471  11.43100
 9.7288  11.65170
 9.7106  11.99870
 9.6925  12.34260
 9.6744  12.60500
 9.6564  12.94540
 9.6384  13.32230
 9.6205  13.62310
 9.6027  13.98180
 9.5850  14.35510
 9.5673  14.82830
 9.5497  15.49390
 9.5321  16.13080
 9.5146  16.77520
 9.4972  17.54760
 9.4798  18.45770
 9.4625  19.41540
 9.4453  20.62270
 9.4281  22.31850
 9.4110  24.27920
 9.3940  26.23860
 9.3770  28.17690
 9.3600  30.26570
 9.3432  32.26460
 9.3264  33.62520
 9.3096  34.51420
 9.2930  34.89150
 9.2763  34.88810
 9.2598  34.64240
 9.2432  34.23430
 9.2268  33.97840
 9.2104  33.68940
 9.1941  33.31600
 9.1778  32.92520
 9.1616  32.38800
 9.1454  31.98900
 9.1293  31.64420
 9.1133  31.34930
 9.0973  31.11940
 9.0814  30.76080
 9.0655  30.42280
 9.0497  30.03530
 9.0339  29.65490
 9.0182  29.33200
 9.0025  28.91960
 8.9870  28.61150
 8.9714  28.32960
 8.9559  28.10610
 8.9405  27.84760
 8.9251  27.46300
 8.9097  27.08730
 8.8945  26.92820
 8.8792  26.80210
 8.8641  26.45410
 8.8489  26.08080
 8.8338  26.00640
 8.8188  25.96940
 8.8039  25.76480
 8.7889  25.45680
 8.7741  25.24880
 8.7592  25.24840
 8.7445  25.39170
 8.7297  25.26440
 8.7151  25.02010
 8.7005  24.86580
 8.6859  24.40140
 8.6714  23.50270
 8.6569  22.20170
 8.6425  20.58630
 8.6281  19.77310
 8.6137  20.42800
 8.5994  22.00890
 8.5852  23.71210
 8.5710  25.00260
 8.5569  25.97500
 8.5428  26.81840
 8.5287  27.51920
 8.5147  28.07360
 8.5008  28.59530
 8.4869  28.97920
 8.4730  29.24360
 8.4592  29.67690
 8.4454  30.04810
 8.4316  30.39510
 8.4180  30.90960
 8.4043  31.38890
 8.3907  31.67240
 8.3772  32.10900
 8.3637  32.70550
 8.3502  33.33340
 8.3368  34.01430
 8.3234  34.49150
 8.3100  35.02530
 8.2967  35.57670
 8.2835  36.04480
 8.2703  36.67060
 8.2571  37.37840
 8.2440  38.00150
 8.2309  38.32750
 8.2179  38.49530
 8.2049  38.52690
 8.1919  38.48440
 8.1790  38.12440
 8.1661  37.31200
 8.1532  36.08310
 8.1404  34.63400
 8.1277  32.80560
 8.1150  30.96680
 8.1023  29.18330
 8.0897  27.24920
 8.0770  25.31000
 8.0645  23.61160
 8.0520  22.08640
 8.0395  20.61350
 8.0270  19.39360
 8.0146  18.15970
 8.0023  16.87640
 7.9899  15.67230
 7.9776  14.48670
 7.9654  13.39760
 7.9532  12.27680
 7.9410  11.14110
 7.9288  10.13010
 7.9167   9.25392
 7.9047   8.50244
 7.8926   7.79276
 7.8807   7.10561
 7.8687   6.47670
 7.8568   5.89117
 7.8449   5.41952
 7.8330   4.99558
 7.8212   4.69725
 7.8094   4.34599
 7.7977   4.04371
 7.7860   3.96863
 7.7743   3.91392
 7.7627   3.61036
 7.7511   3.33328
 7.7395   3.04233
 7.7280   2.75981
 7.7165   2.48038
 7.7050   2.34767
 7.6936   2.26145
 7.6822   2.05393
 7.6708   1.93614
 7.6595   1.81971
 7.6482   1.73153
 7.6369   1.65331
 7.6257   1.60480
 7.6145   1.55822
 7.6033   1.45668
 7.5922   1.29502
 7.5811   1.14410
 7.5700   1.14211
 7.5590   1.13706
 7.5480   1.04381
 7.5370   0.97487
 7.5261   0.93786
 7.5152   1.07108
 7.5043   1.27412
 7.4935   1.20967
 7.4826   1.11719
 7.4718   1.12084
 7.4611   1.07673
 7.4504   0.98373
 7.4397   0.96435
 7.4290   0.93249
 7.4184   0.93473
 7.4078   1.04153
 7.3972   1.08461
 7.3867   1.09212
 7.3762   1.05841
 7.3657   0.96260
 7.3553   0.96264
 7.3449   1.10991
 7.3345   1.12625
 7.3241   1.05145
 7.3138   1.11058
 7.3035   1.22693
 7.2932   1.15977
 7.2830   1.04066
 7.2727   1.06463
 7.2626   1.06816
 7.2524   1.06287
 7.2423   1.08371
 7.2322   1.19874
 7.2221   1.26435
 7.2120   1.24194
 7.2020   1.24307
 7.1921   1.25094
 7.1821   1.20710
 7.1722   1.21465
 7.1623   1.24531
 7.1524   1.28435
 7.1425   1.34195
 7.1327   1.39469
 7.1229   1.42254
 7.1131   1.47062
 7.1034   1.52288
 7.0937   1.51632
 7.0840   1.49446
 7.0743   1.53649
 7.0647   1.60698
 7.0551   1.67257
 7.0455   1.67955
 7.0359   1.70403
 7.0264   1.70849
 7.0169   1.71658
 7.0074   1.85018
 6.9979   1.99873
 6.9885   1.99626
 6.9791   1.99679
 6.9697   2.05343
 6.9604   2.10941
 6.9510   2.19302
 6.9417   2.22139
 6.9324   2.18669
 6.9232   2.16332
 6.9140   2.13242
 6.9047   2.03725
 6.8956   1.90833
 6.8864   1.85927
 6.8773   1.84570
 6.8682   1.97014
 6.8591   2.00313
 6.8500   1.85248
 6.8410   1.66706
 6.8320   1.68115
 6.8230   1.73101
 6.8140   1.71825
 6.8051   1.75732
 6.7962   1.77854
 6.7873   1.77199
 6.7784   1.70653
 6.7695   1.61149
 6.7607   1.57082
 6.7519   1.59950
 6.7431   1.60531
 6.7344   1.50240
 6.7256   1.44598
 6.7169   1.51282
 6.7082   1.49490
 6.6996   1.47803
 6.6909   1.44328
 6.6823   1.41315
 6.6737   1.39564
 6.6651   1.47612
 6.6566   1.54362
 6.6480   1.46381
 6.6395   1.39646
 6.6310   1.30493
 6.6226   1.25510
 6.6141   1.26054
 6.6057   1.36356
 6.5973   1.39274
 6.5889   1.36396
 6.5805   1.40957
 6.5722   1.39303
 6.5639   1.31518
 6.5556   1.27956
 6.5473   1.28802
 6.5390   1.34559
 6.5308   1.35529
 6.5226   1.45809
 6.5144   1.47884
 6.5062   1.44106
 6.4981   1.42100
 6.4900   1.47030
 6.4818   1.48341
 6.4737   1.47992
 6.4657   1.63182
 6.4576   1.70089
 6.4496   1.61897
 6.4416   1.58288
 6.4336   1.65336
 6.4256   1.62528
 6.4177   1.54782
 6.4097   1.49406
 6.4018   1.51300
 6.3939   1.48055
 6.3860   1.46675
 6.3782   1.45353
 6.3704   1.39522
 6.3625   1.48038
 6.3547   1.50690
 6.3470   1.45091
 6.3392   1.43095
 6.3315   1.46965
 6.3237   1.44393
 6.3160   1.40030
 6.3083   1.39705
 6.3007   1.33936
 6.2930   1.27856
 6.2854   1.22712
 6.2778   1.25907
 6.2702   1.28478
 6.2626   1.28043
 6.2551   1.24646
 6.2476   1.30071
 6.2400   1.31348
 6.2325   1.33965
 6.2251   1.35047
 6.2176   1.29615
 6.2101   1.26453
 6.2027   1.34158
 6.1953   1.40080
 6.1879   1.41308
 6.1805   1.40972
 6.1732   1.40704
 6.1658   1.32227
 6.1585   1.22350
 6.1512   1.28037
 6.1439   1.32130
 6.1367   1.35103
 6.1294   1.46124
 6.1222   1.44581
 6.1149   1.46651
 6.1077   1.45762
 6.1006   1.36354
 6.0934   1.38910
 6.0862   1.54853
 6.0791   1.61927
 6.0720   1.58317
 6.0649   1.55695
 6.0578   1.54882
 6.0507   1.60576
 6.0437   1.63220
 6.0366   1.57330
 6.0296   1.54418
 6.0226   1.45239
 6.0156   1.44004
 6.0087   1.55872
 6.0017   1.60196
 5.9948   1.63293
 5.9878   1.63715
 5.9809   1.56679
 5.9740   1.48609
 5.9672   1.48290
 5.9603   1.58215
 5.9535   1.62992
 5.9466   1.49598
 5.9398   1.48345
 5.9330   1.54076
 5.9262   1.48151
 5.9195   1.43288
 5.9127   1.44424
 5.9060   1.51131
 5.8993   1.51939
 5.8926   1.48861
 5.8859   1.53804
 5.8792   1.62972
 5.8726   1.64356
 5.8659   1.62471
 5.8593   1.68578
 5.8527   1.76547
 5.8461   1.77381
 5.8395   1.79752
 5.8329   1.87402
 5.8264   1.89378
 5.8198   1.85038
 5.8133   1.82168
 5.8068   1.75382
 5.8003   1.77591
 5.7938   1.87072
 5.7874   1.95302
 5.7809   2.03393
 5.7745   2.03705
 5.7680   2.10317
 5.7616   2.13085
 5.7552   2.10921
 5.7489   2.15440
 5.7425   2.15766
 5.7361   2.12449
 5.7298   2.16176
 5.7235   2.22816
 5.7172   2.27110
 5.7109   2.28636
 5.7046   2.28774
 5.6983   2.30544
 5.6921   2.35642
 5.6858   2.38459
 5.6796   2.28464
 5.6734   2.21410
 5.6672   2.10698
 5.6610   2.07408
 5.6548   2.08564
 5.6487   1.98674
 5.6425   1.97663
 5.6364   1.98661
 5.6303   1.95033
 5.6242   1.91663
 5.6181   1.93469
 5.6120   1.87708
 5.6059   1.79125
 5.5999   1.78043
 5.5938   1.73491
 5.5878   1.81983
 5.5818   1.94839
 5.5758   1.87897
 5.5698   1.76732
 5.5638   1.82197
 5.5578   1.87586
 5.5519   1.82038
 5.5460   1.83007
 5.5400   1.88102
 5.5341   1.85065
 5.5282   1.87118
 5.5223   1.93771
 5.5164   1.97950
 5.5106   1.98005
 5.5047   2.00609
 5.4989   2.09257
 5.4931   2.11279
 5.4873   2.10941
 5.4815   2.14862
 5.4757   2.14116
 5.4699   2.18593
 5.4641   2.28084
 5.4584   2.30296
 5.4527   2.37013
 5.4469   2.30816
 5.4412   2.23843
 5.4355   2.20769
 5.4298   2.22033
 5.4241   2.21808
 5.4185   2.09224
 5.4128   2.07062
 5.4072   2.08650
 5.4015   2.00264
 5.3959   1.93226
 5.3903   1.81810
 5.3847   1.80412
 5.3791   1.79481
 5.3735   1.75211
 5.3680   1.71387
 5.3624   1.78667
 5.3569   1.82454
 5.3514   1.72273
 5.3458   1.65653
 5.3403   1.64378
 5.3348   1.62291
 5.3294   1.64248
 5.3239   1.64873
 5.3184   1.69141
 5.3130   1.74090
 5.3075   1.81307
 5.3021   1.81186
 5.2967   1.80952
 5.2913   1.82468
 5.2859   1.79379
 5.2805   1.84353
 5.2751   1.86307
 5.2698   1.85871
 5.2644   1.88336
 5.2591   1.99271
 5.2538   1.98608
 5.2485   1.98739
 5.2431   2.10958
 5.2378   2.18432
 5.2326   2.19417
 5.2273   2.21187
 5.2220   2.20383
 5.2168   2.23558
 5.2115   2.38182
 5.2063   2.43224
 5.2011   2.45220
 5.1959   2.49678
 5.1907   2.51321
 5.1855   2.49712
 5.1803   2.45538
 5.1751   2.45173
 5.1700   2.38918
 5.1648   2.36876
 5.1597   2.41727
 5.1545   2.39555
 5.1494   2.39259
 5.1443   2.47254
 5.1392   2.44463
 5.1341   2.43434
 5.1291   2.41544
 5.1240   2.39399
 5.1189   2.48579
 5.1139   2.44364
 5.1088   2.33288
 5.1038   2.38975
 5.0988   2.40472
 5.0938   2.37554
 5.0888   2.41854
 5.0838   2.43927
 5.0788   2.39817
 5.0738   2.34215
 5.0689   2.34166
 5.0639   2.39965
 5.0590   2.39735
 5.0541   2.30924
 5.0491   2.27484
 5.0442   2.30159
 5.0393   2.33035
 5.0344   2.34853
 5.0296   2.34100
 5.0247   2.28153
 5.0198   2.25697
 5.0150   2.32685
 5.0101   2.35664
 5.0053   2.35124
 5.0004   2.42389
 4.9956   2.46124
 4.9908   2.42315
 4.9860   2.46930
 4.9812   2.48554
 4.9765   2.43776
 4.9717   2.39478
 4.9669   2.45097
 4.9622   2.64381
 4.9574   2.78074
 4.9527   2.72539
 4.9480   2.80021
 4.9432   2.90784
 4.9385   2.92112
 4.9338   2.86250
 4.9291   2.85389
 4.9245   2.91666
 4.9198   3.03379
 4.9151   3.16304
 4.9105   3.16849
 4.9058   3.27074
 4.9012   3.54314
 4.8966   3.85934
 4.8919   4.09493
 4.8873   4.21845
 4.8827   4.41204
 4.8781   4.66366
 4.8736   4.86687
 4.8690   5.05592
 4.8644   5.21757
 4.8599   5.38472
 4.8553   5.57986
 4.8508   5.74412
 4.8462   5.86514
 4.8417   5.95266
 4.8372   6.09132
 4.8327   6.24838
 4.8282   6.41037
 4.8237   6.51545
 4.8192   6.70603
 4.8147   6.90440
 4.8103   6.94074
 4.8058   6.99345
 4.8014   7.07443
 4.7969   7.12209
 4.7925   7.24241
 4.7881   7.47551
 4.7836   7.65938
 4.7792   7.69431
 4.7748   7.71814
 4.7704   7.80257
 4.7660   7.92748
 4.7617   7.99591
 4.7573   8.04351
 4.7530   8.10628
 4.7486   8.15071
 4.7443   8.18239
 4.7399   8.29033
 4.7356   8.38537
 4.7313   8.46635
 4.7270   8.47243
 4.7226   8.40629
 4.7184   8.38892
 4.7141   8.34170
 4.7098   8.21588
 4.7055   8.16236
 4.7012   7.99143
 4.6970   7.70856
 4.6927   7.52854
 4.6885   7.40038
 4.6842   7.28018
 4.6800   7.28870
 4.6758   7.45384
 4.6716   7.70956
 4.6674   7.90752
 4.6632   8.04107
 4.6590   8.16909
 4.6548   8.41107
 4.6506   8.69818
 4.6465   9.00672
 4.6423   9.26688
 4.6382   9.44800
 4.6340   9.61176
 4.6299   9.78506
 4.6258  10.01980
 4.6216  10.14200
 4.6175  10.26810
 4.6134  10.47300
 4.6093  10.58820
 4.6052  10.57340
 4.6011  10.60120
 4.5971  10.69430
 4.5930  10.72770
 4.5889  10.80760
 4.5849  10.77880
 4.5808  10.76140
 4.5768  10.89930
 4.5727  10.92130
 4.5687  10.93140
 4.5647  10.97190
 4.5607  10.82040
 4.5567  10.58100
 4.5526  10.43830
 4.5487  10.29570
 4.5447  10.06970
 4.5407   9.93451
 4.5367   9.72849
 4.5328   9.44738
 4.5288   9.15527
 4.5248   8.85554
 4.5209   8.51028
 4.5170   8.28209
 4.5130   8.11830
 4.5091   7.89864
 4.5052   7.68438
 4.5013   7.46102
 4.4974   7.26652
 4.4935   7.15803
 4.4896   7.06250
 4.4857   7.08261
 4.4818   7.01343
 4.4779   6.83818
 4.4741   6.81545
 4.4702   6.84204
 4.4664   6.87875
 4.4625   6.99908
 4.4587   7.07100
 4.4549   7.11222
 4.4510   7.19059
 4.4472   7.41292
 4.4434   7.52585
 4.4396   7.60646
 4.4358   7.64471
 4.4320   7.65246
 4.4282   7.67303
 4.4245   7.77749
 4.4207   7.96049
 4.4169   8.06838
 4.4132   8.28235
 4.4094   8.46031
 4.4057   8.45177
 4.4019   8.53571
 4.3982   8.73038
 4.3945   8.97005
 4.3907   9.11876
 4.3870   9.23724
 4.3833   9.45913
 4.3796   9.80715
 4.3759  10.03440
 4.3722  10.05730
 4.3685  10.23350
 4.3649  10.42700
 4.3612  10.58800
 4.3575  10.86230
 4.3539  11.00420
 4.3502  11.11070
 4.3466  11.14030
 4.3429  11.14370
 4.3393  11.23930
 4.3357  11.25980
 4.3320  11.29810
 4.3284  11.34700
 4.3248  11.31370
 4.3212  11.10740
 4.3176  10.94330
 4.3140  10.68680
 4.3105  10.44390
 4.3069  10.33940
 4.3033  10.14840
 4.2997   9.68069
 4.2962   9.48739
 4.2926   9.43364
 4.2890   9.28043
 4.2855   8.96987
 4.2820   8.76778
 4.2784   8.69656
 4.2749   8.58636
 4.2714   8.52774
 4.2679   8.54660
 4.2644   8.78101
 4.2609   9.23041
 4.2574   9.68106
 4.2539   9.76270
 4.2504   9.66591
 4.2469   9.55892
 4.2434   9.56068
 4.2400   9.66259
 4.2365   9.75987
 4.2330   9.95131
 4.2296  10.11890
 4.2261  10.34790
 4.2227  10.72910
 4.2193  11.13480
 4.2158  11.45960
 4.2124  11.76920
 4.2090  12.02050
 4.2056  12.16670
 4.2022  12.37880
 4.1988  12.61500
 4.1954  12.68340
 4.1920  12.77050
 4.1886  12.80940
 4.1852  12.91210
 4.1818  13.10160
 4.1785  13.24220
 4.1751  13.36350
 4.1717  13.43570
 4.1684  13.43400
 4.1650  13.52120
 4.1617  13.71030
 4.1584  13.91220
 4.1550  14.02330
 4.1517  14.06970
 4.1484  14.06700
 4.1451  14.12890
 4.1418  14.25160
 4.1384  14.42210
 4.1351  14.57440
 4.1319  14.64480
 4.1286  14.67540
 4.1253  14.72260
 4.1220  14.87250
 4.1187  14.91020
 4.1155  15.02430
 4.1122  15.17080
 4.1089  15.37400
 4.1057  15.48110
 4.1024  15.68930
 4.0992  15.86990
 4.0959  15.90390
 4.0927  15.95330
 4.0895  16.01260
 4.0863  16.19800
 4.0830  16.33910
 4.0798  16.39820
 4.0766  16.42880
 4.0734  16.39470
 4.0702  16.36740
 4.0670  16.35140
 4.0639  16.52120
 4.0607  16.55400
 4.0575  16.46970
 4.0543  16.57040
 4.0511  16.69180
 4.0480  16.65310
 4.0448  16.55300
 4.0417  16.45700
 4.0385  16.35730
 4.0354  16.39010
 4.0323  16.39850
 4.0291  16.30090
 4.0260  16.16490
 4.0229  16.04060
 4.0197  15.90090
 4.0166  15.72480
 4.0135  15.56210
 4.0104  15.50100
 4.0073  15.43320
 4.0042  15.18970
 4.0011  15.14470
 3.9981  15.10690
 3.9950  14.93590
 3.9919  14.68460
 3.9888  14.55020
 3.9857  14.34650
 3.9827  14.24310
 3.9796  14.34220
 3.9766  14.44490
 3.9735  14.60100
 3.9705  14.74320
 3.9675  14.77110
 3.9644  14.91750
 3.9614  15.12000
 3.9584  15.21220
 3.9554  15.39200
 3.9523  15.63930
 3.9493  15.90440
 3.9463  16.32990
 3.9433  16.71510
 3.9403  17.01570
 3.9373  17.13800
 3.9343  17.13680
 3.9314  17.21840
 3.9284  17.28060
 3.9254  17.34570
 3.9224  17.44070
 3.9195  17.51340
 3.9165  17.57890
 3.9136  17.58950
 3.9106  17.55970
 3.9077  17.57730
 3.9047  17.58060
 3.9018  17.54930
 3.8988  17.50100
 3.8959  17.39940
 3.8930  17.39890
 3.8901  17.47820
 3.8872  17.46040
 3.8842  17.42530
 3.8813  17.34160
 3.8784  17.18860
 3.8755  17.10630
 3.8726  17.02090
 3.8697  17.02880
 3.8669  17.10510
 3.8640  17.10150
 3.8611  17.03780
 3.8582  17.04680
 3.8554  17.04330
 3.8525  17.01250
 3.8496  17.15930
 3.8468  17.21470
 3.8439  17.09460
 3.8411  17.15960
 3.8382  17.44270
 3.8354  17.55070
 3.8326  17.49820
 3.8297  17.48170
 3.8269  17.63930
 3.8241  17.63330
 3.8213  17.63400
 3.8185  17.97050
 3.8157  18.09570
 3.8128  17.94480
 3.8100  17.99920
 3.8072  18.03300
 3.8045  17.96720
 3.8017  18.08490
 3.7989  18.15340
 3.7961  18.14450
 3.7933  18.05490
 3.7906  18.07440
 3.7878  18.12320
 3.7850  18.14450
 3.7822  18.20460
 3.7795  18.15120
 3.7767  18.03140
 3.7740  17.96110
 3.7713  17.84980
 3.7685  17.72310
 3.7658  17.69000
 3.7630  17.63890
 3.7603  17.57520
 3.7576  17.46700
 3.7549  17.45980
 3.7521  17.50570
 3.7494  17.53950
 3.7467  17.47470
 3.7440  17.31440
 3.7413  17.33130
 3.7386  17.39360
 3.7359  17.39760
 3.7332  17.42360
 3.7306  17.46280
 3.7279  17.55080
 3.7252  17.53330
 3.7225  17.50680
 3.7199  17.61670
 3.7172  17.71570
 3.7145  17.74740
 3.7119  17.86860
 3.7092  17.81590
 3.7066  17.65510
 3.7039  17.76680
 3.7013  17.95870
 3.6986  18.08060
 3.6960  18.24350
 3.6934  18.26170
 3.6907  18.24370
 3.6881  18.19040
 3.6855  18.22240
 3.6829  18.38530
 3.6803  18.56480
 3.6776  18.60310
 3.6750  18.56000
 3.6724  18.56470
 3.6698  18.54030
 3.6672  18.52530
 3.6646  18.58110
 3.6620  18.79040
 3.6595  18.83310
 3.6569  18.72430
 3.6543  18.79620
 3.6517  18.80980
 3.6492  18.63040
 3.6466  18.62630
 3.6440  18.62060
 3.6415  18.50250
 3.6389  18.50410
 3.6364  18.55150
 3.6338  18.45230
 3.6313  18.46630
 3.6287  18.53390
 3.6262  18.33570
 3.6237  18.22340
 3.6211  18.32960
 3.6186  18.26290
 3.6161  18.04430
 3.6136  18.01720
 3.6111  18.11350
 3.6085  18.24990
 3.6060  18.21490
 3.6035  17.96890
 3.6010  17.81220
 3.5985  17.89440
 3.5960  17.81380
 3.5935  17.83200
 3.5910  17.89800
 3.5886  17.75430
 3.5861  17.66000
 3.5836  17.51340
 3.5811  17.42790
 3.5787  17.41390
 3.5762  17.39370
 3.5737  17.48200
 3.5713  17.53790
 3.5688  17.53250
 3.5663  17.44060
 3.5639  17.38480
 3.5614  17.35040
 3.5590  17.39920
 3.5566  17.41580
 3.5541  17.25630
 3.5517  17.06850
 3.5493  17.08990
 3.5468  17.14290
 3.5444  17.09230
 3.5420  16.99000
 3.5396  16.79320
 3.5372  16.68000
 3.5347  16.72550
 3.5323  16.75150
 3.5299  16.75790
 3.5275  16.62880
 3.5251  16.40380
 3.5227  16.34190
 3.5203  16.29820
 3.5180  16.12360
 3.5156  16.03850
 3.5132  15.81110
 3.5108  15.67700
 3.5084  15.61660
 3.5061  15.34470
 3.5037  15.12550
 3.5013  15.09490
 3.4990  15.14010
 3.4966  15.05970
 3.4943  14.97080
 3.4919  14.87070
 3.4895  14.74840
 3.4872  14.68100
 3.4849  14.63930
 3.4825  14.35760
 3.4802  14.23090
 3.4778  14.45620
 3.4755  14.55120
 3.4732  14.56150
 3.4709  14.54790
 3.4685  14.40270
 3.4662  14.51210
 3.4639  14.54120
 3.4616  14.47770
 3.4593  14.42920
 3.4570  14.44730
 3.4547  14.32620
 3.4524  14.19060
 3.4501  14.25290
 3.4478  14.28680
 3.4455  14.22420
 3.4432  14.06660
 3.4409  13.91780
 3.4386  13.85680
 3.4364  13.92280
 3.4341  14.00970
 3.4318  13.78530
 3.4295  13.60060
 3.4273  13.53830
 3.4250  13.39950
 3.4228  13.28040
 3.4205  13.21110
 3.4182  13.14970
 3.4160  13.12080
 3.4137  13.09540
 3.4115  13.05660
 3.4093  13.05600
 3.4070  12.85430
 3.4048  12.57070
 3.4025  12.62470
 3.4003  12.71860
 3.3981  12.68990
 3.3958  12.72230
 3.3936  12.87530
 3.3914  12.76840
 3.3892  12.55820
 3.3870  12.48820
 3.3848  12.40760
 3.3826  12.33120
 3.3804  12.22360
 3.3782  12.09340
 3.3760  12.11850
 3.3738  11.96370
 3.3716  11.99100
 3.3694  12.16380
 3.3672  12.00200
 3.3650  11.95160
 3.3628  12.14970
 3.3606  11.90130
 3.3585  11.72060
 3.3563  11.58950
 3.3541  11.51520
 3.3520  11.67540
 3.3498  11.63870
 3.3476  11.35790
 3.3455  11.40670
 3.3433  11.49310
 3.3411  11.36400
 3.3390  11.41040
 3.3369  11.53120
 3.3347  11.66610
 3.3326  11.72570
 3.3304  11.70630
 3.3283  11.53670
 3.3262  11.34780
 3.3240  11.33560
 3.3219  11.26250
 3.3198  11.26820
 3.3176  11.25870
 3.3155  11.25690
 3.3134  10.93410
 3.3113  10.62050
 3.3092  10.74480
 3.3071  10.79220
 3.3049  10.85200
 3.3028  10.91770
 3.3007  10.85000
 3.2986  10.85000
 3.2965  10.69870
 3.2944  10.30250
 3.2924  10.11470
 3.2903  10.17540
 3.2882  10.19750
 3.2861  10.34670
 3.2840  10.40700
 3.2819  10.21620
 3.2799   9.99332
 3.2778   9.84147
 3.2757   9.83533
 3.2736   9.72243
 3.2716   9.82180
 3.2695   9.80540
 3.2675   9.69916
 3.2654   9.72184
 3.2634   9.79185
 3.2613   9.80566
 3.2593   9.72931
 3.2572   9.59952
 3.2552   9.37917
 3.2531   9.34298
 3.2511   9.47022
 3.2490   9.43509
 3.2470   9.13813
 3.2450   8.91611
 3.2429   9.08268
 3.2409   9.36454
 3.2389   9.18769
 3.2369   9.16392
 3.2348   9.09048
 3.2328   8.83015
 3.2308   8.77785
 3.2288   8.82173
 3.2268   8.76740
 3.2248   8.75772
 3.2228   8.47480
 3.2208   8.36202
 3.2188   8.57955
 3.2168   8.56602
 3.2148   8.37107
 3.2128   8.34597
 3.2108   8.40850
 3.2088   8.40341
 3.2068   8.37941
 3.2049   8.22606
 3.2029   8.22555
 3.2009   8.26901
 3.1989   8.26288
 3.1970   8.15944
 3.1950   8.07281
 3.1930   7.89783
 3.1911   7.71177
 3.1891   7.73296
 3.1871   7.98337
 3.1852   8.09178
 3.1832   8.13776
 3.1813   8.08202
 3.1793   7.91134
 3.1774   7.60376
 3.1754   7.31687
 3.1735   7.22121
 3.1715   7.40397
 3.1696   7.55451
 3.1677   7.30772
 3.1657   7.21810
 3.1638   6.94936
 3.1619   6.92601
 3.1599   7.36081
 3.1580   7.37741
 3.1561   7.15643
 3.1542   7.00145
 3.1523   6.96148
 3.1503   6.72951
 3.1484   6.69060
 3.1465   6.85266
 3.1446   6.76053
 3.1427   6.73722
 3.1408   6.90603
 3.1389   6.64025
 3.1370   6.71828
 3.1351   7.10665
 3.1332   6.63422
 3.1313   6.16494
 3.1294   6.34661
 3.1275   6.29665
 3.1257   6.47846
 3.1238   6.86956
 3.1219   6.98065
 3.1200   6.78686
 3.1181   6.40803
 3.1163   6.14618
 3.1144   6.27644
 3.1125   6.37037
 3.1107   6.21256
 3.1088   5.88602
 3.1069   6.18250
 3.1051   6.47925
 3.1032   6.30177
 3.1014   5.94467
 3.0995   5.97753
 3.0976   6.27893
 3.0958   6.11734
 3.0940   6.04089
 3.0921   5.92721
 3.0903   5.90249
 3.0884   6.25150
 3.0866   6.29825
 3.0848   6.04938
 3.0829   5.92684
 3.0811   6.08267
 3.0793   6.01152
 3.0774   5.84759
 3.0756   6.09613
 3.0738   6.27980
 3.0720   6.31372
 3.0701   5.91497
 3.0683   5.52072
 3.0665   5.57052
 3.0647   5.87142
 3.0629   6.01370
 3.0611   5.64116
 3.0593   5.97857
 3.0575   6.48316
 3.0557   6.33270
 3.0539   5.68851
 3.0521   5.73288
 3.0503   5.69226
 3.0485   5.92206
 3.0467   6.05764
 3.0449   5.40584
 3.0431   5.36678
 3.0413   5.88800
 3.0396   5.81772
 3.0378   5.46658
 3.0360   5.44616
 3.0342   5.40873
 3.0324   5.46910
 3.0307   5.87894
 3.0289   6.03697
 3.0271   5.74264
 3.0254   5.58283
 3.0236   5.50952
 3.0218   5.60616
 3.0201   5.67833
 3.0183   5.72349
 3.0166   5.60601
 3.0148   5.51204
 3.0130   5.36949
 3.0113   5.48548
 3.0096   5.70289
 3.0078   5.78261
 3.0061   5.57810
 3.0043   5.44363
 3.0026   5.52954
 3.0008   5.55026
 2.9991   5.44493
 2.9974   5.28484
 2.9956   5.29969
 2.9939   5.24465
 2.9922   5.42068
 2.9905   5.65807
 2.9887   5.57352
 2.9870   5.59012
 2.9853   5.66998
 2.9836   5.65849
 2.9819   5.90610
 2.9802   5.97807
 2.9784   5.45464
 2.9767   5.24080
 2.9750   5.40441
 2.9733   5.53641
 2.9716   5.44039
 2.9699   5.53603
 2.9682   5.60399
 2.9665   5.83779
 2.9648   5.67869
 2.9631   4.99858
 2.9614   4.95484
 2.9597   4.93309
 2.9581   4.77289
 2.9564   4.85989
 2.9547   4.95346
 2.9530   5.05615
 2.9513   5.01807
 2.9496   5.09977
 2.9480   5.27648
 2.9463   5.34038
 2.9446   5.44237
 2.9429   5.67381
 2.9413   5.55485
 2.9396   5.00330
 2.9379   5.09522
 2.9363   5.33369
 2.9346   5.55924
 2.9330   5.47482
 2.9313   5.02056
 2.9296   4.75914
 2.9280   4.89937
 2.9263   4.98932
 2.9247   5.60641
 2.9230   5.69391
 2.9214   5.23294
 2.9197   5.44188
 2.9181   5.79591
 2.9165   5.51210
 2.9148   4.88690
 2.9132   4.93135
 2.9116   5.47065
 2.9099   5.74775
 2.9083   5.34753
 2.9067   4.93458
 2.9050   5.01441
 2.9034   5.66853
 2.9018   5.56351
 2.9002   5.22716
 2.8985   5.16398
 2.8969   5.29852
 2.8953   5.46248
 2.8937   5.61840
 2.8921   5.98043
 2.8905   6.04287
 2.8888   5.88175
 2.8872   5.98930
 2.8856   5.86921
 2.8840   5.60288
 2.8824   5.52346
 2.8808   5.36684
 2.8792   5.51416
 2.8776   5.94513
 2.8760   6.31500
 2.8744   6.25583
 2.8728   5.85905
 2.8712   5.53614
 2.8697   5.57937
 2.8681   5.89972
 2.8665   6.04751
 2.8649   5.86385
 2.8633   5.72061
 2.8617   5.73946
 2.8602   5.79466
 2.8586   5.68476
 2.8570   5.59414
 2.8554   5.96327
 2.8539   6.51255
 2.8523   6.47863
 2.8507   6.31489
 2.8492   6.13792
 2.8476   6.15477
 2.8460   6.08599
 2.8445   5.92738
 2.8429   5.87917
 2.8413   5.93740
 2.8398   6.07798
 2.8382   6.34677
 2.8367   6.12403
 2.8351   5.98741
 2.8336   6.25047
 2.8320   6.41839
 2.8305   6.35110
 2.8289   6.30575
 2.8274   6.48826
 2.8259   6.53966
 2.8243   6.74371
 2.8228   6.76816
 2.8213   6.47183
 2.8197   6.59838
 2.8182   6.41187
 2.8167   6.03474
 2.8151   5.90394
 2.8136   6.10375
 2.8121   6.59920
 2.8106   6.57206
 2.8090   6.79466
 2.8075   7.23699
 2.8060   7.26598
 2.8045   7.28372
 2.8030   6.96420
 2.8014   7.17734
 2.7999   7.38195
 2.7984   7.09198
 2.7969   6.90392
 2.7954   6.47258
 2.7939   6.28176
 2.7924   7.12075
 2.7909   7.68617
 2.7894   7.27083
 2.7879   7.39545
 2.7864   7.70651
 2.7849   7.05580
 2.7834   7.47241
 2.7819   7.55905
 2.7804   7.69553
 2.7789   8.13675
 2.7774   8.84309
 2.7759   8.72696
 2.7745   7.92171
 2.7730   7.71771
 2.7715   8.01955
 2.7700   8.45042
 2.7685   8.35182
 2.7671   8.33062
 2.7656   8.32176
 2.7641   8.81483
 2.7626   8.98717
 2.7612   8.87246
 2.7597   8.97791
 2.7582   9.39158
 2.7568   9.60481
 2.7553   9.37541
 2.7538   9.34177
 2.7524   9.88739
 2.7509  10.13190
 2.7494  10.17000
 2.7480  10.58430
 2.7465  10.96670
 2.7451  10.91810
 2.7436  10.92750
 2.7422  11.43930
 2.7407  11.60310
 2.7393  11.39150
 2.7378  11.77590
 2.7364  12.77560
 2.7350  13.69510
 2.7335  13.96650
 2.7321  13.66890
 2.7306  13.75870
 2.7292  14.30960
 2.7278  15.20950
 2.7263  15.79280
 2.7249  16.08420
 2.7235  16.44340
 2.7220  17.10890
 2.7206  17.87100
 2.7192  18.06390
 2.7178  18.50150
 2.7163  18.78520
 2.7149  19.23380
 2.7135  19.58460
 2.7121  19.77550
 2.7106  19.98250
 2.7092  20.25070
 2.7078  20.41760
 2.7064  20.67890
 2.7050  21.12280
 2.7036  21.78960
 2.7022  22.53400
 2.7008  23.08990
 2.6994  23.69150
 2.6980  24.68890
 2.6965  25.81070
 2.6951  26.80240
 2.6938  27.32650
 2.6923  27.54820
 2.6910  28.29400
 2.6896  29.32580
 2.6882  29.79710
 2.6868  30.32260
 2.6854  30.64220
 2.6840  30.82960
 2.6826  31.38840
 2.6812  31.89880
 2.6798  32.27770
 2.6784  32.74170
 2.6771  33.42290
 2.6757  33.68390
 2.6743  33.66660
 2.6729  34.14100
 2.6715  35.25380
 2.6702  35.36770
 2.6688  35.04940
 2.6674  35.59500
 2.6660  35.82520
 2.6647  35.70440
 2.6633  35.36420
 2.6619  35.92790
 2.6606  36.32340
 2.6592  36.40490
 2.6578  36.44520
 2.6565  36.75020
 2.6551  36.96570
 2.6538  37.18230
 2.6524  37.11810
 2.6511  37.11240
 2.6497  37.42740
 2.6484  37.59530
 2.6470  37.93640
 2.6456  38.25890
 2.6443  38.05620
 2.6429  38.15270
 2.6416  38.10830
 2.6403  38.19710
 2.6389  38.45070
 2.6376  38.62840
 2.6362  38.59940
 2.6349  38.90050
 2.6336  39.38120
 2.6322  39.65230
 2.6309  40.04100
 2.6296  39.77280
 2.6282  39.58740
 2.6269  39.68070
 2.6256  39.59300
 2.6242  39.73450
 2.6229  39.90990
 2.6216  40.29480
 2.6203  40.62000
 2.6189  40.44230
 2.6176  40.65370
 2.6163  40.73640
 2.6150  40.66370
 2.6136  40.78100
 2.6123  40.78430
 2.6110  40.55110
 2.6097  40.60700
 2.6084  40.82230
 2.6071  41.00620
 2.6058  41.53740
 2.6044  41.55600
 2.6031  41.13060
 2.6018  40.76490
 2.6005  41.02830
 2.5992  41.19040
 2.5979  41.55820
 2.5966  42.43700
 2.5953  42.91830
 2.5940  42.31810
 2.5927  41.57030
 2.5914  41.33770
 2.5901  41.36940
 2.5888  41.77730
 2.5876  41.96680
 2.5863  41.23220
 2.5850  41.53300
 2.5837  42.05970
 2.5824  41.84560
 2.5811  41.47590
 2.5798  41.26200
 2.5785  41.93690
 2.5773  42.55070
 2.5760  42.18570
 2.5747  41.85240
 2.5734  41.61090
 2.5722  41.39680
 2.5709  41.83980
 2.5696  42.18490
 2.5683  42.05230
 2.5671  41.89740
 2.5658  41.85900
 2.5645  41.88080
 2.5633  42.30950
 2.5620  42.48750
 2.5607  42.14110
 2.5595  41.77500
 2.5582  41.56680
 2.5569  41.53840
 2.5557  41.56710
 2.5544  41.52410
 2.5532  42.00530
 2.5519  42.35500
 2.5507  42.00070
 2.5494  41.86280
 2.5481  41.91650
 2.5469  41.95080
 2.5456  41.67070
 2.5444  41.54410
 2.5431  41.69340
 2.5419  41.84660
 2.5406  41.74760
 2.5394  41.68680
 2.5382  42.05850
 2.5369  42.41950
 2.5357  42.43100
 2.5344  42.21700
 2.5332  41.97470
 2.5320  42.01780
 2.5307  42.25570
 2.5295  42.33760
 2.5283  42.08040
 2.5270  42.22630
 2.5258  42.21720
 2.5246  42.54250
 2.5233  42.50090
 2.5221  42.25150
 2.5209  42.23430
 2.5197  42.31810
 2.5184  42.37960
 2.5172  42.43500
 2.5160  42.48570
 2.5148  42.79300
 2.5136  42.93750
 2.5123  42.86600
 2.5111  42.87450
 2.5099  42.85290
 2.5087  42.73250
 2.5075  42.81340
 2.5063  42.93810
 2.5051  43.03250
 2.5038  42.83830
 2.5026  42.68940
 2.5014  42.76050
 2.5002  42.69100
 2.4990  43.13740
 2.4978  43.75400
 2.4966  43.72670
 2.4954  43.48930
 2.4942  43.41760
 2.4930  43.68880
 2.4918  43.76330
 2.4906  43.46380
 2.4894  43.64410
 2.4882  43.88490
 2.4870  43.63320
 2.4858  43.60930
 2.4846  43.93560
 2.4835  44.23030
 2.4823  44.22790
 2.4811  44.09900
 2.4799  44.25470
 2.4787  44.46980
 2.4775  44.47740
 2.4764  44.30030
 2.4752  44.09650
 2.4740  44.25310
 2.4728  44.96770
 2.4716  45.43430
 2.4705  45.26890
 2.4693  45.05090
 2.4681  45.29090
 2.4669  45.56720
 2.4657  45.21390
 2.4646  44.73640
 2.4634  44.77130
 2.4622  44.91220
 2.4611  45.35280
 2.4599  45.47350
 2.4587  45.43430
 2.4576  45.84460
 2.4564  46.31350
 2.4552  46.28560
 2.4541  46.31580
 2.4529  46.37090
 2.4518  46.11900
 2.4506  46.19610
 2.4494  46.51990
 2.4483  46.45670
 2.4471  46.09840
 2.4460  45.78110
 2.4448  46.27950
 2.4437  46.76770
 2.4425  46.85150
 2.4414  47.51740
 2.4402  47.64640
 2.4391  47.53460
 2.4379  47.23790
 2.4368  46.50900
 2.4356  46.67470
 2.4345  47.15060
 2.4333  47.54390
 2.4322  47.50130
 2.4311  47.47280
 2.4299  47.37830
 2.4288  47.54010
 2.4276  47.18200
 2.4265  47.27210
 2.4254  48.14670
 2.4242  48.02360
 2.4231  47.84100
 2.4220  48.22690
 2.4209  48.73670
 2.4197  48.23090
 2.4186  48.26410
 2.4175  48.05840
 2.4163  47.88130
 2.4152  47.90300
 2.4141  48.07120
 2.4130  49.03740
 2.4118  48.99650
 2.4107  48.76460
 2.4096  48.95730
 2.4085  48.82380
 2.4074  48.89120
 2.4063  49.15600
 2.4051  49.26720
 2.4040  49.10810
 2.4029  48.96120
 2.4018  48.94170
 2.4007  49.14080
 2.3996  49.28410
 2.3985  49.48000
 2.3973  49.65230
 2.3962  49.57130
 2.3951  49.45370
 2.3940  49.00010
 2.3929  48.88770
 2.3918  49.26290
 2.3907  50.08870
 2.3896  50.23140
 2.3885  49.97140
 2.3874  50.09480
 2.3863  50.50000
 2.3852  50.89210
 2.3841  50.65710
 2.3830  49.92030
 2.3819  49.71380
 2.3808  50.11230
 2.3798  50.51760
 2.3786  50.74910
 2.3776  50.73350
 2.3765  50.58770
 2.3754  50.94970
 2.3743  51.08650
 2.3732  50.60260
 2.3721  50.39620
 2.3710  49.99120
 2.3700  50.15230
 2.3689  50.71120
 2.3678  51.08180
 2.3667  51.03960
 2.3656  50.92570
 2.3645  51.02290
 2.3635  51.00770
 2.3624  50.95260
 2.3613  50.87580
 2.3603  51.01630
 2.3592  51.19420
 2.3581  50.96900
 2.3570  50.87730
 2.3560  50.94960
 2.3549  51.08790
 2.3538  51.10560
 2.3527  51.42590
 2.3517  52.28790
 2.3506  52.24460
 2.3495  51.35310
 2.3485  51.22970
 2.3474  51.30300
 2.3464  50.67500
 2.3453  50.60530
 2.3442  50.88920
 2.3432  51.45200
 2.3421  51.83640
 2.3411  51.78610
 2.3400  51.84770
 2.3390  51.75390
 2.3379  51.25100
 2.3369  51.46970
 2.3358  51.69330
 2.3347  51.30580
 2.3337  51.49150
 2.3326  52.35070
 2.3316  52.10850
 2.3306  51.86870
 2.3295  52.19630
 2.3285  51.98130
 2.3274  51.59420
 2.3264  51.36080
 2.3253  51.42870
 2.3243  51.59250
 2.3232  51.70320
 2.3222  51.68610
 2.3212  51.79870
 2.3201  52.07030
 2.3191  52.29130
 2.3180  52.34890
 2.3170  52.19320
 2.3160  51.71320
 2.3149  52.05440
 2.3139  52.10460
 2.3129  51.53750
 2.3118  51.78750
 2.3108  52.58430
 2.3098  52.71000
 2.3088  52.32220
 2.3077  52.46160
 2.3067  52.22140
 2.3057  52.00480
 2.3047  51.87840
 2.3036  51.53010
 2.3026  51.61600
 2.3016  51.75580
 2.3006  51.67180
 2.2995  51.98050
 2.2985  52.30890
 2.2975  52.00470
 2.2965  52.21940
 2.2955  52.60850
 2.2944  52.18820
 2.2934  51.99130
 2.2924  52.10400
 2.2914  52.50700
 2.2904  52.35120
 2.2894  52.00310
 2.2884  52.07700
 2.2874  52.26570
 2.2864  52.43520
 2.2854  52.45160
 2.2843  52.55360
 2.2833  52.53660
 2.2823  52.35960
 2.2813  52.18570
 2.2803  52.26690
 2.2793  52.05720
 2.2783  52.36930
 2.2773  52.82580
 2.2763  52.65180
 2.2753  52.87860
 2.2743  53.01600
 2.2733  52.93740
 2.2723  52.96720
 2.2713  52.58930
 2.2703  52.35990
 2.2694  52.10750
 2.2684  51.43230
 2.2674  51.58810
 2.2664  52.18760
 2.2654  52.40400
 2.2644  52.14760
 2.2634  52.18850
 2.2624  52.49490
 2.2614  52.29410
 2.2605  52.88760
 2.2595  52.81150
 2.2585  52.50990
 2.2575  53.40380
 2.2565  54.17650
 2.2555  53.42440
 2.2546  52.44410
 2.2536  52.27440
 2.2526  52.46070
 2.2516  52.48170
 2.2506  52.62770
 2.2497  52.52620
 2.2487  52.71290
 2.2477  53.05140
 2.2467  53.30460
 2.2458  53.15550
 2.2448  52.91610
 2.2438  53.04330
 2.2428  53.44910
 2.2419  52.47940
 2.2409  51.87480
 2.2399  52.04880
 2.2390  52.24410
 2.2380  52.58040
 2.2370  53.14110
 2.2361  53.07110
 2.2351  52.68200
 2.2342  52.39370
 2.2332  52.15010
 2.2322  52.17800
 2.2313  52.42860
 2.2303  52.33650
 2.2294  52.55220
 2.2284  52.78780
 2.2274  52.73520
 2.2265  52.89940
 2.2255  53.03870
 2.2246  52.94980
 2.2236  52.69070
 2.2227  52.10990
 2.2217  52.07860
 2.2208  52.58290
 2.2198  52.87380
 2.2189  53.35370
 2.2179  52.79500
 2.2170  52.00790
 2.2160  52.70480
 2.2151  53.42590
 2.2141  53.12660
 2.2132  52.65130
 2.2122  52.54310
 2.2113  52.45060
 2.2103  52.63960
 2.2094  52.59660
 2.2085  52.04600
 2.2075  52.02140
 2.2066  52.08370
 2.2056  51.94210
 2.2047  52.50340
 2.2038  52.57290
 2.2028  52.21370
 2.2019  52.67060
 2.2010  53.38840
 2.2000  53.40020
 2.1991  53.56380
 2.1982  53.88200
 2.1972  53.47560
 2.1963  53.44260
 2.1954  53.49410
 2.1944  53.34940
 2.1935  53.35900
 2.1926  53.10440
 2.1917  52.99150
 2.1907  53.38220
 2.1898  53.15150
 2.1889  53.33810
 2.1880  54.32470
 2.1870  54.13350
 2.1861  53.29890
 2.1852  53.68040
 2.1843  53.98490
 2.1833  53.37000
 2.1824  53.32360
 2.1815  53.86910
 2.1806  54.39420
 2.1797  54.22010
 2.1788  53.85430
 2.1778  54.38180
 2.1769  54.54710
 2.1760  54.17480
 2.1751  53.98430
 2.1742  53.79150
 2.1733  53.31450
 2.1724  53.32170
 2.1715  54.23710
 2.1706  54.56350
 2.1696  54.23750
 2.1687  54.45280
 2.1678  55.16180
 2.1669  54.81110
 2.1660  54.26800
 2.1651  54.41560
 2.1642  54.66910
 2.1633  55.02000
 2.1624  55.08940
 2.1615  54.92780
 2.1606  54.63780
 2.1597  54.60650
 2.1588  54.79860
 2.1579  54.94740
 2.1570  55.23670
 2.1561  54.90340
 2.1552  54.63600
 2.1543  54.80400
 2.1534  54.72600
 2.1525  54.97820
 2.1517  55.07100
 2.1507  54.84000
 2.1499  54.46880
 2.1490  54.79790
 2.1481  55.21300
 2.1472  55.28130
 2.1463  55.60880
 2.1454  55.63890
 2.1445  55.40100
 2.1436  54.73250
 2.1428  54.74470
 2.1419  55.46190
 2.1410  55.31020
 2.1401  54.65620
 2.1392  54.34500
 2.1383  54.07020
 2.1375  54.13280
 2.1366  54.45260
 2.1357  54.58800
 2.1348  54.79020
 2.1339  55.10810
 2.1331  55.41710
 2.1322  54.95870
 2.1313  53.95130
 2.1304  53.82270
 2.1296  54.87710
 2.1287  55.34420
 2.1278  54.83800
 2.1269  54.48730
 2.1261  54.55120
 2.1252  54.72230
 2.1243  54.31490
 2.1235  54.51500
 2.1226  54.98420
 2.1217  54.80630
 2.1208  55.08900
 2.1200  55.37810
 2.1191  55.43860
 2.1183  55.44450
 2.1174  54.71980
 2.1165  54.90020
 2.1157  55.06370
 2.1148  54.76550
 2.1139  55.04430
 2.1131  54.51230
 2.1122  54.42410
 2.1113  54.62680
 2.1105  54.13120
 2.1096  54.22080
 2.1088  54.14740
 2.1079  54.45540
 2.1071  54.90580
 2.1062  55.16370
 2.1054  55.09200
 2.1045  54.31440
 2.1036  53.55070
 2.1028  53.26540
 2.1019  53.46410
 2.1011  54.42590
 2.1002  55.23730
 2.0994  55.12610
 2.0985  54.50190
 2.0977  54.24110
 2.0968  55.03030
 2.0960  54.40760
 2.0951  53.65860
 2.0943  53.80590
 2.0934  53.66140
 2.0926  54.40800
 2.0918  55.17670
 2.0909  55.12590
 2.0901  55.12110
 2.0892  54.84240
 2.0884  53.74570
 2.0875  53.33350
 2.0867  53.73250
 2.0859  54.34440
 2.0850  55.26270
 2.0842  54.56360
 2.0833  53.44420
 2.0825  53.77440
 2.0817  54.81740
 2.0808  54.31610
 2.0800  53.54460
 2.0792  53.49730
 2.0783  54.53000
 2.0775  54.99390
 2.0767  55.52620
 2.0759  54.77970
 2.0750  54.32660
 2.0742  54.59060
 2.0734  54.37580
 2.0725  54.19780
 2.0717  54.35030
 2.0709  53.91370
 2.0701  54.24020
 2.0692  55.18060
 2.0684  55.60600
 2.0676  55.56470
 2.0667  53.68480
 2.0659  52.95600
 2.0651  53.59530
 2.0643  53.28920
 2.0635  53.52270
 2.0626  54.60900
 2.0618  55.08730
 2.0610  54.68080
 2.0602  53.26860
 2.0594  53.43250
 2.0585  53.32030
 2.0577  53.18160
 2.0569  53.00050
 2.0561  52.37410
 2.0553  51.71260
 2.0545  51.62130
 2.0537  51.00990
 2.0528  50.99930
 2.0520  52.96350
 2.0512  52.98580
 2.0504  50.87350
 2.0496  50.20800
 2.0488  52.52360
 2.0480  55.18930
 2.0472  54.30980
 2.0464  51.03510
 2.0456  51.29320
 2.0447  53.25410
 2.0439  53.18190
 2.0431  52.25400
 2.0423  52.17340
 2.0415  52.49640
 2.0407  52.92800
 2.0399  53.01520
 2.0391  52.48800
 2.0383  51.62950
 2.0375  53.12360
 2.0367  53.53610
 2.0359  52.40860
 2.0351  52.43160
 2.0343  52.75460
 2.0335  51.27920
 2.0327  51.70410
 2.0319  53.40270
 2.0311  52.43320
 2.0303  51.23730
 2.0295  51.88600
 2.0287  53.03200
 2.0280  53.13280
 2.0272  53.62750
 2.0264  53.84380
 2.0256  52.44360
 2.0248  52.56130
 2.0240  52.50430
 2.0232  53.01140
 2.0224  53.22930
 2.0216  51.40260
 2.0208  50.68190
 2.0200  51.90050
 2.0193  51.98860
 2.0185  51.45590
 2.0177  52.58780
 2.0169  53.40050
 2.0161  52.66190
 2.0153  53.00800
 2.0146  51.11060
 2.0138  50.25710
 2.0130  51.20990
 2.0122  51.89000
 2.0114  51.86720
 2.0107  50.51940
 2.0099  49.17620
 2.0091  49.53400
 2.0083  50.49230
 2.0075  51.08550
 2.0068  51.07270
 2.0060  51.24860
 2.0052  51.60570
 2.0044  52.08730
 2.0037  51.15040
 2.0029  50.45240
 2.0021  50.13010
 2.0013  50.10690
 2.0006  50.01400
 1.9998  50.50450
