Name: Microcline (Feldspar) (K,Na)AlSi_3O_8
Type: Mineral
Class: Silicates
Subclass: Tectosilicates
Particle Size: 0-45um
Sample No.: TS-17A
Owner: JPL
Wavelength range: IR
Origin: 
Collected by JPL
Description: 





Measurement: Hemispherical reflectance
First Column: X
Second Column: Y
X Units:  Wavelength (micrometers)
Y Units:  Reflectance (percent)
First X Value: 15.3853
Last X Value: 2.00032
Number of X Values: 2256
Additional information: ts17aa.txt
 
15.3853	3.40192
15.3397	3.47036
15.2945	3.52438
15.2495	3.59299
15.2048	3.7827
15.1603	4.04987
15.1161	4.23032
15.0722	4.59283
15.0285	4.84446
14.9851	5.10135
14.9419	5.29889
14.8989	5.60261
14.8563	5.81528
14.8138	6.10064
14.7716	6.25005
14.7296	6.27633
14.6879	6.41435
14.6464	6.70491
14.6052	6.72069
14.5641	6.76705
14.5233	6.87558
14.4828	6.72067
14.4424	6.58313
14.4023	6.40536
14.3624	6.2158
14.3227	6.05589
14.2833	5.84688
14.244	5.64417
14.205	5.35842
14.1662	5.35549
14.1276	5.22905
14.0892	4.78493
14.051	4.43062
14.0131	4.05576
13.9753	3.92461
13.9377	3.78958
13.9004	3.7504
13.8632	3.76528
13.8262	3.50525
13.7895	3.35047
13.7529	3.0986
13.7165	3.1017
13.6803	3.06335
13.6443	3.03848
13.6085	3.06865
13.5729	3.07407
13.5374	3.04357
13.5022	3.04512
13.4671	3.0335
13.4322	3.16525
13.3975	3.23241
13.363	3.40137
13.3286	3.55629
13.2944	3.62639
13.2604	3.67692
13.2266	3.74447
13.193	3.76646
13.1595	3.67028
13.1262	3.72363
13.093	3.75623
13.06	3.6452
13.0272	3.56243
12.9946	3.33898
12.9621	3.16134
12.9298	3.145
12.8976	2.96004
12.8656	2.77349
12.8337	2.7836
12.8021	2.66139
12.7705	2.55921
12.7391	2.62185
12.7079	2.94979
12.6769	3.28272
12.6459	3.54248
12.6152	3.73342
12.5845	4.13821
12.5541	4.67177
12.5238	5.24426
12.4936	5.74547
12.4635	6.25319
12.4337	6.79798
12.4039	7.53205
12.3743	8.12437
12.3448	8.57089
12.3155	9.13487
12.2863	9.86471
12.2573	10.4577
12.2284	11.0826
12.1996	11.7189
12.171	12.0828
12.1425	12.393
12.1141	12.6871
12.0859	12.8631
12.0578	13.1472
12.0298	13.3845
12.0019	13.5632
11.9742	13.7855
11.9466	13.9962
11.9192	14.1748
11.8918	14.3579
11.8646	14.4402
11.8375	14.463
11.8106	14.3784
11.7837	14.4086
11.757	14.6976
11.7304	14.9356
11.7039	14.9996
11.6776	15.0175
11.6513	14.9242
11.6252	14.7782
11.5992	14.5857
11.5733	14.4083
11.5475	14.2191
11.5219	13.9288
11.4963	13.5752
11.4709	13.2215
11.4455	12.909
11.4203	12.746
11.3952	12.7314
11.3702	12.7747
11.3454	12.8422
11.3206	12.9558
11.2959	12.9844
11.2714	13.1526
11.2469	13.3272
11.2226	13.2048
11.1983	13.0235
11.1742	12.9298
11.1502	12.6755
11.1263	12.292
11.1024	12.0381
11.0787	11.8179
11.0551	11.5526
11.0316	11.5256
11.0081	11.4572
10.9848	11.2587
10.9616	11.0321
10.9385	10.9779
10.9154	10.9472
10.8925	10.8593
10.8697	10.698
10.8469	10.5364
10.8243	10.3102
10.8017	10.1608
10.7793	10.1187
10.7569	9.95993
10.7346	9.75583
10.7125	9.61689
10.6904	9.46308
10.6684	9.28145
10.6465	9.15921
10.6247	9.01548
10.6029	8.80696
10.5813	8.72574
10.5597	8.66373
10.5383	8.45913
10.5169	8.25386
10.4956	8.06576
10.4744	7.77238
10.4533	7.56877
10.4323	7.53112
10.4113	7.51223
10.3904	7.32952
10.3697	7.18872
10.349	7.07228
10.3284	6.91552
10.3078	6.81527
10.2874	6.82358
10.267	6.86267
10.2467	6.81579
10.2265	6.82539
10.2064	6.85171
10.1863	6.92722
10.1663	6.96404
10.1464	6.93884
10.1266	7.20315
10.1069	7.47912
10.0872	7.58514
10.0676	7.59831
10.0481	7.72325
10.0287	7.96352
10.0093	8.1908
9.99005	8.30235
9.97084	8.21291
9.95169	8.23321
9.93263	8.28677
9.91364	8.36193
9.89472	8.53061
9.87587	8.7129
9.8571	8.72429
9.83839	8.63412
9.81976	8.47865
9.80119	8.41202
9.78271	8.39486
9.76428	8.26096
9.74592	8.16172
9.72764	8.12463
9.70943	8.0134
9.69128	8.0237
9.6732	7.93444
9.65518	7.84827
9.63724	7.89277
9.61935	7.94726
9.60155	7.89603
9.5838	7.94962
9.56611	8.12203
9.5485	8.2301
9.53094	8.23467
9.51345	8.277
9.49604	8.35149
9.47867	8.39184
9.46137	8.24042
9.44414	8.09866
9.42697	8.03671
9.40986	7.81902
9.39281	7.53
9.37583	7.61687
9.35891	7.80705
9.34204	7.88483
9.32524	8.03922
9.3085	8.24448
9.29182	8.30666
9.27519	8.35709
9.25863	8.37307
9.24213	8.38038
9.22568	8.42989
9.2093	8.4188
9.19297	8.29156
9.17669	8.22613
9.16048	8.08422
9.14433	7.92969
9.12823	7.71341
9.11218	7.54813
9.0962	7.37992
9.08027	7.0058
9.06439	6.71977
9.04858	6.63432
9.03281	6.45714
9.0171	6.24577
9.00145	6.17399
8.98585	6.2134
8.9703	6.26077
8.9548	6.40188
8.93937	6.59442
8.92398	6.64013
8.90865	6.65699
8.89337	6.78098
8.87814	6.90347
8.86296	6.98357
8.84784	7.00885
8.83277	7.03101
8.81774	7.1329
8.80277	7.32769
8.78786	7.58377
8.77298	7.80344
8.75816	7.86068
8.7434	7.88711
8.72868	8.07542
8.714	8.2512
8.69938	8.30622
8.68481	8.33392
8.67029	8.36471
8.65581	8.31926
8.64139	8.36165
8.62701	8.4916
8.61268	8.64683
8.5984	8.78147
8.58416	8.85805
8.56997	8.96645
8.55583	9.11739
8.54174	9.11009
8.52769	9.09598
8.51368	9.10496
8.49973	9.15523
8.48582	9.10998
8.47195	8.9967
8.45813	8.95402
8.44436	9.01467
8.43062	9.00896
8.41693	8.92237
8.4033	8.89834
8.3897	8.93153
8.37614	8.81601
8.36264	8.67497
8.34917	8.46811
8.33574	8.12232
8.32236	7.85373
8.30903	7.73189
8.29573	7.5594
8.28248	7.24643
8.26927	7.0261
8.2561	6.96084
8.24298	6.70363
8.2299	6.38069
8.21685	6.14278
8.20385	5.91939
8.19089	5.69835
8.17797	5.49533
8.16509	5.22935
8.15225	5.15662
8.13946	5.05071
8.1267	4.85524
8.11398	4.64354
8.10131	4.37495
8.08867	4.08696
8.07606	3.93727
8.0635	3.82624
8.05099	3.7542
8.0385	3.73509
8.02606	3.61829
8.01366	3.5801
8.00129	3.54121
7.98896	3.45392
7.97667	3.38315
7.96442	3.3822
7.9522	3.42886
7.94002	3.35674
7.92788	3.23191
7.91578	3.19865
7.90371	3.26848
7.89168	3.30378
7.87969	3.27381
7.86773	3.22426
7.85581	3.30126
7.84392	3.37233
7.83207	3.31103
7.82026	3.2073
7.80849	3.34172
7.79674	3.40229
7.78503	3.3502
7.77337	3.3771
7.76173	3.50763
7.75012	3.61272
7.73856	3.73184
7.72703	3.75223
7.71553	3.7738
7.70406	3.81732
7.69263	3.85832
7.68123	3.85715
7.66987	3.84466
7.65855	3.94231
7.64725	4.09329
7.63598	4.09698
7.62475	4.11775
7.61356	4.21918
7.60239	4.30833
7.59126	4.4159
7.58017	4.49142
7.5691	4.49661
7.55806	4.70619
7.54707	4.78888
7.5361	4.76422
7.52516	4.89398
7.51425	5.05709
7.50338	5.11062
7.49253	5.16231
7.48172	5.27859
7.47094	5.3663
7.46019	5.41763
7.44947	5.45064
7.43879	5.5144
7.42813	5.53047
7.4175	5.61864
7.4069	5.70863
7.39634	5.71297
7.3858	5.74892
7.37529	5.86406
7.36482	5.92404
7.35437	6.03177
7.34396	6.05134
7.33357	5.94677
7.32321	5.89745
7.31288	5.9466
7.30258	6.02627
7.29231	6.04314
7.28207	6.09105
7.27185	6.10694
7.26167	6.1033
7.25152	6.1666
7.24139	6.2275
7.23129	6.2543
7.22122	6.26458
7.21117	6.37866
7.20116	6.43446
7.19117	6.38974
7.18121	6.45205
7.17128	6.59693
7.16137	6.63376
7.1515	6.65673
7.14164	6.80832
7.13182	6.91318
7.12203	7.03427
7.11225	7.21116
7.10251	7.36397
7.0928	7.47522
7.08311	7.50547
7.07344	7.43611
7.06381	7.46911
7.0542	7.61681
7.04461	7.69034
7.03506	7.57206
7.02552	7.57075
7.01601	7.51705
7.00653	7.45347
6.99708	7.5069
6.98765	7.48476
6.97824	7.37931
6.96886	7.39285
6.95951	7.47852
6.95018	7.35731
6.94087	7.28818
6.9316	7.28347
6.92234	7.36216
6.91311	7.42854
6.90391	7.43722
6.89473	7.4979
6.88557	7.52631
6.87644	7.53267
6.86733	7.69501
6.85824	7.72576
6.84918	7.63216
6.84015	7.70075
6.83114	7.87287
6.82215	7.91738
6.81319	7.82418
6.80424	7.86166
6.79532	8.09009
6.78643	8.16916
6.77756	8.126
6.76871	8.20655
6.75989	8.25149
6.75109	8.36916
6.74231	8.56645
6.73355	8.7651
6.72482	8.92023
6.71611	9.09659
6.70742	9.26671
6.69875	9.3898
6.69011	9.63411
6.68149	9.94159
6.67289	10.0528
6.66431	10.1239
6.65576	10.1979
6.64722	10.5668
6.63871	11.116
6.63022	11.1571
6.62175	11.124
6.61331	11.3625
6.60488	11.5821
6.59648	11.8772
6.5881	12.1373
6.57974	12.4955
6.5714	12.8586
6.56308	12.941
6.55478	13.1202
6.54651	13.2088
6.53825	13.3175
6.53001	13.6071
6.5218	13.9945
6.51361	14.1713
6.50544	14.3165
6.49729	14.7659
6.48915	15.0278
6.48104	15.0239
6.47295	15.0549
6.46488	15.1346
6.45683	15.1812
6.4488	15.236
6.44079	15.2799
6.4328	15.3592
6.42482	15.5891
6.41687	15.9846
6.40894	15.7353
6.40103	15.1845
6.39314	15.0365
6.38526	15.0298
6.37741	15.0006
6.36957	14.9325
6.36176	14.7265
6.35396	14.6819
6.34618	14.8629
6.33843	14.608
6.33069	14.2617
6.32297	14.1361
6.31527	14.0477
6.30758	13.9883
6.29992	14.0115
6.29227	14.0145
6.28465	13.92
6.27704	13.8001
6.26945	13.7403
6.26188	13.7545
6.25432	13.7316
6.24679	13.7323
6.23927	13.6928
6.23177	13.7024
6.22429	13.7736
6.21683	13.7792
6.20938	13.698
6.20195	13.6991
6.19454	13.9263
6.18715	14.2794
6.17978	14.2361
6.17242	14.1886
6.16508	14.4625
6.15776	14.6548
6.15045	14.6601
6.14317	14.8239
6.1359	14.9849
6.12864	15.0672
6.12141	15.4085
6.11419	15.8143
6.10699	15.7979
6.0998	15.8081
6.09263	15.9959
6.08549	16.1781
6.07835	16.4688
6.07123	16.7934
6.06413	16.7684
6.05705	17.0373
6.04998	17.6882
6.04293	17.5677
6.0359	17.3125
6.02888	17.3287
6.02187	17.4584
6.01489	17.7034
6.00792	17.7698
6.00096	17.7492
5.99403	17.9148
5.98711	18.0653
5.9802	18.0523
5.97331	18.1643
5.96644	18.1573
5.95958	17.9242
5.95274	17.9443
5.94591	18.1317
5.9391	18.4507
5.9323	18.3573
5.92552	18.0743
5.91876	17.9533
5.91201	17.8921
5.90528	18.0311
5.89856	18.3501
5.89186	18.3385
5.88517	18.5445
5.8785	18.6421
5.87184	18.2387
5.8652	18.2278
5.85857	18.2314
5.85196	18.2449
5.84536	18.2745
5.83878	18.3223
5.83221	18.4447
5.82566	18.6199
5.81912	18.5272
5.81259	18.1792
5.80608	18.007
5.79959	18.0055
5.79311	17.9669
5.78665	17.929
5.78019	17.9566
5.77376	17.9813
5.76734	18.0975
5.76093	17.8619
5.75453	17.6765
5.74815	17.7298
5.74179	17.6831
5.73543	17.6296
5.7291	17.5211
5.72277	17.5353
5.71646	17.6018
5.71017	17.6208
5.70389	17.3974
5.69762	17.2374
5.69136	17.1206
5.68513	16.9561
5.6789	16.9452
5.67268	16.8867
5.66648	16.6859
5.6603	16.6365
5.65413	16.6478
5.64797	16.6578
5.64182	16.7503
5.63569	16.642
5.62957	16.6289
5.62347	16.8411
5.61737	17.0561
5.61129	17.1905
5.60522	17.2848
5.59917	17.3253
5.59313	17.2014
5.5871	16.9407
5.58109	16.7708
5.57509	16.6865
5.5691	16.5888
5.56312	16.6376
5.55716	16.8889
5.55121	17.3331
5.54528	17.8621
5.53935	18.4435
5.53344	19.0784
5.52754	19.723
5.52166	20.2918
5.51578	20.7354
5.50992	21.1692
5.50407	21.5645
5.49823	21.9217
5.49241	22.2429
5.4866	22.5051
5.4808	22.7948
5.47501	22.9476
5.46923	23.1157
5.46347	23.2845
5.45772	23.2862
5.45198	23.3832
5.44625	23.5737
5.44054	23.7139
5.43484	23.8477
5.42914	24.1008
5.42347	24.4218
5.4178	24.5141
5.41214	24.5471
5.4065	24.7087
5.40087	24.8461
5.39525	24.9387
5.38964	24.8882
5.38404	24.9029
5.37846	24.9629
5.37288	25.0157
5.36732	25.1408
5.36177	25.2459
5.35623	25.3988
5.35071	25.633
5.34519	25.7263
5.33968	25.8206
5.33419	26.0325
5.32871	26.1918
5.32324	26.378
5.31778	26.5849
5.31233	26.7966
5.30689	27.0106
5.30147	27.1301
5.29605	27.4632
5.29065	27.8449
5.28525	27.9465
5.27987	28.1501
5.2745	28.4545
5.26914	28.6854
5.26379	28.8193
5.25845	29.0643
5.25312	29.2765
5.24781	29.4485
5.2425	29.7151
5.23721	29.9923
5.23192	30.3019
5.22665	30.7246
5.22138	31.144
5.21613	31.6472
5.21089	32.1217
5.20566	32.5476
5.20044	33.0406
5.19522	33.451
5.19002	33.8053
5.18483	34.2499
5.17965	34.7246
5.17448	35.0963
5.16933	35.4279
5.16418	35.802
5.15904	36.1588
5.15391	36.5552
5.14879	37.0102
5.14368	37.3739
5.13859	37.7727
5.1335	38.1909
5.12842	38.5951
5.12335	39.0316
5.1183	39.455
5.11325	39.9328
5.10821	40.3068
5.10318	40.6899
5.09817	41.0696
5.09316	41.4823
5.08816	41.9093
5.08317	42.2767
5.07819	42.4846
5.07322	42.6854
5.06826	42.835
5.06331	42.9211
5.05837	42.9637
5.05344	42.9195
5.04852	42.9026
5.04361	42.9674
5.03871	43.1676
5.03382	43.4637
5.02894	43.7469
5.02406	44.0402
5.0192	44.2934
5.01435	44.4548
5.0095	44.6427
5.00467	44.819
4.99984	45.0094
4.99502	45.1575
4.99021	45.3156
4.98542	45.5578
4.98063	45.7807
4.97585	45.9744
4.97108	46.1505
4.96632	46.2198
4.96156	46.2434
4.95682	46.2529
4.95209	46.133
4.94736	45.9594
4.94264	45.8554
4.93794	45.8081
4.93324	45.7793
4.92855	45.8255
4.92387	45.8792
4.9192	45.9043
4.91453	45.9696
4.90988	46.0818
4.90524	46.2295
4.9006	46.5176
4.89597	46.8551
4.89135	47.1532
4.88674	47.4637
4.88214	47.7957
4.87755	48.1169
4.87296	48.3498
4.86839	48.4921
4.86382	48.6332
4.85926	48.7651
4.85471	48.8069
4.85017	48.8586
4.84564	48.9569
4.84111	49.003
4.8366	49.0138
4.83209	49.0394
4.82759	49.0232
4.8231	48.9641
4.81862	48.8745
4.81415	48.7582
4.80968	48.6886
4.80522	48.5754
4.80077	48.4766
4.79633	48.4424
4.7919	48.3691
4.78747	48.2661
4.78306	48.2459
4.77865	48.2092
4.77425	48.2915
4.76986	48.371
4.76547	48.4558
4.7611	48.591
4.75673	48.6665
4.75237	48.7641
4.74802	49.0204
4.74367	49.2658
4.73934	49.3991
4.73501	49.4299
4.73069	49.3946
4.72638	49.3871
4.72207	49.3188
4.71777	49.2007
4.71348	49.1206
4.7092	49.0257
4.70493	48.9012
4.70066	48.715
4.69641	48.5819
4.69216	48.5867
4.68791	48.6122
4.68368	48.5543
4.67945	48.5609
4.67523	48.6341
4.67102	48.7081
4.66682	48.7398
4.66262	48.8591
4.65843	49.0499
4.65425	49.1811
4.65007	49.3058
4.64591	49.4969
4.64175	49.7519
4.6376	50.0242
4.63345	50.2794
4.62932	50.5612
4.62519	50.8458
4.62106	51.1153
4.61695	51.3217
4.61284	51.5535
4.60874	51.7885
4.60465	51.9825
4.60056	52.1363
4.59648	52.3803
4.59241	52.6181
4.58835	52.7752
4.58429	53.0287
4.58024	53.2443
4.5762	53.4611
4.57216	53.698
4.56814	53.9564
4.56411	54.2662
4.5601	54.6045
4.55609	54.9347
4.55209	55.3212
4.5481	55.6264
4.54411	55.8266
4.54013	56.113
4.53616	56.3784
4.5322	56.6674
4.52824	56.8951
4.52429	57.0974
4.52034	57.3363
4.51641	57.6429
4.51247	57.9036
4.50855	58.0454
4.50463	58.1815
4.50072	58.3898
4.49682	58.6368
4.49292	58.8917
4.48903	59.0688
4.48515	59.2724
4.48127	59.5353
4.4774	59.8124
4.47354	60.0197
4.46968	60.2762
4.46584	60.5191
4.46199	60.7643
4.45815	61.0241
4.45432	61.2772
4.4505	61.5061
4.44668	61.7498
4.44287	61.9915
4.43907	62.1672
4.43527	62.3382
4.43148	62.497
4.4277	62.6086
4.42392	62.7737
4.42015	62.9347
4.41638	63.1227
4.41262	63.3386
4.40887	63.5838
4.40513	63.7175
4.40139	63.8938
4.39765	64.1221
4.39393	64.2909
4.39021	64.4394
4.38649	64.659
4.38278	64.8862
4.37908	65.0184
4.37539	65.1977
4.3717	65.435
4.36801	65.6196
4.36434	65.7959
4.36067	66.0061
4.357	66.1877
4.35335	66.286
4.34969	66.3919
4.34605	66.5587
4.34241	66.7265
4.33877	66.8637
4.33514	67.0745
4.33152	67.3056
4.32791	67.4549
4.3243	67.5716
4.32069	67.723
4.3171	67.8026
4.31351	67.8278
4.30992	67.8708
4.30634	68.0006
4.30277	68.1475
4.2992	68.2382
4.29564	68.2302
4.29208	68.2725
4.28853	68.4108
4.28499	68.5166
4.28145	68.55
4.27792	68.5462
4.27439	68.534
4.27087	68.5565
4.26735	68.609
4.26384	68.7749
4.26034	69.0241
4.25684	69.2441
4.25335	69.4116
4.24986	69.5535
4.24638	69.6333
4.24291	69.7438
4.23944	69.854
4.23598	70.0004
4.23252	70.1597
4.22906	70.3484
4.22562	70.5091
4.22218	70.6818
4.21874	70.8152
4.21531	70.9963
4.21189	71.1491
4.20847	71.2662
4.20506	71.3223
4.20165	71.3853
4.19825	71.4601
4.19485	71.515
4.19146	71.563
4.18807	71.662
4.18469	71.7142
4.18132	71.7401
4.17795	71.7959
4.17458	71.9124
4.17123	71.9508
4.16787	71.9225
4.16453	71.8205
4.16118	71.863
4.15785	71.961
4.15451	72.0221
4.15119	72.0484
4.14787	72.0287
4.14455	72.0073
4.14124	72.0403
4.13794	72.0686
4.13464	72.0315
4.13134	72.0329
4.12805	72.0342
4.12477	72.0594
4.12149	72.0426
4.11822	72.0043
4.11495	72.0126
4.11168	72.0128
4.10843	72.0308
4.10517	72.0177
4.10192	71.9756
4.09868	71.8889
4.09545	71.8701
4.09221	71.8615
4.08899	71.8251
4.08576	71.7623
4.08255	71.6972
4.07933	71.6194
4.07613	71.5341
4.07292	71.5014
4.06973	71.4166
4.06654	71.2644
4.06335	71.1306
4.06017	71.0047
4.05699	70.9291
4.05382	70.7273
4.05065	70.4601
4.04749	70.1016
4.04433	69.7328
4.04118	69.2589
4.03803	68.6904
4.03489	68.1557
4.03175	67.6234
4.02862	67.0712
4.02549	66.5099
4.02237	65.9357
4.01925	65.4114
4.01614	64.9582
4.01303	64.3717
4.00993	63.546
4.00683	62.658
4.00373	61.7663
4.00064	60.8058
3.99756	59.8949
3.99448	59.0121
3.9914	58.1859
3.98833	57.454
3.98527	56.933
3.98221	56.6934
3.97915	56.6133
3.9761	56.6286
3.97305	56.7405
3.97001	56.8884
3.96697	57.04
3.96394	57.3932
3.96091	57.8829
3.95789	58.4751
3.95487	59.1307
3.95186	59.8652
3.94885	60.6522
3.94584	61.4764
3.94284	62.2528
3.93984	62.954
3.93685	63.4916
3.93386	63.7908
3.93088	63.974
3.9279	64.2128
3.92493	64.411
3.92196	64.5455
3.919	64.6712
3.91604	64.8146
3.91308	65.0058
3.91013	65.2001
3.90718	65.3137
3.90424	65.464
3.9013	65.6532
3.89837	65.7353
3.89544	65.7888
3.89252	65.868
3.8896	65.9193
3.88668	65.8916
3.88377	65.9263
3.88086	66.0159
3.87796	66.1363
3.87506	66.1767
3.87217	66.1759
3.86928	66.2728
3.86639	66.396
3.86351	66.4208
3.86064	66.4879
3.85776	66.6059
3.8549	66.7236
3.85203	66.8697
3.84917	67.0272
3.84631	67.2031
3.84346	67.373
3.84062	67.5367
3.83777	67.6978
3.83494	67.9523
3.8321	68.2784
3.82927	68.5273
3.82644	68.7819
3.82362	69.1059
3.82081	69.4119
3.81799	69.6465
3.81518	69.8249
3.81238	70.032
3.80958	70.2805
3.80678	70.6034
3.80399	70.9081
3.8012	71.1411
3.79841	71.4215
3.79563	71.6818
3.79286	71.9424
3.79008	72.1842
3.78731	72.3659
3.78455	72.5033
3.78179	72.6176
3.77903	72.7296
3.77628	72.8446
3.77353	72.9725
3.77079	73.0551
3.76805	73.0659
3.76531	73.1128
3.76258	73.1441
3.75985	73.1598
3.75713	73.2053
3.7544	73.2045
3.75169	73.2038
3.74898	73.2861
3.74627	73.3189
3.74356	73.3126
3.74086	73.2414
3.73816	73.2567
3.73547	73.2419
3.73278	73.2317
3.7301	73.3091
3.72741	73.364
3.72474	73.3174
3.72206	73.25
3.71939	73.2553
3.71673	73.2133
3.71406	73.2201
3.71141	73.2889
3.70875	73.2344
3.7061	73.2602
3.70345	73.2641
3.70081	73.1937
3.69817	73.1271
3.69553	73.1068
3.6929	73.0573
3.69027	73.065
3.68765	73.0952
3.68503	73.0617
3.68241	73.0203
3.6798	73.0061
3.67719	73.0408
3.67458	73.0644
3.67198	73.0107
3.66938	72.9301
3.66678	72.894
3.66419	72.9237
3.66161	72.9502
3.65902	72.8807
3.65644	72.8376
3.65387	72.8164
3.65129	72.755
3.64872	72.7669
3.64616	72.726
3.64359	72.7032
3.64103	72.6537
3.63848	72.5969
3.63593	72.5618
3.63338	72.556
3.63084	72.5453
3.6283	72.4802
3.62576	72.3999
3.62322	72.3609
3.62069	72.3718
3.61817	72.3293
3.61564	72.1997
3.61312	72.1495
3.61061	72.1741
3.6081	72.1604
3.60559	72.1065
3.60308	72.022
3.60058	71.933
3.59808	71.8815
3.59558	71.8085
3.59309	71.7171
3.59061	71.6279
3.58812	71.5517
3.58564	71.4648
3.58316	71.2794
3.58069	71.1365
3.57822	71.01
3.57575	70.9103
3.57328	70.8162
3.57082	70.7414
3.56836	70.6685
3.56591	70.5923
3.56346	70.4974
3.56101	70.4747
3.55857	70.3622
3.55613	70.1912
3.55369	70.0811
3.55126	69.9928
3.54883	69.8235
3.5464	69.699
3.54397	69.5424
3.54155	69.3128
3.53914	69.0748
3.53672	68.8785
3.53431	68.6597
3.5319	68.3162
3.5295	67.8739
3.5271	67.406
3.5247	66.9107
3.52231	66.2623
3.51991	65.6184
3.51753	65.0248
3.51514	64.462
3.51276	63.9604
3.51038	63.4535
3.50801	62.9893
3.50563	62.6649
3.50327	62.3543
3.5009	62.0874
3.49854	61.8897
3.49618	61.6679
3.49382	61.5233
3.49147	61.303
3.48912	61.0223
3.48677	60.7417
3.48443	60.4737
3.48209	60.302
3.47975	60.2076
3.47742	60.1707
3.47509	60.256
3.47276	60.4512
3.47044	60.8054
3.46812	61.3012
3.4658	61.856
3.46348	62.316
3.46117	62.5789
3.45886	62.6746
3.45656	62.695
3.45425	62.7285
3.45195	62.7315
3.44966	62.6672
3.44736	62.6271
3.44507	62.5867
3.44279	62.5452
3.4405	62.4566
3.43822	62.3616
3.43594	62.2312
3.43367	62.1545
3.43139	62.0476
3.42912	61.8741
3.42686	61.6778
3.42459	61.5123
3.42233	61.3272
3.42007	61.139
3.41782	61.0376
3.41557	60.9549
3.41332	60.9432
3.41108	61.058
3.40883	61.0439
3.40659	61.0219
3.40435	61.0823
3.40212	61.0934
3.39989	61.0842
3.39766	61.2056
3.39544	61.2707
3.39322	61.2768
3.391	61.25
3.38878	61.2217
3.38657	61.0349
3.38436	60.8165
3.38215	60.83
3.37994	60.7908
3.37774	60.6429
3.37554	60.5558
3.37335	60.5124
3.37115	60.4971
3.36896	60.4517
3.36678	60.4227
3.36459	60.4648
3.36241	60.3628
3.36023	60.1834
3.35805	60.117
3.35588	60.0189
3.35371	59.8195
3.35154	59.7201
3.34938	59.7294
3.34721	59.869
3.34505	60.2417
3.3429	60.8626
3.34074	61.4743
3.33859	61.9188
3.33644	62.2432
3.3343	62.5212
3.33215	62.7964
3.33001	62.8895
3.32788	62.8812
3.32574	62.9186
3.32361	62.9168
3.32148	62.8932
3.31936	62.8823
3.31723	62.877
3.31511	62.8008
3.31299	62.7666
3.31088	62.7314
3.30876	62.6087
3.30665	62.5432
3.30455	62.569
3.30244	62.5873
3.30034	62.5409
3.29824	62.5071
3.29614	62.4636
3.29405	62.4556
3.29196	62.4342
3.28987	62.3811
3.28778	62.2758
3.2857	62.1385
3.28362	62.0596
3.28154	61.9876
3.27946	61.9002
3.27739	61.8045
3.27532	61.6376
3.27325	61.548
3.27119	61.562
3.26913	61.4575
3.26707	61.3677
3.26501	61.2879
3.26295	61.1831
3.2609	61.1334
3.25885	61.0016
3.2568	60.8941
3.25476	60.8147
3.25272	60.6932
3.25068	60.5343
3.24864	60.4938
3.24661	60.4516
3.24458	60.3752
3.24255	60.3025
3.24052	60.2238
3.2385	60.1327
3.23648	60.013
3.23446	59.8612
3.23244	59.8115
3.23043	59.7916
3.22841	59.6316
3.2264	59.4984
3.2244	59.4275
3.22239	59.2588
3.22039	59.1805
3.21839	59.197
3.2164	59.033
3.2144	58.8693
3.21241	58.7986
3.21042	58.7584
3.20844	58.6028
3.20645	58.5133
3.20447	58.4008
3.20249	58.2322
3.20051	58.0571
3.19854	57.9872
3.19657	57.9379
3.1946	57.7406
3.19263	57.648
3.19067	57.6033
3.1887	57.4762
3.18674	57.3698
3.18479	57.2844
3.18283	57.1443
3.18088	57.0208
3.17893	56.8716
3.17698	56.7046
3.17504	56.4868
3.17309	56.3781
3.17115	56.3543
3.16921	56.1706
3.16728	56.0333
3.16534	55.9772
3.16341	55.8646
3.16148	55.7135
3.15956	55.6187
3.15763	55.4422
3.15571	55.2782
3.15379	55.1816
3.15187	55.0967
3.14996	54.9103
3.14805	54.7688
3.14614	54.717
3.14423	54.5984
3.14232	54.4936
3.14042	54.346
3.13852	54.2136
3.13662	54.0804
3.13472	53.9149
3.13283	53.8364
3.13094	53.785
3.12905	53.6957
3.12716	53.5491
3.12528	53.3829
3.12339	53.284
3.12151	53.1299
3.11964	53.073
3.11776	53.0225
3.11589	52.8382
3.11401	52.6963
3.11214	52.6342
3.11028	52.5404
3.10841	52.3999
3.10655	52.3137
3.10469	52.2588
3.10283	52.1474
3.10098	51.9937
3.09912	51.9507
3.09727	51.86
3.09542	51.7248
3.09358	51.6794
3.09173	51.6179
3.08989	51.4673
3.08805	51.312
3.08621	51.2414
3.08437	51.1922
3.08254	51.137
3.08071	51.1034
3.07888	51.065
3.07705	50.8535
3.07523	50.7
3.0734	50.6331
3.07158	50.5515
3.06977	50.4983
3.06795	50.5309
3.06613	50.4629
3.06432	50.3243
3.06251	50.2782
3.0607	50.2395
3.0589	50.1983
3.0571	50.1235
3.05529	50.0492
3.05349	49.8778
3.0517	49.7279
3.0499	49.6492
3.04811	49.6468
3.04632	49.6064
3.04453	49.4684
3.04274	49.3631
3.04096	49.2414
3.03918	49.1498
3.0374	49.03
3.03562	48.9513
3.03384	48.8952
3.03207	48.7515
3.03029	48.6334
3.02852	48.5188
3.02676	48.3087
3.02499	48.1888
3.02323	48.1578
3.02146	48.004
3.0197	47.844
3.01795	47.678
3.01619	47.4737
3.01444	47.3689
3.01269	47.3141
3.01094	47.2614
3.00919	47.2019
3.00744	47.1519
3.0057	47.013
3.00396	46.9057
3.00222	46.8015
3.00048	46.638
2.99875	46.6191
2.99701	46.6267
2.99528	46.5402
2.99355	46.5186
2.99183	46.4592
2.9901	46.3508
2.98838	46.2615
2.98666	46.1687
2.98494	46.12
2.98322	46.0799
2.9815	45.894
2.97979	45.7607
2.97808	45.7807
2.97637	45.7689
2.97466	45.7834
2.97295	45.752
2.97125	45.7175
2.96955	45.7046
2.96785	45.6084
2.96615	45.5154
2.96446	45.5208
2.96276	45.5391
2.96107	45.5284
2.95938	45.4438
2.95769	45.3257
2.95601	45.2849
2.95432	45.2565
2.95264	45.2336
2.95096	45.324
2.94928	45.3355
2.9476	45.2139
2.94593	45.165
2.94425	45.18
2.94258	45.1741
2.94092	45.1289
2.93925	45.0988
2.93758	45.1438
2.93592	45.0801
2.93426	45.0228
2.9326	45.0589
2.93094	45.0691
2.92928	45.0142
2.92763	45.0259
2.92598	45.123
2.92433	45.0548
2.92268	44.9626
2.92103	44.9888
2.91939	45.0308
2.91775	45.0488
2.9161	45.0089
2.91447	44.9716
2.91283	44.983
2.91119	45.0483
2.90956	45.1534
2.90793	45.1282
2.9063	45.1273
2.90467	45.2004
2.90304	45.2826
2.90142	45.3494
2.89979	45.3133
2.89817	45.3548
2.89656	45.4191
2.89494	45.4776
2.89332	45.5009
2.89171	45.4403
2.8901	45.5013
2.88849	45.6235
2.88688	45.7113
2.88527	45.8407
2.88367	45.9834
2.88206	46.0949
2.88046	46.1375
2.87886	46.2486
2.87727	46.3911
2.87567	46.4768
2.87408	46.4903
2.87248	46.5565
2.87089	46.6905
2.8693	46.7624
2.86772	46.8536
2.86613	46.8988
2.86455	46.9651
2.86297	47.0729
2.86139	47.2852
2.85981	47.4781
2.85823	47.4305
2.85666	47.4012
2.85508	47.5165
2.85351	47.5665
2.85194	47.7171
2.85038	47.8853
2.84881	47.9262
2.84724	47.9716
2.84568	47.8485
2.84412	47.7936
2.84256	48.1035
2.841	48.3097
2.83945	48.2616
2.83789	48.3783
2.83634	48.5444
2.83479	48.6496
2.83324	48.7224
2.83169	48.7553
2.83015	48.7958
2.82861	48.9154
2.82706	48.8591
2.82552	48.8707
2.82398	48.9731
2.82245	49.0314
2.82091	49.1472
2.81938	49.1684
2.81784	48.9848
2.81631	48.9524
2.81479	49.0908
2.81326	49.045
2.81173	48.9187
2.81021	48.9145
2.80869	48.8269
2.80716	48.6649
2.80565	48.6343
2.80413	48.6583
2.80261	48.6306
2.8011	48.2842
2.79959	47.8251
2.79808	47.6163
2.79657	47.2643
2.79506	46.9022
2.79355	46.5653
2.79205	46.0058
2.79055	45.4645
2.78904	45.2008
2.78754	44.8145
2.78605	44.0551
2.78455	43.3591
2.78306	42.7263
2.78156	41.9439
2.78007	41.0772
2.77858	40.2536
2.77709	39.5006
2.77561	38.5198
2.77412	37.774
2.77264	37.3753
2.77116	36.7962
2.76968	36.0017
2.7682	35.302
2.76672	34.6391
2.76524	33.8501
2.76377	33.0512
2.7623	32.5254
2.76083	32.3142
2.75936	32.4393
2.75789	32.5964
2.75642	32.9452
2.75496	33.1839
2.7535	33.0051
2.75203	33.2844
2.75057	33.8286
2.74912	34.2457
2.74766	34.546
2.7462	34.8789
2.74475	35.1426
2.7433	35.5501
2.74185	36.2197
2.7404	36.8381
2.73895	37.0838
2.7375	37.2205
2.73606	37.7454
2.73462	38.399
2.73318	38.8144
2.73174	39.4586
2.7303	40.2545
2.72886	41.0652
2.72742	42.0082
2.72599	43.4528
2.72456	45.0616
2.72313	46.2773
2.7217	47.9966
2.72027	50.0175
2.71884	51.1876
2.71742	52.463
2.71599	53.7866
2.71457	55.0665
2.71315	56.2815
2.71173	57.6463
2.71032	58.3316
2.7089	58.0992
2.70748	57.7248
2.70607	57.5628
2.70466	57.8058
2.70325	58.8467
2.70184	60.6882
2.70043	62.6791
2.69903	64.4847
2.69762	66.327
2.69622	68.0515
2.69482	69.5629
2.69342	70.4679
2.69202	70.8151
2.69062	71.4002
2.68923	72.1917
2.68783	72.909
2.68644	73.398
2.68505	73.8294
2.68366	74.2448
2.68227	74.3933
2.68089	74.7696
2.6795	75.6237
2.67812	76.0853
2.67673	76.3311
2.67535	76.089
2.67397	75.9097
2.6726	76.2596
2.67122	77.4797
2.66984	77.9201
2.66847	77.5298
2.6671	78.1946
2.66572	78.5274
2.66435	78.1401
2.66299	77.5151
2.66162	77.5958
2.66025	77.7878
2.65889	77.8324
2.65753	77.7206
2.65616	77.9882
2.65481	78.0982
2.65345	78.2638
2.65209	78.3426
2.65073	78.0654
2.64938	77.9513
2.64803	78.0784
2.64667	78.343
2.64532	78.529
2.64397	78.3883
2.64263	78.4351
2.64128	78.484
2.63994	78.3687
2.63859	78.2845
2.63725	78.3491
2.63591	78.4758
2.63457	78.6807
2.63323	78.6224
2.6319	78.9861
2.63056	79.6299
2.62923	79.1381
2.62789	78.9724
2.62656	79.3036
2.62523	78.8527
2.6239	78.5911
2.62258	78.6518
2.62125	79.261
2.61993	79.515
2.6186	79.1868
2.61728	79.4836
2.61596	79.2436
2.61464	78.7569
2.61332	78.8143
2.61201	78.725
2.61069	78.9108
2.60938	79.041
2.60807	79.0497
2.60675	79.4661
2.60544	79.9664
2.60414	79.6506
2.60283	79.3449
2.60152	79.1395
2.60022	78.8672
2.59891	78.8134
2.59761	79.2067
2.59631	80.1427
2.59501	81.1778
2.59371	80.3995
2.59242	79.4366
2.59112	79.2472
2.58983	79.3476
2.58853	79.5473
2.58724	79.6635
2.58595	79.5346
2.58466	79.9709
2.58338	80.0712
2.58209	79.6095
2.5808	79.5204
2.57952	79.3737
2.57824	79.4581
2.57695	79.6371
2.57567	79.4202
2.5744	79.5577
2.57312	79.7848
2.57184	79.4407
2.57057	79.6515
2.56929	79.7438
2.56802	79.3342
2.56675	79.1929
2.56548	79.5144
2.56421	79.8153
2.56294	79.8964
2.56168	79.9587
2.56041	79.7101
2.55915	79.4065
2.55789	79.3501
2.55662	79.3101
2.55536	79.3314
2.5541	79.436
2.55285	79.5435
2.55159	79.4194
2.55034	79.2627
2.54908	79.1955
2.54783	79.2343
2.54658	79.2049
2.54533	79.161
2.54408	79.1809
2.54283	79.2355
2.54159	79.0938
2.54034	79.0142
2.5391	79.033
2.53785	79.118
2.53661	79.2575
2.53537	79.1708
2.53413	79.065
2.53289	79.176
2.53166	79.1153
2.53042	78.9861
2.52919	78.9239
2.52795	78.9332
2.52672	79.0239
2.52549	79.0115
2.52426	79.0377
2.52303	79.014
2.52181	79.0045
2.52058	79.0901
2.51936	79.1466
2.51813	79.233
2.51691	79.2352
2.51569	79.1612
2.51447	79.1349
2.51325	79.1312
2.51203	79.1165
2.51082	79.099
2.5096	79.0474
2.50839	79.0087
2.50717	79.0036
2.50596	78.9848
2.50475	78.972
2.50354	78.9612
2.50233	78.9455
2.50113	78.9217
2.49992	78.9618
2.49872	78.9949
2.49751	79.0355
2.49631	78.9773
2.49511	78.8748
2.49391	78.8694
2.49271	78.8243
2.49151	78.8048
2.49031	78.8825
2.48912	78.9281
2.48792	78.9223
2.48673	78.9209
2.48554	78.9345
2.48435	78.9292
2.48316	78.9209
2.48197	78.9958
2.48078	79.0021
2.4796	78.9487
2.47841	78.9608
2.47723	78.9377
2.47604	79.0114
2.47486	79.0731
2.47368	79.0327
2.4725	78.9917
2.47132	79.0024
2.47014	78.9386
2.46897	78.9021
2.46779	78.92
2.46662	78.9406
2.46545	79.0161
2.46427	79.0824
2.4631	79.0199
2.46193	78.9708
2.46077	78.9988
2.4596	79.0268
2.45843	78.978
2.45727	78.885
2.4561	78.9088
2.45494	78.9154
2.45378	78.9544
2.45262	78.9249
2.45146	78.8604
2.4503	78.9037
2.44914	78.9692
2.44799	78.9888
2.44683	78.9347
2.44568	78.9429
2.44452	78.9059
2.44337	78.8512
2.44222	78.8899
2.44107	78.9276
2.43992	78.8846
2.43877	78.9118
2.43763	78.9003
2.43648	78.802
2.43534	78.8042
2.43419	78.9374
2.43305	78.9937
2.43191	78.9575
2.43077	79.0168
2.42963	79.0754
2.42849	79.1333
2.42736	79.2155
2.42622	79.2803
2.42509	79.2161
2.42395	79.1706
2.42282	79.247
2.42169	79.3591
2.42056	79.4822
2.41943	79.462
2.4183	79.4748
2.41717	79.6068
2.41605	79.7349
2.41492	79.7156
2.4138	79.6845
2.41267	79.7326
2.41155	79.7165
2.41043	79.8004
2.40931	79.8857
2.40819	79.8752
2.40707	79.8545
2.40595	79.9807
2.40484	80.0687
2.40372	80.0909
2.40261	80.0551
2.4015	80.1176
2.40039	80.2468
2.39928	80.2312
2.39817	80.2276
2.39706	80.2186
2.39595	80.2435
2.39484	80.1895
2.39374	80.1544
2.39263	80.1704
2.39153	80.1228
2.39043	80.1865
2.38932	80.2017
2.38822	80.1475
2.38712	80.2274
2.38603	80.2966
2.38493	80.2693
2.38383	80.281
2.38274	80.2487
2.38164	80.2135
2.38055	80.2301
2.37946	80.3716
2.37836	80.3903
2.37727	80.3296
2.37618	80.3584
2.3751	80.3252
2.37401	80.3143
2.37292	80.3751
2.37184	80.3957
2.37075	80.2434
2.36967	80.1022
2.36859	80.2017
2.3675	80.3808
2.36642	80.3592
2.36534	80.3249
2.36427	80.3872
2.36319	80.3348
2.36211	80.2143
2.36104	80.1341
2.35996	80.1143
2.35889	80.0736
2.35781	79.9932
2.35674	79.9892
2.35567	80.0808
2.3546	79.9955
2.35353	79.8233
2.35247	79.8785
2.3514	79.8542
2.35033	79.7445
2.34927	79.7945
2.3482	79.8565
2.34714	79.818
2.34608	79.8224
2.34502	79.8355
2.34396	79.7838
2.3429	79.7949
2.34184	79.8615
2.34078	79.9347
2.33973	79.8801
2.33867	79.888
2.33762	79.9526
2.33656	79.9789
2.33551	80.0935
2.33446	80.1233
2.33341	80.1024
2.33236	80.17
2.33131	80.2452
2.33026	80.2244
2.32922	80.1844
2.32817	80.2284
2.32712	80.4208
2.32608	80.4104
2.32504	80.3681
2.324	80.4375
2.32295	80.4764
2.32191	80.5277
2.32087	80.5247
2.31984	80.5683
2.3188	80.7154
2.31776	80.8062
2.31673	80.8543
2.31569	80.9257
2.31466	80.9162
2.31362	80.8645
2.31259	80.8744
2.31156	80.9674
2.31053	81.0937
2.3095	81.0876
2.30847	81.0256
2.30745	80.9767
2.30642	81.0503
2.3054	81.3043
2.30437	81.386
2.30335	81.2269
2.30232	81.135
2.3013	81.0795
2.30028	81.0951
2.29926	81.0907
2.29824	81.2103
2.29722	81.3837
2.29621	81.3617
2.29519	81.4217
2.29417	81.5371
2.29316	81.48
2.29215	81.5248
2.29113	81.5484
2.29012	81.5563
2.28911	81.4966
2.2881	81.4271
2.28709	81.4217
2.28608	81.5607
2.28507	81.6575
2.28407	81.5738
2.28306	81.4828
2.28206	81.4265
2.28105	81.4928
2.28005	81.6581
2.27905	81.7901
2.27805	81.6491
2.27705	81.6116
2.27605	81.7041
2.27505	81.7143
2.27405	81.6688
2.27305	81.6386
2.27206	81.6036
2.27106	81.5947
2.27007	81.7169
2.26907	81.6855
2.26808	81.5922
2.26709	81.6306
2.2661	81.7357
2.26511	81.7815
2.26412	81.7432
2.26313	81.6227
2.26214	81.6015
2.26116	81.5888
2.26017	81.6187
2.25919	81.607
2.2582	81.524
2.25722	81.4441
2.25624	81.486
2.25526	81.6357
2.25428	81.5822
2.2533	81.4426
2.25232	81.5538
2.25134	81.6971
2.25036	81.6192
2.24939	81.5095
2.24841	81.455
2.24744	81.5582
2.24646	81.6519
2.24549	81.6061
2.24452	81.4785
2.24355	81.4285
2.24257	81.4461
2.24161	81.5336
2.24064	81.5516
2.23967	81.5433
2.2387	81.5109
2.23774	81.5037
2.23677	81.4062
2.23581	81.4673
2.23484	81.4882
2.23388	81.4195
2.23292	81.4735
2.23196	81.4606
2.231	81.3219
2.23004	81.1989
2.22908	81.2154
2.22812	81.2938
2.22716	81.4358
2.22621	81.4571
2.22525	81.326
2.2243	81.1747
2.22334	81.1222
2.22239	81.1651
2.22144	81.1905
2.22049	81.0979
2.21953	80.9325
2.21859	80.8808
2.21764	80.8134
2.21669	80.6047
2.21574	80.4563
2.21479	80.4709
2.21385	80.3549
2.2129	80.3243
2.21196	80.2226
2.21102	80.0031
2.21007	79.9078
2.20913	79.8824
2.20819	79.7399
2.20725	79.6821
2.20631	79.6564
2.20537	79.676
2.20444	79.6035
2.2035	79.4229
2.20256	79.3727
2.20163	79.3724
2.20069	79.2703
2.19976	79.1836
2.19883	79.1221
2.19789	79.2539
2.19696	79.3711
2.19603	79.4224
2.1951	79.4247
2.19417	79.2663
2.19325	79.2249
2.19232	79.4316
2.19139	79.6776
2.19047	79.7349
2.18954	79.715
2.18862	79.7811
2.18769	80.0471
2.18677	80.2293
2.18585	80.2677
2.18493	80.4334
2.18401	80.5986
2.18309	80.7575
2.18217	80.7921
2.18125	80.7592
2.18033	80.7741
2.17942	80.9332
2.1785	81.0104
2.17759	80.9871
2.17667	81.0793
2.17576	81.2142
2.17485	81.3629
2.17393	81.4236
2.17302	81.451
2.17211	81.5401
2.1712	81.7723
2.17029	81.9113
2.16939	81.7854
2.16848	81.769
2.16757	81.6148
2.16667	81.7454
2.16576	81.9223
2.16486	81.8817
2.16395	81.9104
2.16305	81.893
2.16215	81.7919
2.16125	81.7967
2.16035	81.9772
2.15945	82.1492
2.15855	82.1797
2.15765	82.2038
2.15675	82.2547
2.15586	82.2467
2.15496	82.2887
2.15406	82.2763
2.15317	82.3379
2.15228	82.2496
2.15138	82.2451
2.15049	82.3227
2.1496	82.331
2.14871	82.2422
2.14782	82.2289
2.14693	82.2918
2.14604	82.3628
2.14515	82.4152
2.14427	82.2313
2.14338	82.2373
2.14249	82.4118
2.14161	82.4622
2.14072	82.4773
2.13984	82.4087
2.13896	82.509
2.13808	82.5643
2.13719	82.5644
2.13631	82.5567
2.13543	82.501
2.13455	82.4949
2.13368	82.4055
2.1328	82.4154
2.13192	82.5052
2.13105	82.5726
2.13017	82.6647
2.1293	82.7106
2.12842	82.7055
2.12755	82.5315
2.12668	82.4448
2.1258	82.4128
2.12493	82.4878
2.12406	82.5589
2.12319	82.5102
2.12232	82.4443
2.12145	82.4373
2.12059	82.5403
2.11972	82.6183
2.11885	82.4736
2.11799	82.4758
2.11712	82.4259
2.11626	82.3427
2.1154	82.6014
2.11453	82.6455
2.11367	82.4073
2.11281	82.4239
2.11195	82.6701
2.11109	82.7123
2.11023	82.7073
2.10937	82.5616
2.10851	82.504
2.10766	82.583
2.1068	82.6842
2.10594	82.7308
2.10509	82.7619
2.10423	82.8115
2.10338	82.7341
2.10253	82.6627
2.10168	82.5752
2.10082	82.6545
2.09997	82.8004
2.09912	82.812
2.09827	82.6974
2.09742	82.7161
2.09658	82.7065
2.09573	82.6751
2.09488	82.7597
2.09404	82.6845
2.09319	82.6038
2.09235	82.6598
2.0915	82.8059
2.09066	82.7709
2.08982	82.8081
2.08897	82.9614
2.08813	82.7918
2.08729	82.6703
2.08645	82.8148
2.08561	82.8294
2.08477	82.9154
2.08394	82.8395
2.0831	82.723
2.08226	82.7055
2.08143	82.5567
2.08059	82.574
2.07976	82.7159
2.07892	82.8089
2.07809	82.9951
2.07726	83.0883
2.07643	82.8697
2.07559	83.1425
2.07476	82.9839
2.07393	82.5476
2.0731	82.6728
2.07228	82.5505
2.07145	82.5605
2.07062	83.0268
2.06979	83.0973
2.06897	82.87
2.06814	82.6992
2.06732	82.6804
2.06649	82.8045
2.06567	82.8127
2.06485	82.4443
2.06403	82.6012
2.0632	82.6862
2.06238	82.8543
2.06156	82.6839
2.06074	82.77
2.05993	82.8698
2.05911	82.8501
2.05829	82.8825
2.05747	82.8671
2.05666	82.8575
2.05584	82.8092
2.05503	82.9017
2.05421	82.9157
2.0534	82.8138
2.05259	82.8696
2.05177	82.9494
2.05096	82.9094
2.05015	82.8742
2.04934	82.8424
2.04853	82.8834
2.04772	82.8143
2.04691	82.7103
2.04611	82.7012
2.0453	82.6809
2.04449	82.6896
2.04369	82.7308
2.04288	82.7132
2.04208	82.5373
2.04127	82.6011
2.04047	82.8173
2.03967	82.7996
2.03886	82.7818
2.03806	82.7482
2.03726	82.6266
2.03646	82.8425
2.03566	83.1235
2.03486	83.1571
2.03407	83.0943
2.03327	83.0579
2.03247	82.8827
2.03167	82.7451
2.03088	82.8571
2.03008	82.919
2.02929	82.9416
2.0285	82.9309
2.0277	82.7244
2.02691	82.553
2.02612	82.7153
2.02533	82.9081
2.02453	83.0361
2.02374	82.9225
2.02295	82.7343
2.02217	82.7969
2.02138	82.8033
2.02059	82.7161
2.0198	82.769
2.01902	82.7886
2.01823	82.7046
2.01744	82.7007
2.01666	82.7317
2.01588	82.7102
2.01509	82.7424
2.01431	82.7827
2.01353	82.9356
2.01275	82.8316
2.01196	82.5844
2.01118	82.7076
2.0104	82.7357
2.00963	82.7222
2.00885	82.7431
2.00807	82.7111
2.00729	82.7021
2.00651	82.7923
2.00574	82.7568
2.00496	82.6127
2.00419	82.5533
2.00341	82.5479
2.00264	82.6694
2.00187	82.825
2.00109	82.7811
2.00032	82.7376
