Name: Fluorite CaF_2
Type: Mineral
Class: Halides
Subclass: 
Particle Size: 125-500um
Sample No.: H-2B
Owner: JPL
Wavelength range: IR
Origin: United Kingdom, England, Durham County, Weardal
Collected by Ward's
Description: 





Measurement: Hemispherical reflectance
First Column: X
Second Column: Y
X Units:  Wavelength (micrometers)
Y Units:  Reflectance (percent)
First X Value: 15.3853
Last X Value: 2.00032
Number of X Values: 2256
Additional information: h02ba.txt
 
15.3853	0.694528
15.3397	0.447036
15.2945	0.280061
15.2495	0.494742
15.2048	0.72674
15.1603	0.642428
15.1161	0.608474
15.0722	0.467764
15.0285	0.554777
14.9851	0.795312
14.9419	0.702627
14.8989	0.545681
14.8563	0.749798
14.8138	0.985627
14.7716	0.830907
14.7296	0.660383
14.6879	0.762097
14.6464	0.963687
14.6052	0.990569
14.5641	1.00747
14.5233	1.03247
14.4828	1.05792
14.4424	1.09632
14.4023	1.17162
14.3624	1.02577
14.3227	0.871642
14.2833	0.767708
14.244	0.815288
14.205	0.976754
14.1662	1.00435
14.1276	0.795658
14.0892	0.85121
14.051	1.00709
14.0131	0.988188
13.9753	0.953525
13.9377	0.953485
13.9004	0.917458
13.8632	1.00837
13.8262	1.14135
13.7895	1.05926
13.7529	0.984951
13.7165	1.02528
13.6803	1.1089
13.6443	1.29427
13.6085	1.39502
13.5729	1.46625
13.5374	1.45449
13.5022	1.40371
13.4671	1.5395
13.4322	1.69527
13.3975	1.62798
13.363	1.5969
13.3286	1.78811
13.2944	1.93263
13.2604	1.85489
13.2266	1.81845
13.193	2.02177
13.1595	2.11163
13.1262	2.08795
13.093	2.1523
13.06	2.42447
13.0272	2.46533
12.9946	2.48866
12.9621	2.7077
12.9298	3.02452
12.8976	3.28741
12.8656	3.55527
12.8337	3.8414
12.8021	3.97917
12.7705	4.10693
12.7391	4.10027
12.7079	4.16599
12.6769	4.07704
12.6459	3.78667
12.6152	3.73616
12.5845	4.08732
12.5541	4.42368
12.5238	4.70148
12.4936	5.04348
12.4635	5.02542
12.4337	4.94029
12.4039	4.89671
12.3743	4.53036
12.3448	4.23796
12.3155	4.29552
12.2863	4.44185
12.2573	4.64085
12.2284	4.95769
12.1996	5.18479
12.171	5.3044
12.1425	5.29045
12.1141	5.38129
12.0859	5.78599
12.0578	6.01882
12.0298	6.1161
12.0019	6.36624
11.9742	6.64923
11.9466	6.83996
11.9192	6.89526
11.8918	6.96563
11.8646	7.03879
11.8375	7.29993
11.8106	7.5858
11.7837	7.83886
11.757	7.97695
11.7304	8.13508
11.7039	8.42304
11.6776	8.73044
11.6513	8.82745
11.6252	8.91846
11.5992	9.07513
11.5733	9.26793
11.5475	9.34264
11.5219	9.44683
11.4963	9.5976
11.4709	9.8534
11.4455	10.0868
11.4203	10.2181
11.3952	10.2497
11.3702	10.3559
11.3454	10.6176
11.3206	10.8913
11.2959	11.2121
11.2714	11.5771
11.2469	11.7696
11.2226	11.9145
11.1983	12.1198
11.1742	12.3648
11.1502	12.6669
11.1263	12.9443
11.1024	13.1076
11.0787	13.246
11.0551	13.3877
11.0316	13.4226
11.0081	13.5502
10.9848	13.7704
10.9616	14.0044
10.9385	14.2352
10.9154	14.5135
10.8925	14.6951
10.8697	14.8902
10.8469	15.041
10.8243	15.2283
10.8017	15.4426
10.7793	15.5219
10.7569	15.6212
10.7346	15.8887
10.7125	16.1127
10.6904	16.2242
10.6684	16.354
10.6465	16.5567
10.6247	16.7805
10.6029	16.9549
10.5813	17.066
10.5597	17.1227
10.5383	17.1109
10.5169	17.2829
10.4956	17.459
10.4744	17.5758
10.4533	17.5819
10.4323	17.6452
10.4113	17.7261
10.3904	17.8095
10.3697	17.8111
10.349	17.8727
10.3284	17.9378
10.3078	17.9706
10.2874	17.9717
10.267	18.0152
10.2467	18.1096
10.2265	18.1843
10.2064	18.2832
10.1863	18.2479
10.1663	18.2162
10.1464	18.2142
10.1266	18.1666
10.1069	18.1072
10.0872	18.0605
10.0676	18.0065
10.0481	17.8446
10.0287	17.5791
10.0093	17.3701
9.99005	17.2473
9.97084	17.1542
9.95169	17.1458
9.93263	17.1752
9.91364	17.1726
9.89472	17.1801
9.87587	17.0866
9.8571	17.0099
9.83839	16.9913
9.81976	16.864
9.80119	16.9351
9.78271	17.0753
9.76428	17.0794
9.74592	17.2161
9.72764	17.2138
9.70943	17.1676
9.69128	17.2849
9.6732	17.254
9.65518	17.2258
9.63724	17.3365
9.61935	17.4719
9.60155	17.5167
9.5838	17.5791
9.56611	17.6093
9.5485	17.5991
9.53094	17.5605
9.51345	17.5139
9.49604	17.5862
9.47867	17.8352
9.46137	18.0364
9.44414	18.1508
9.42697	18.2681
9.40986	18.6469
9.39281	19.3124
9.37583	19.9542
9.35891	20.3522
9.34204	20.6627
9.32524	21.0538
9.3085	21.2476
9.29182	21.3444
9.27519	21.4364
9.25863	21.4741
9.24213	21.6494
9.22568	21.7685
9.2093	21.7828
9.19297	22.0486
9.17669	22.2658
9.16048	22.3693
9.14433	22.5006
9.12823	22.7331
9.11218	23.0122
9.0962	23.3036
9.08027	23.491
9.06439	23.6414
9.04858	23.7725
9.03281	23.8841
9.0171	23.9763
9.00145	24.0308
8.98585	24.0391
8.9703	23.9865
8.9548	23.875
8.93937	23.9817
8.92398	24.0798
8.90865	24.0203
8.89337	23.9514
8.87814	23.6887
8.86296	23.498
8.84784	23.4864
8.83277	23.5209
8.81774	23.386
8.80277	23.3467
8.78786	23.4699
8.77298	23.5252
8.75816	23.5346
8.7434	23.6669
8.72868	23.7585
8.714	23.9145
8.69938	24.1358
8.68481	24.341
8.67029	24.3338
8.65581	24.0561
8.64139	23.6422
8.62701	23.605
8.61268	24.3894
8.5984	25.8333
8.58416	27.2847
8.56997	28.4045
8.55583	29.3125
8.54174	29.9162
8.52769	30.4042
8.51368	31.0723
8.49973	31.7274
8.48582	32.3081
8.47195	32.7073
8.45813	32.9914
8.44436	33.361
8.43062	33.8003
8.41693	34.0626
8.4033	34.1788
8.3897	34.3177
8.37614	34.4825
8.36264	34.5972
8.34917	34.79
8.33574	34.8553
8.32236	34.769
8.30903	34.8874
8.29573	35.0129
8.28248	35.0289
8.26927	35.0987
8.2561	35.0698
8.24298	35.0477
8.2299	35.1128
8.21685	35.1287
8.20385	35.0616
8.19089	34.8698
8.17797	34.4633
8.16509	34.0539
8.15225	33.6608
8.13946	33.138
8.1267	32.5675
8.11398	32.0907
8.10131	31.6933
8.08867	31.2545
8.07606	30.7869
8.0635	30.3911
8.05099	30.0786
8.0385	29.7573
8.02606	29.4546
8.01366	29.2216
8.00129	29.0496
7.98896	28.961
7.97667	28.8434
7.96442	28.7549
7.9522	28.6726
7.94002	28.5262
7.92788	28.4041
7.91578	28.3121
7.90371	28.1839
7.89168	28.2005
7.87969	28.1848
7.86773	28.0934
7.85581	28.0336
7.84392	27.9571
7.83207	27.9573
7.82026	27.997
7.80849	27.9828
7.79674	27.964
7.78503	28.0174
7.77337	28.1361
7.76173	28.2568
7.75012	28.35
7.73856	28.2982
7.72703	28.3505
7.71553	28.46
7.70406	28.4985
7.69263	28.5354
7.68123	28.6278
7.66987	28.6879
7.65855	28.7137
7.64725	28.7021
7.63598	28.7255
7.62475	28.7051
7.61356	28.661
7.60239	28.6345
7.59126	28.6113
7.58017	28.6107
7.5691	28.6481
7.55806	28.5942
7.54707	28.5487
7.5361	28.5237
7.52516	28.5108
7.51425	28.4942
7.50338	28.4519
7.49253	28.3296
7.48172	28.2535
7.47094	28.2844
7.46019	28.16
7.44947	27.8822
7.43879	27.7808
7.42813	27.7595
7.4175	27.7575
7.4069	27.6762
7.39634	27.542
7.3858	27.5081
7.37529	27.4508
7.36482	27.294
7.35437	27.2822
7.34396	27.3542
7.33357	27.2356
7.32321	26.9769
7.31288	26.8227
7.30258	26.6633
7.29231	26.4072
7.28207	26.315
7.27185	26.2682
7.26167	26.0284
7.25152	25.8198
7.24139	25.5487
7.23129	25.1924
7.22122	24.8973
7.21117	24.7971
7.20116	24.3313
7.19117	23.656
7.18121	23.2854
7.17128	23.115
7.16137	22.6657
7.1515	22.2741
7.14164	21.8607
7.13182	21.4753
7.12203	21.2728
7.11225	21.1636
7.10251	21.0788
7.0928	20.9746
7.08311	20.8378
7.07344	20.8027
7.06381	20.8553
7.0542	21.1827
7.04461	21.525
7.03506	21.2167
7.02552	21.0809
7.01601	21.1513
7.00653	21.2228
6.99708	21.3827
6.98765	21.4415
6.97824	21.5409
6.96886	22.1084
6.95951	22.5698
6.95018	22.2567
6.94087	22.2492
6.9316	22.3926
6.92234	22.5324
6.91311	22.7676
6.90391	23.0036
6.89473	22.9831
6.88557	23.12
6.87644	23.4674
6.86733	24.3741
6.85824	24.3588
6.84918	23.484
6.84015	23.1415
6.83114	23.3161
6.82215	23.3122
6.81319	22.9538
6.80424	22.9358
6.79532	23.4045
6.78643	23.4562
6.77756	22.9354
6.76871	22.4685
6.75989	22.0498
6.75109	21.8141
6.74231	21.6318
6.73355	21.5618
6.72482	21.6011
6.71611	21.6638
6.70742	21.415
6.69875	20.9846
6.69011	21.0605
6.68149	21.2441
6.67289	20.929
6.66431	20.5954
6.65576	20.4626
6.64722	21.0251
6.63871	21.9306
6.63022	21.5169
6.62175	20.7944
6.61331	20.6219
6.60488	20.6326
6.59648	20.9493
6.5881	21.1854
6.57974	21.5443
6.5714	21.9709
6.56308	21.7082
6.55478	21.73
6.54651	21.7838
6.53825	21.8181
6.53001	22.1303
6.5218	22.7267
6.51361	22.7702
6.50544	23.2382
6.49729	24.5662
6.48915	24.9534
6.48104	24.5292
6.47295	24.304
6.46488	24.0401
6.45683	24.1233
6.4488	24.1824
6.44079	24.2546
6.4328	24.5892
6.42482	24.9417
6.41687	25.9976
6.40894	25.5538
6.40103	24.2118
6.39314	23.762
6.38526	23.5437
6.37741	23.5409
6.36957	23.5953
6.36176	23.0359
6.35396	22.8519
6.34618	23.2182
6.33843	22.7557
6.33069	22.0022
6.32297	21.6665
6.31527	21.3615
6.30758	21.0936
6.29992	20.8103
6.29227	20.5202
6.28465	20.2217
6.27704	19.9412
6.26945	19.582
6.26188	19.2489
6.25432	18.9116
6.24679	18.5752
6.23927	18.2929
6.23177	17.9813
6.22429	17.6872
6.21683	17.3673
6.20938	16.94
6.20195	16.543
6.19454	16.4027
6.18715	16.5191
6.17978	16.0265
6.17242	15.4511
6.16508	15.3355
6.15776	15.2662
6.15045	14.9603
6.14317	14.7628
6.1359	14.6181
6.12864	14.5198
6.12141	14.7487
6.11419	15.0625
6.10699	14.7055
6.0998	14.4266
6.09263	14.4339
6.08549	14.5814
6.07835	15.0696
6.07123	15.3958
6.06413	15.1908
6.05705	15.5581
6.04998	16.6152
6.04293	16.245
6.0359	15.6428
6.02888	15.8091
6.02187	16.1835
6.01489	16.6208
6.00792	16.7646
6.00096	16.9073
5.99403	17.4456
5.98711	17.8735
5.9802	18.0046
5.97331	18.5036
5.96644	18.9554
5.95958	18.9175
5.95274	19.2564
5.94591	19.9479
5.9391	21.2241
5.9323	21.469
5.92552	21.2003
5.91876	21.6193
5.91201	22.058
5.90528	22.7876
5.89856	24.0994
5.89186	24.6725
5.88517	25.5984
5.8785	26.3987
5.87184	25.9918
5.8652	26.5557
5.85857	26.9842
5.85196	27.2634
5.84536	27.7642
5.83878	28.5671
5.83221	29.5377
5.82566	30.6568
5.81912	31.1179
5.81259	30.7376
5.80608	30.9297
5.79959	31.5044
5.79311	31.8454
5.78665	32.3608
5.78019	33.033
5.77376	34.0622
5.76734	35.395
5.76093	34.9982
5.75453	34.6852
5.74815	35.3806
5.74179	35.5024
5.73543	35.6831
5.7291	35.9708
5.72277	36.4202
5.71646	36.9034
5.71017	37.2384
5.70389	36.7737
5.69762	36.6254
5.69136	36.7103
5.68513	36.4545
5.6789	36.5016
5.67268	36.2164
5.66648	35.5162
5.6603	35.3937
5.65413	35.259
5.64797	35.2365
5.64182	35.4265
5.63569	34.6343
5.62957	33.9965
5.62347	33.8115
5.61737	33.839
5.61129	33.7759
5.60522	33.7707
5.59917	33.6739
5.59313	33.4733
5.5871	33.6994
5.58109	34.2352
5.57509	34.1957
5.5691	33.8198
5.56312	33.8952
5.55716	34.1413
5.55121	34.2736
5.54528	34.1914
5.53935	34.2541
5.53344	34.4251
5.52754	34.7244
5.52166	34.9531
5.51578	35.0047
5.50992	35.0635
5.50407	35.3062
5.49823	35.5417
5.49241	35.7885
5.4866	36.0152
5.4808	36.4167
5.47501	36.5004
5.46923	36.733
5.46347	36.9841
5.45772	36.7428
5.45198	36.5909
5.44625	36.529
5.44054	36.4936
5.43484	36.3254
5.42914	36.2556
5.42347	36.4731
5.4178	35.9492
5.41214	35.2068
5.4065	34.7379
5.40087	34.3945
5.39525	34.201
5.38964	33.9642
5.38404	33.7504
5.37846	33.6085
5.37288	33.5608
5.36732	33.5344
5.36177	33.5658
5.35623	33.7452
5.35071	33.9259
5.34519	33.6558
5.33968	33.3978
5.33419	33.4258
5.32871	33.429
5.32324	33.469
5.31778	33.4898
5.31233	33.4628
5.30689	33.4704
5.30147	33.4961
5.29605	33.6139
5.29065	33.6594
5.28525	33.5665
5.27987	33.6794
5.2745	33.8059
5.26914	33.8717
5.26379	33.914
5.25845	34.0374
5.25312	34.1955
5.24781	34.3804
5.2425	34.6576
5.23721	34.9306
5.23192	35.1
5.22665	35.3265
5.22138	35.6743
5.21613	36.1141
5.21089	36.2401
5.20566	36.1764
5.20044	36.3243
5.19522	36.312
5.19002	36.2394
5.18483	36.1871
5.17965	36.0865
5.17448	35.9777
5.16933	35.8666
5.16418	35.7841
5.15904	35.7533
5.15391	35.7446
5.14879	35.7854
5.14368	35.6211
5.13859	35.4496
5.1335	35.4018
5.12842	35.3731
5.12335	35.2833
5.1183	35.185
5.11325	35.1669
5.10821	35.0924
5.10318	35.0405
5.09817	34.9096
5.09316	34.7208
5.08816	34.5826
5.08317	34.4065
5.07819	34.1884
5.07322	34.1361
5.06826	34.0801
5.06331	33.9115
5.05837	33.8032
5.05344	33.7985
5.04852	33.714
5.04361	33.6331
5.03871	33.6412
5.03382	33.6193
5.02894	33.5675
5.02406	33.5663
5.0192	33.5608
5.01435	33.4348
5.0095	33.3063
5.00467	33.2731
4.99984	33.3122
4.99502	33.3332
4.99021	33.3565
4.98542	33.4586
4.98063	33.5548
4.97585	33.7066
4.97108	33.7787
4.96632	33.9327
4.96156	34.2259
4.95682	34.5357
4.95209	34.7111
4.94736	34.7839
4.94264	34.8584
4.93794	34.9955
4.93324	35.1151
4.92855	35.2639
4.92387	35.4493
4.9192	35.8066
4.91453	36.2439
4.90988	36.6693
4.90524	37.1688
4.9006	37.8161
4.89597	38.6061
4.89135	39.4201
4.88674	40.1693
4.88214	40.8567
4.87755	41.4882
4.87296	42.0268
4.86839	42.4941
4.86382	42.991
4.85926	43.4312
4.85471	43.799
4.85017	44.1309
4.84564	44.4777
4.84111	44.7495
4.8366	44.9931
4.83209	45.2654
4.82759	45.5208
4.8231	45.719
4.81862	45.9118
4.81415	46.0803
4.80968	46.2193
4.80522	46.3831
4.80077	46.6124
4.79633	46.8094
4.7919	46.9491
4.78747	47.0855
4.78306	47.2522
4.77865	47.4162
4.77425	47.5842
4.76986	47.6771
4.76547	47.7855
4.7611	47.848
4.75673	47.9707
4.75237	48.0838
4.74802	48.17
4.74367	48.2749
4.73934	48.3744
4.73501	48.4257
4.73069	48.4375
4.72638	48.4329
4.72207	48.4458
4.71777	48.4503
4.71348	48.3767
4.7092	48.2471
4.70493	48.0733
4.70066	47.7881
4.69641	47.4366
4.69216	47.0992
4.68791	46.8625
4.68368	46.6812
4.67945	46.7417
4.67523	47.0138
4.67102	47.3649
4.66682	47.7092
4.66262	48.1187
4.65843	48.5438
4.65425	48.871
4.65007	49.1437
4.64591	49.4394
4.64175	49.7394
4.6376	50.1116
4.63345	50.4523
4.62932	50.7541
4.62519	50.9881
4.62106	51.16
4.61695	51.3023
4.61284	51.5502
4.60874	51.7715
4.60465	51.8866
4.60056	52.0092
4.59648	52.1473
4.59241	52.2176
4.58835	52.3007
4.58429	52.4071
4.58024	52.5069
4.5762	52.4959
4.57216	52.5018
4.56814	52.5686
4.56411	52.5359
4.5601	52.5019
4.55609	52.4613
4.55209	52.3282
4.5481	52.1652
4.54411	52.026
4.54013	51.824
4.53616	51.5467
4.5322	51.3459
4.52824	51.0057
4.52429	50.654
4.52034	50.3497
4.51641	49.9769
4.51247	49.5279
4.50855	49.0907
4.50463	48.5986
4.50072	48.2028
4.49682	47.9644
4.49292	47.7618
4.48903	47.5391
4.48515	47.5211
4.48127	47.5164
4.4774	47.4353
4.47354	47.3224
4.46968	47.3085
4.46584	47.3649
4.46199	47.4981
4.45815	47.7201
4.45432	48.0111
4.4505	48.3433
4.44668	48.57
4.44287	48.7507
4.43907	48.908
4.43527	49.107
4.43148	49.3576
4.4277	49.5834
4.42392	49.7675
4.42015	49.9658
4.41638	50.2665
4.41262	50.5506
4.40887	50.7749
4.40513	51.0411
4.40139	51.3429
4.39765	51.6724
4.39393	51.984
4.39021	52.2353
4.38649	52.584
4.38278	52.9546
4.37908	53.3385
4.37539	53.7246
4.3717	54.0446
4.36801	54.3211
4.36434	54.6365
4.36067	54.9692
4.357	55.2728
4.35335	55.5387
4.34969	55.7678
4.34605	55.9391
4.34241	56.0836
4.33877	56.2474
4.33514	56.4728
4.33152	56.5953
4.32791	56.6403
4.3243	56.7297
4.32069	56.7625
4.3171	56.8385
4.31351	56.9422
4.30992	56.9301
4.30634	56.8852
4.30277	56.8254
4.2992	56.7999
4.29564	56.7305
4.29208	56.6299
4.28853	56.5632
4.28499	56.3849
4.28145	55.9865
4.27792	55.231
4.27439	53.8173
4.27087	52.1491
4.26735	51.4866
4.26384	52.3694
4.26034	54.0151
4.25684	55.5149
4.25335	56.6166
4.24986	57.3632
4.24638	57.8483
4.24291	58.1622
4.23944	58.3911
4.23598	58.5445
4.23252	58.6592
4.22906	58.784
4.22562	58.9282
4.22218	59.0646
4.21874	59.0636
4.21531	59.1073
4.21189	59.1788
4.20847	59.2366
4.20506	59.2779
4.20165	59.329
4.19825	59.3179
4.19485	59.3461
4.19146	59.4307
4.18807	59.6032
4.18469	59.7751
4.18132	59.9285
4.17795	60.0622
4.17458	60.1801
4.17123	60.332
4.16787	60.4831
4.16453	60.5974
4.16118	60.7227
4.15785	60.847
4.15451	60.948
4.15119	61.074
4.14787	61.1595
4.14455	61.2524
4.14124	61.3831
4.13794	61.5078
4.13464	61.6291
4.13134	61.7299
4.12805	61.8454
4.12477	61.9987
4.12149	62.1644
4.11822	62.3031
4.11495	62.381
4.11168	62.4673
4.10843	62.5912
4.10517	62.773
4.10192	62.895
4.09868	62.9823
4.09545	63.1024
4.09221	63.2041
4.08899	63.3436
4.08576	63.4895
4.08255	63.5683
4.07933	63.6276
4.07613	63.652
4.07292	63.7365
4.06973	63.8608
4.06654	63.9358
4.06335	63.953
4.06017	63.9487
4.05699	63.9529
4.05382	63.983
4.05065	64.0597
4.04749	64.0152
4.04433	64.0069
4.04118	64.0636
4.03803	64.0735
4.03489	64.027
4.03175	64.0077
4.02862	64.0337
4.02549	64.0527
4.02237	64.0311
4.01925	64.07
4.01614	64.1155
4.01303	64.1503
4.00993	64.156
4.00683	64.162
4.00373	64.1795
4.00064	64.2722
3.99756	64.2778
3.99448	64.331
3.9914	64.3902
3.98833	64.3615
3.98527	64.4036
3.98221	64.5281
3.97915	64.5908
3.9761	64.6751
3.97305	64.7955
3.97001	64.8793
3.96697	64.9257
3.96394	65.0099
3.96091	65.0938
3.95789	65.1745
3.95487	65.1987
3.95186	65.2981
3.94885	65.4093
3.94584	65.5026
3.94284	65.5657
3.93984	65.6495
3.93685	65.7424
3.93386	65.8078
3.93088	65.7881
3.9279	65.7918
3.92493	65.8398
3.92196	65.892
3.919	65.9488
3.91604	65.9997
3.91308	65.9879
3.91013	65.9659
3.90718	65.9569
3.90424	65.8743
3.9013	65.7831
3.89837	65.7871
3.89544	65.7645
3.89252	65.7924
3.8896	65.8129
3.88668	65.7773
3.88377	65.7269
3.88086	65.674
3.87796	65.6137
3.87506	65.5887
3.87217	65.5757
3.86928	65.5442
3.86639	65.4867
3.86351	65.4395
3.86064	65.3725
3.85776	65.3692
3.8549	65.4061
3.85203	65.3884
3.84917	65.3962
3.84631	65.4677
3.84346	65.433
3.84062	65.4199
3.83777	65.4323
3.83494	65.4347
3.8321	65.4749
3.82927	65.486
3.82644	65.5002
3.82362	65.5258
3.82081	65.5545
3.81799	65.6066
3.81518	65.6777
3.81238	65.6799
3.80958	65.622
3.80678	65.6663
3.80399	65.6725
3.8012	65.6119
3.79841	65.6524
3.79563	65.6608
3.79286	65.6021
3.79008	65.5562
3.78731	65.5271
3.78455	65.4912
3.78179	65.4346
3.77903	65.4096
3.77628	65.3268
3.77353	65.2479
3.77079	65.2131
3.76805	65.1431
3.76531	65.0542
3.76258	64.9817
3.75985	64.8885
3.75713	64.8578
3.7544	64.8949
3.75169	64.8431
3.74898	64.7161
3.74627	64.6693
3.74356	64.5917
3.74086	64.542
3.73816	64.5406
3.73547	64.5525
3.73278	64.5576
3.7301	64.517
3.72741	64.4574
3.72474	64.4562
3.72206	64.4536
3.71939	64.528
3.71673	64.537
3.71406	64.4522
3.71141	64.4429
3.70875	64.5152
3.7061	64.5173
3.70345	64.4517
3.70081	64.4233
3.69817	64.4428
3.69553	64.4296
3.6929	64.4218
3.69027	64.5052
3.68765	64.5383
3.68503	64.5039
3.68241	64.5113
3.6798	64.4874
3.67719	64.428
3.67458	64.3984
3.67198	64.4152
3.66938	64.3385
3.66678	64.2807
3.66419	64.2748
3.66161	64.2774
3.65902	64.2023
3.65644	64.1391
3.65387	64.1879
3.65129	64.1608
3.64872	64.0219
3.64616	63.83
3.64359	63.7283
3.64103	63.6342
3.63848	63.5156
3.63593	63.4846
3.63338	63.4942
3.63084	63.3943
3.6283	63.2267
3.62576	63.1006
3.62322	63.0102
3.62069	63.0297
3.61817	63.0161
3.61564	62.8781
3.61312	62.7161
3.61061	62.676
3.6081	62.5929
3.60559	62.4464
3.60308	62.3107
3.60058	62.2323
3.59808	62.1362
3.59558	62.0572
3.59309	61.9212
3.59061	61.8027
3.58812	61.7577
3.58564	61.7294
3.58316	61.5465
3.58069	61.3465
3.57822	61.2561
3.57575	61.1601
3.57328	61.0657
3.57082	60.9488
3.56836	60.7903
3.56591	60.6455
3.56346	60.551
3.56101	60.4673
3.55857	60.3202
3.55613	60.1594
3.55369	60.0529
3.55126	59.9514
3.54883	59.8695
3.5464	59.7121
3.54397	59.5619
3.54155	59.397
3.53914	59.2574
3.53672	59.1702
3.53431	59.0328
3.5319	58.8228
3.5295	58.6841
3.5271	58.5341
3.5247	58.3449
3.52231	58.2093
3.51991	58.0278
3.51753	57.7734
3.51514	57.5332
3.51276	57.3388
3.51038	57.0749
3.50801	56.7465
3.50563	56.4205
3.50327	56.2113
3.5009	56.1312
3.49854	56.0573
3.49618	55.9311
3.49382	55.6781
3.49147	55.5176
3.48912	55.4306
3.48677	55.2758
3.48443	55.1528
3.48209	54.9874
3.47975	54.7292
3.47742	54.5082
3.47509	54.3561
3.47276	54.2024
3.47044	54.045
3.46812	53.9592
3.4658	53.8642
3.46348	53.6514
3.46117	53.3734
3.45886	53.2
3.45656	53.0416
3.45425	52.8232
3.45195	52.6109
3.44966	52.3442
3.44736	52.0013
3.44507	51.767
3.44279	51.5379
3.4405	51.3044
3.43822	51.0908
3.43594	50.8281
3.43367	50.554
3.43139	50.2
3.42912	49.9222
3.42686	49.657
3.42459	49.3338
3.42233	49.0754
3.42007	48.8533
3.41782	48.619
3.41557	48.3152
3.41332	48.062
3.41108	47.8379
3.40883	47.5707
3.40659	47.41
3.40435	47.376
3.40212	47.2472
3.39989	47.0142
3.39766	46.7948
3.39544	46.6178
3.39322	46.4761
3.391	46.3239
3.38878	46.0583
3.38657	45.7669
3.38436	45.4821
3.38215	45.1498
3.37994	44.8593
3.37774	44.5304
3.37554	44.2249
3.37335	44.0308
3.37115	43.8306
3.36896	43.638
3.36678	43.484
3.36459	43.2498
3.36241	42.9905
3.36023	42.8801
3.35805	42.6853
3.35588	42.4369
3.35371	42.1877
3.35154	41.8352
3.34938	41.5848
3.34721	41.3953
3.34505	41.161
3.3429	40.8848
3.34074	40.6253
3.33859	40.4098
3.33644	40.1551
3.3343	39.8382
3.33215	39.5715
3.33001	39.3799
3.32788	39.1487
3.32574	38.8677
3.32361	38.5402
3.32148	38.2176
3.31936	37.9278
3.31723	37.6646
3.31511	37.3666
3.31299	37.1298
3.31088	36.8389
3.30876	36.5131
3.30665	36.2796
3.30455	36.0363
3.30244	35.8053
3.30034	35.5732
3.29824	35.2347
3.29614	34.8946
3.29405	34.5545
3.29196	34.305
3.28987	34.0927
3.28778	33.8279
3.2857	33.5564
3.28362	33.2658
3.28154	33.0001
3.27946	32.8107
3.27739	32.5705
3.27532	32.3221
3.27325	32.0127
3.27119	31.694
3.26913	31.4722
3.26707	31.1796
3.26501	30.8888
3.26295	30.6033
3.2609	30.3492
3.25885	30.1493
3.2568	29.853
3.25476	29.5538
3.25272	29.2722
3.25068	29.0296
3.24864	28.8206
3.24661	28.5863
3.24458	28.3972
3.24255	28.1361
3.24052	27.7993
3.2385	27.6131
3.23648	27.3462
3.23446	26.998
3.23244	26.8482
3.23043	26.6923
3.22841	26.4355
3.2264	26.147
3.2244	25.8652
3.22239	25.633
3.22039	25.4545
3.21839	25.1963
3.2164	24.9621
3.2144	24.6978
3.21241	24.448
3.21042	24.3175
3.20844	24.0368
3.20645	23.7244
3.20447	23.5601
3.20249	23.3586
3.20051	23.1767
3.19854	22.9073
3.19657	22.7089
3.1946	22.5037
3.19263	22.3031
3.19067	22.1186
3.1887	21.8699
3.18674	21.6539
3.18479	21.4526
3.18283	21.2274
3.18088	21.0783
3.17893	20.902
3.17698	20.6285
3.17504	20.4236
3.17309	20.2918
3.17115	20.1009
3.16921	19.9612
3.16728	19.7564
3.16534	19.5238
3.16341	19.313
3.16148	19.2024
3.15956	18.9908
3.15763	18.8434
3.15571	18.7223
3.15379	18.4937
3.15187	18.228
3.14996	18.0438
3.14805	17.9155
3.14614	17.7951
3.14423	17.6202
3.14232	17.5207
3.14042	17.3565
3.13852	17.197
3.13662	17.0665
3.13472	16.9487
3.13283	16.8129
3.13094	16.6762
3.12905	16.5484
3.12716	16.4037
3.12528	16.1755
3.12339	16.0558
3.12151	15.9677
3.11964	15.8461
3.11776	15.751
3.11589	15.5861
3.11401	15.3418
3.11214	15.1615
3.11028	15.1323
3.10841	15.0905
3.10655	15.0401
3.10469	14.988
3.10283	14.922
3.10098	14.6951
3.09912	14.6225
3.09727	14.5997
3.09542	14.4672
3.09358	14.4183
3.09173	14.4309
3.08989	14.3443
3.08805	14.3318
3.08621	14.2844
3.08437	14.0511
3.08254	13.9228
3.08071	13.929
3.07888	13.7653
3.07705	13.6138
3.07523	13.6622
3.0734	13.7013
3.07158	13.5433
3.06977	13.4412
3.06795	13.3863
3.06613	13.2069
3.06432	13.1653
3.06251	13.1689
3.0607	13.0563
3.0589	13.091
3.0571	13.2344
3.05529	13.2375
3.05349	13.1253
3.0517	12.968
3.0499	12.7263
3.04811	12.735
3.04632	12.8383
3.04453	12.8556
3.04274	12.8619
3.04096	12.8213
3.03918	12.7524
3.0374	12.5976
3.03562	12.3847
3.03384	12.3018
3.03207	12.3135
3.03029	12.2769
3.02852	12.2647
3.02676	12.2344
3.02499	12.2655
3.02323	12.2917
3.02146	12.1865
3.0197	12.0981
3.01795	12.0179
3.01619	11.9914
3.01444	11.9876
3.01269	11.8462
3.01094	11.8011
3.00919	11.8846
3.00744	11.7436
3.0057	11.5442
3.00396	11.5866
3.00222	11.5181
3.00048	11.4282
2.99875	11.4944
2.99701	11.4936
2.99528	11.4025
2.99355	11.2586
2.99183	11.1342
2.9901	11.0463
2.98838	11.0399
2.98666	11.1582
2.98494	11.2197
2.98322	11.135
2.9815	11.155
2.97979	11.0262
2.97808	10.7664
2.97637	10.712
2.97466	10.8085
2.97295	10.8269
2.97125	10.8204
2.96955	10.6082
2.96785	10.5317
2.96615	10.4767
2.96446	10.3677
2.96276	10.3631
2.96107	10.483
2.95938	10.5707
2.95769	10.4706
2.95601	10.3863
2.95432	10.4896
2.95264	10.6323
2.95096	10.6674
2.94928	10.6829
2.9476	10.555
2.94593	10.2662
2.94425	10.301
2.94258	10.4499
2.94092	10.4452
2.93925	10.5182
2.93758	10.6011
2.93592	10.5969
2.93426	10.5049
2.9326	10.3695
2.93094	10.2535
2.92928	10.4149
2.92763	10.6457
2.92598	10.6968
2.92433	10.6568
2.92268	10.4905
2.92103	10.3557
2.91939	10.3399
2.91775	10.3895
2.9161	10.4886
2.91447	10.6096
2.91283	10.7932
2.91119	10.8225
2.90956	10.7264
2.90793	10.7392
2.9063	10.8556
2.90467	10.8188
2.90304	10.7133
2.90142	10.7864
2.89979	10.9778
2.89817	10.9976
2.89656	10.948
2.89494	10.9234
2.89332	10.9595
2.89171	11.0556
2.8901	11.1272
2.88849	11.1802
2.88688	11.3303
2.88527	11.4798
2.88367	11.4379
2.88206	11.2475
2.88046	11.2151
2.87886	11.3972
2.87727	11.5649
2.87567	11.5594
2.87408	11.5349
2.87248	11.6812
2.87089	11.8252
2.8693	11.7991
2.86772	11.8633
2.86613	12.0148
2.86455	12.0672
2.86297	12.0465
2.86139	12.1311
2.85981	12.2385
2.85823	12.2549
2.85666	12.399
2.85508	12.6126
2.85351	12.7939
2.85194	12.8852
2.85038	12.9128
2.84881	12.8303
2.84724	12.8876
2.84568	13.1031
2.84412	13.2683
2.84256	13.2912
2.841	13.1879
2.83945	13.2188
2.83789	13.3668
2.83634	13.5268
2.83479	13.7611
2.83324	13.9352
2.83169	13.9559
2.83015	13.9742
2.82861	14.066
2.82706	14.0027
2.82552	14.0206
2.82398	14.3544
2.82245	14.6973
2.82091	14.917
2.81938	14.9933
2.81784	15.0103
2.81631	15.3064
2.81479	15.5281
2.81326	15.4907
2.81173	15.5573
2.81021	15.7371
2.80869	15.8342
2.80716	15.9995
2.80565	16.2479
2.80413	16.5838
2.80261	16.828
2.8011	16.7915
2.79959	16.8237
2.79808	16.9157
2.79657	16.9781
2.79506	17.1454
2.79355	17.3986
2.79205	17.5153
2.79055	17.7531
2.78904	18.1722
2.78754	18.6977
2.78605	18.9285
2.78455	18.9058
2.78306	18.973
2.78156	19.1185
2.78007	19.3697
2.77858	19.7329
2.77709	20.1487
2.77561	20.3064
2.77412	20.4616
2.77264	20.7482
2.77116	21.1569
2.76968	21.5463
2.7682	21.9741
2.76672	22.1635
2.76524	22.4498
2.76377	23.1157
2.7623	23.5056
2.76083	23.3231
2.75936	23.4187
2.75789	24.0033
2.75642	24.8899
2.75496	25.4719
2.7535	25.557
2.75203	25.8135
2.75057	26.0744
2.74912	26.6642
2.74766	27.3316
2.7462	28.0248
2.74475	28.6394
2.7433	29.3342
2.74185	30.6724
2.7404	32.1306
2.73895	32.491
2.7375	32.4709
2.73606	33.2396
2.73462	34.3161
2.73318	34.7376
2.73174	35.2782
2.7303	36.1137
2.72886	37.1153
2.72742	38.233
2.72599	39.9793
2.72456	41.7163
2.72313	42.1972
2.7217	43.6013
2.72027	45.3374
2.71884	45.2229
2.71742	45.6297
2.71599	46.2559
2.71457	47.1447
2.71315	48.3723
2.71173	50.3922
2.71032	51.6686
2.7089	51.914
2.70748	52.1619
2.70607	52.7002
2.70466	53.4187
2.70325	54.206
2.70184	55.3077
2.70043	55.9293
2.69903	56.3182
2.69762	56.9934
2.69622	58.1608
2.69482	59.5568
2.69342	60.1047
2.69202	59.6659
2.69062	59.8193
2.68923	60.4405
2.68783	60.9914
2.68644	61.5536
2.68505	61.9582
2.68366	62.4706
2.68227	62.5366
2.68089	62.9167
2.6795	64.2045
2.67812	64.8714
2.67673	65.473
2.67535	65.0004
2.67397	64.4248
2.6726	64.86
2.67122	67.0775
2.66984	67.5716
2.66847	66.4012
2.6671	67.6275
2.66572	68.0694
2.66435	67.2661
2.66299	66.2183
2.66162	66.3756
2.66025	66.6947
2.65889	66.5578
2.65753	66.198
2.65616	66.6986
2.65481	66.8428
2.65345	67.1838
2.65209	67.4442
2.65073	67.0144
2.64938	66.8732
2.64803	67.119
2.64667	67.6191
2.64532	67.8815
2.64397	67.5025
2.64263	67.5889
2.64128	67.7436
2.63994	67.8529
2.63859	67.869
2.63725	67.9468
2.63591	68.0617
2.63457	68.5971
2.63323	68.7642
2.6319	69.3077
2.63056	70.43
2.62923	69.5968
2.62789	69.3519
2.62656	70.0706
2.62523	69.1908
2.6239	68.7091
2.62258	68.7941
2.62125	70.03
2.61993	70.5906
2.6186	70.1114
2.61728	71.034
2.61596	70.5491
2.61464	69.4559
2.61332	69.4789
2.61201	69.4173
2.61069	69.7435
2.60938	70.1716
2.60807	70.3737
2.60675	70.8942
2.60544	71.4753
2.60414	70.9149
2.60283	70.387
2.60152	70.1398
2.60022	69.8501
2.59891	69.6377
2.59761	69.9977
2.59631	71.7881
2.59501	73.9777
2.59371	72.2632
2.59242	70.198
2.59112	69.8061
2.58983	70.2375
2.58853	70.7085
2.58724	70.8894
2.58595	70.4228
2.58466	71.1448
2.58338	71.379
2.58209	70.693
2.5808	70.5642
2.57952	69.8998
2.57824	70.14
2.57695	70.6757
2.57567	70.3203
2.5744	70.64
2.57312	71.0081
2.57184	70.2421
2.57057	70.5325
2.56929	70.6386
2.56802	69.9572
2.56675	69.7543
2.56548	70.2652
2.56421	70.8547
2.56294	71.1207
2.56168	71.3238
2.56041	70.787
2.55915	69.967
2.55789	69.7047
2.55662	69.7497
2.55536	69.844
2.5541	70.0674
2.55285	70.311
2.55159	70.2248
2.55034	69.9985
2.54908	69.9235
2.54783	70.1017
2.54658	69.9067
2.54533	69.8108
2.54408	70.022
2.54283	70.2481
2.54159	70.0082
2.54034	69.7986
2.5391	69.7852
2.53785	69.8505
2.53661	70.1133
2.53537	70.0693
2.53413	69.9204
2.53289	70.0688
2.53166	70.0281
2.53042	69.9877
2.52919	69.987
2.52795	69.9489
2.52672	69.9084
2.52549	69.9622
2.52426	70.0019
2.52303	69.9487
2.52181	69.8725
2.52058	69.9348
2.51936	69.9775
2.51813	69.9879
2.51691	70.013
2.51569	70.07
2.51447	70.0553
2.51325	70.0657
2.51203	70.24
2.51082	70.3457
2.5096	70.2048
2.50839	70.1584
2.50717	70.2079
2.50596	70.3015
2.50475	70.3124
2.50354	70.2313
2.50233	70.2297
2.50113	70.3394
2.49992	70.5432
2.49872	70.5454
2.49751	70.5386
2.49631	70.5875
2.49511	70.5951
2.49391	70.5578
2.49271	70.6131
2.49151	70.7289
2.49031	70.8093
2.48912	70.8472
2.48792	70.9106
2.48673	71.0148
2.48554	71.055
2.48435	70.9904
2.48316	71.0471
2.48197	71.039
2.48078	71.0007
2.4796	71.1041
2.47841	71.1551
2.47723	71.1299
2.47604	71.2
2.47486	71.1576
2.47368	71.2118
2.4725	71.4203
2.47132	71.499
2.47014	71.4979
2.46897	71.4955
2.46779	71.4441
2.46662	71.429
2.46545	71.6048
2.46427	71.8106
2.4631	71.8043
2.46193	71.7517
2.46077	71.7329
2.4596	71.6356
2.45843	71.7474
2.45727	71.9121
2.4561	71.955
2.45494	71.9855
2.45378	71.9537
2.45262	72.0053
2.45146	72.0783
2.4503	72.0476
2.44914	72.1535
2.44799	72.3113
2.44683	72.3339
2.44568	72.358
2.44452	72.4044
2.44337	72.4779
2.44222	72.4197
2.44107	72.3636
2.43992	72.3713
2.43877	72.3706
2.43763	72.482
2.43648	72.5982
2.43534	72.693
2.43419	72.699
2.43305	72.6467
2.43191	72.6266
2.43077	72.5812
2.42963	72.6407
2.42849	72.6913
2.42736	72.9197
2.42622	73.0049
2.42509	73.0589
2.42395	73.1951
2.42282	73.1028
2.42169	72.994
2.42056	73.081
2.41943	73.1832
2.4183	73.149
2.41717	73.0412
2.41605	73.1247
2.41492	73.3276
2.4138	73.3833
2.41267	73.2856
2.41155	73.2566
2.41043	73.3198
2.40931	73.3689
2.40819	73.4472
2.40707	73.3929
2.40595	73.3813
2.40484	73.4199
2.40372	73.5127
2.40261	73.6107
2.4015	73.7148
2.40039	73.6878
2.39928	73.5323
2.39817	73.5811
2.39706	73.6035
2.39595	73.6493
2.39484	73.7175
2.39374	73.768
2.39263	73.7757
2.39153	73.7395
2.39043	73.7577
2.38932	73.852
2.38822	74.0189
2.38712	74.0942
2.38603	74.0144
2.38493	73.9806
2.38383	73.8727
2.38274	73.8735
2.38164	74.0823
2.38055	74.1923
2.37946	74.1522
2.37836	74.2444
2.37727	74.2751
2.37618	74.1599
2.3751	74.1705
2.37401	74.1862
2.37292	74.1618
2.37184	74.1908
2.37075	74.2155
2.36967	74.1992
2.36859	74.3022
2.3675	74.3595
2.36642	74.3812
2.36534	74.4392
2.36427	74.5112
2.36319	74.4879
2.36211	74.3802
2.36104	74.3538
2.35996	74.3685
2.35889	74.3685
2.35781	74.4863
2.35674	74.6893
2.35567	74.7188
2.3546	74.6187
2.35353	74.6317
2.35247	74.7777
2.3514	74.691
2.35033	74.5978
2.34927	74.7552
2.3482	74.8514
2.34714	74.6528
2.34608	74.6958
2.34502	74.781
2.34396	74.7025
2.3429	74.7702
2.34184	74.8308
2.34078	74.8414
2.33973	74.7898
2.33867	74.7595
2.33762	74.852
2.33656	74.9014
2.33551	74.9313
2.33446	74.9855
2.33341	74.9994
2.33236	74.8933
2.33131	74.7471
2.33026	74.7871
2.32922	74.9604
2.32817	75.1189
2.32712	75.122
2.32608	75.0059
2.32504	74.9722
2.324	75.0617
2.32295	75.1313
2.32191	75.1642
2.32087	75.1831
2.31984	75.0539
2.3188	75.023
2.31776	75.1195
2.31673	75.235
2.31569	75.2812
2.31466	75.2134
2.31362	75.1581
2.31259	75.1536
2.31156	75.1689
2.31053	75.1247
2.3095	75.1961
2.30847	75.2091
2.30745	75.1021
2.30642	75.0839
2.3054	75.1978
2.30437	75.312
2.30335	75.178
2.30232	75.1027
2.3013	75.2367
2.30028	75.3059
2.29926	75.1423
2.29824	75.092
2.29722	75.1904
2.29621	75.3108
2.29519	75.3143
2.29417	75.3545
2.29316	75.4281
2.29215	75.4009
2.29113	75.2751
2.29012	75.1965
2.28911	75.2995
2.2881	75.3212
2.28709	75.2335
2.28608	75.2211
2.28507	75.3871
2.28407	75.4723
2.28306	75.3301
2.28206	75.2688
2.28105	75.3716
2.28005	75.2964
2.27905	75.2604
2.27805	75.3533
2.27705	75.3371
2.27605	75.258
2.27505	75.2943
2.27405	75.3622
2.27305	75.3853
2.27206	75.3637
2.27106	75.3026
2.27007	75.4251
2.26907	75.5012
2.26808	75.4009
2.26709	75.3794
2.2661	75.4113
2.26511	75.3333
2.26412	75.3022
2.26313	75.2952
2.26214	75.3553
2.26116	75.4066
2.26017	75.5027
2.25919	75.4969
2.2582	75.432
2.25722	75.337
2.25624	75.3722
2.25526	75.4858
2.25428	75.5003
2.2533	75.4176
2.25232	75.3463
2.25134	75.4116
2.25036	75.4793
2.24939	75.4629
2.24841	75.3644
2.24744	75.2897
2.24646	75.2792
2.24549	75.3705
2.24452	75.4826
2.24355	75.5806
2.24257	75.5636
2.24161	75.3979
2.24064	75.4516
2.23967	75.4711
2.2387	75.4388
2.23774	75.4672
2.23677	75.5171
2.23581	75.5388
2.23484	75.4823
2.23388	75.4272
2.23292	75.428
2.23196	75.3646
2.231	75.2637
2.23004	75.3283
2.22908	75.3891
2.22812	75.4122
2.22716	75.4321
2.22621	75.4706
2.22525	75.4693
2.2243	75.3678
2.22334	75.4476
2.22239	75.4816
2.22144	75.4339
2.22049	75.4364
2.21953	75.4345
2.21859	75.3041
2.21764	75.193
2.21669	75.3021
2.21574	75.4215
2.21479	75.4591
2.21385	75.5135
2.2129	75.3756
2.21196	75.2285
2.21102	75.2739
2.21007	75.2938
2.20913	75.2503
2.20819	75.2801
2.20725	75.309
2.20631	75.3747
2.20537	75.4034
2.20444	75.3955
2.2035	75.4146
2.20256	75.4224
2.20163	75.4021
2.20069	75.3503
2.19976	75.2181
2.19883	75.2234
2.19789	75.3011
2.19696	75.2728
2.19603	75.3802
2.1951	75.3778
2.19417	75.1843
2.19325	75.3155
2.19232	75.4512
2.19139	75.4228
2.19047	75.3333
2.18954	75.3003
2.18862	75.2672
2.18769	75.3349
2.18677	75.3318
2.18585	75.2468
2.18493	75.2836
2.18401	75.2021
2.18309	75.0945
2.18217	75.1275
2.18125	75.162
2.18033	75.281
2.17942	75.427
2.1785	75.3238
2.17759	75.1516
2.17667	75.1806
2.17576	75.1619
2.17485	75.1932
2.17393	75.2307
2.17302	75.2884
2.17211	75.2832
2.1712	75.1875
2.17029	75.2319
2.16939	75.1597
2.16848	75.0453
2.16757	75.1163
2.16667	75.1843
2.16576	75.2082
2.16486	75.2296
2.16395	75.2053
2.16305	75.2282
2.16215	75.1602
2.16125	75.0302
2.16035	75.1191
2.15945	75.1824
2.15855	75.246
2.15765	75.188
2.15675	75.02
2.15586	75.1129
2.15496	75.2104
2.15406	75.1912
2.15317	75.1652
2.15228	75.106
2.15138	75.1351
2.15049	75.2706
2.1496	75.2939
2.14871	75.1263
2.14782	75.0489
2.14693	75.088
2.14604	75.1541
2.14515	75.1576
2.14427	75.1074
2.14338	75.0019
2.14249	75.0132
2.14161	75.0772
2.14072	75.0285
2.13984	74.934
2.13896	74.9098
2.13808	74.9748
2.13719	75.1015
2.13631	75.1484
2.13543	75.1298
2.13455	75.1121
2.13368	75.0206
2.1328	74.9118
2.13192	75.0051
2.13105	75.032
2.13017	75.0119
2.1293	75.0497
2.12842	75.0441
2.12755	75.0045
2.12668	74.9113
2.1258	74.9286
2.12493	75.069
2.12406	74.9672
2.12319	74.9476
2.12232	74.9614
2.12145	74.9325
2.12059	74.8286
2.11972	74.9411
2.11885	74.8757
2.11799	74.8668
2.11712	74.9268
2.11626	74.8951
2.1154	74.9773
2.11453	74.7884
2.11367	74.6305
2.11281	74.5844
2.11195	74.5595
2.11109	74.7373
2.11023	74.8206
2.10937	74.8221
2.10851	74.7944
2.10766	74.7424
2.1068	74.9338
2.10594	74.909
2.10509	74.6946
2.10423	74.7338
2.10338	74.7258
2.10253	74.6896
2.10168	74.7008
2.10082	74.612
2.09997	74.504
2.09912	74.6536
2.09827	74.6367
2.09742	74.582
2.09658	74.5351
2.09573	74.5402
2.09488	74.5817
2.09404	74.6889
2.09319	74.6816
2.09235	74.5557
2.0915	74.3784
2.09066	74.4426
2.08982	74.4458
2.08897	74.3688
2.08813	74.4489
2.08729	74.4711
2.08645	74.38
2.08561	74.4275
2.08477	74.5837
2.08394	74.3282
2.0831	74.1884
2.08226	74.3379
2.08143	74.5739
2.08059	74.4758
2.07976	74.1854
2.07892	74.2685
2.07809	74.0752
2.07726	73.937
2.07643	74.0979
2.07559	74.0417
2.07476	74.1886
2.07393	74.0504
2.0731	73.6475
2.07228	73.8811
2.07145	74.4188
2.07062	74.3437
2.06979	74.0577
2.06897	73.9981
2.06814	74.1206
2.06732	74.1921
2.06649	74.1345
2.06567	74.0616
2.06485	73.9571
2.06403	73.9382
2.0632	73.8027
2.06238	73.7119
2.06156	73.9827
2.06074	74.0834
2.05993	73.8061
2.05911	73.6211
2.05829	73.6352
2.05747	73.5842
2.05666	73.4958
2.05584	73.5422
2.05503	73.6266
2.05421	73.6491
2.0534	73.6747
2.05259	73.6554
2.05177	73.6508
2.05096	73.6845
2.05015	73.7106
2.04934	73.6097
2.04853	73.5588
2.04772	73.4245
2.04691	73.3652
2.04611	73.4036
2.0453	73.3056
2.04449	73.3379
2.04369	73.4949
2.04288	73.6167
2.04208	73.6419
2.04127	73.3129
2.04047	73.1168
2.03967	73.318
2.03886	73.319
2.03806	73.181
2.03726	73.1547
2.03646	73.0173
2.03566	72.9872
2.03486	73.0612
2.03407	73.1614
2.03327	73.0322
2.03247	72.8874
2.03167	72.9185
2.03088	72.8235
2.03008	72.8034
2.02929	72.779
2.0285	72.9921
2.0277	73.0155
2.02691	72.7612
2.02612	72.5659
2.02533	72.4385
2.02453	72.398
2.02374	72.3971
2.02295	72.4256
2.02217	72.5076
2.02138	72.5586
2.02059	72.3586
2.0198	72.1956
2.01902	72.1513
2.01823	72.2379
2.01744	72.3451
2.01666	72.2484
2.01588	72.0683
2.01509	72.0696
2.01431	72.0961
2.01353	71.9742
2.01275	71.908
2.01196	71.8769
2.01118	71.7004
2.0104	71.5879
2.00963	71.5037
2.00885	71.5962
2.00807	71.5526
2.00729	71.3438
2.00651	71.2604
2.00574	71.322
2.00496	71.4954
2.00419	71.6616
2.00341	71.4565
2.00264	71.3274
2.00187	71.1833
2.00109	71.1491
2.00032	71.0454
