Name: Sodalite Na_8Al_6Si_6O_24Cl_2
Type: Mineral
Class: Silicates
Subclass: Tectosilicates
Particle Size: 0-45um
Sample No.: TS-10A
Owner: JPL
Wavelength range: IR
Origin: Canada, Ontario, Hastings County, Bancroft
Collected by JPL
Description: 





Measurement: Hemispherical reflectance
First Column: X
Second Column: Y
X Units:  Wavelength (micrometers)
Y Units:  Reflectance (percent)
First X Value: 15.3853
Last X Value: 2.00032
Number of X Values: 2256
Additional information: ts10aa.txt
 
15.3853	6.82051
15.3397	6.26724
15.2945	6.04395
15.2495	5.92113
15.2048	5.64208
15.1603	5.15882
15.1161	4.84835
15.0722	4.76276
15.0285	4.64836
14.9851	4.58901
14.9419	4.30539
14.8989	3.31238
14.8563	2.1829
14.8138	1.94441
14.7716	2.11671
14.7296	2.26319
14.6879	2.64136
14.6464	3.05564
14.6052	3.32503
14.5641	3.65545
14.5233	4.0215
14.4828	4.1129
14.4424	3.94052
14.4023	3.97224
14.3624	4.08812
14.3227	4.17334
14.2833	4.32073
14.244	4.35054
14.205	4.04077
14.1662	3.64977
14.1276	3.47491
14.0892	3.3789
14.051	3.22729
14.0131	2.82357
13.9753	2.34766
13.9377	2.12018
13.9004	2.17979
13.8632	2.51699
13.8262	2.96471
13.7895	3.44582
13.7529	3.80543
13.7165	4.18914
13.6803	4.6291
13.6443	4.99588
13.6085	5.47393
13.5729	5.83055
13.5374	5.62304
13.5022	4.74163
13.4671	3.69586
13.4322	2.73275
13.3975	1.94115
13.363	1.49743
13.3286	1.56378
13.2944	1.92309
13.2604	2.3044
13.2266	2.59147
13.193	2.86735
13.1595	3.15893
13.1262	3.28031
13.093	3.53252
13.06	3.92748
13.0272	4.39093
12.9946	4.92107
12.9621	5.42689
12.9298	5.80338
12.8976	6.13088
12.8656	6.38616
12.8337	6.54374
12.8021	6.6831
12.7705	6.87583
12.7391	7.15918
12.7079	7.48133
12.6769	7.70224
12.6459	7.80037
12.6152	7.94057
12.5845	8.10643
12.5541	8.36191
12.5238	8.73025
12.4936	9.04967
12.4635	9.26053
12.4337	9.60364
12.4039	9.91495
12.3743	9.94596
12.3448	9.97593
12.3155	10.1256
12.2863	10.4357
12.2573	10.8104
12.2284	11.0285
12.1996	11.1518
12.171	11.3725
12.1425	11.5205
12.1141	11.5917
12.0859	11.6888
12.0578	11.7879
12.0298	11.9375
12.0019	12.1128
11.9742	12.2675
11.9466	12.3649
11.9192	12.4843
11.8918	12.5355
11.8646	12.3446
11.8375	11.9967
11.8106	11.6944
11.7837	11.6122
11.757	11.9913
11.7304	12.12
11.7039	11.9143
11.6776	11.6603
11.6513	11.3576
11.6252	11.0086
11.5992	10.8615
11.5733	10.8571
11.5475	10.6936
11.5219	10.047
11.4963	9.13646
11.4709	8.28877
11.4455	7.73436
11.4203	7.52937
11.3952	7.42721
11.3702	7.56897
11.3454	7.87585
11.3206	8.17997
11.2959	8.76037
11.2714	9.39472
11.2469	9.48902
11.2226	9.25181
11.1983	9.15679
11.1742	9.15366
11.1502	9.16142
11.1263	9.15396
11.1024	9.17192
11.0787	9.16926
11.0551	9.04942
11.0316	8.94147
11.0081	9.01351
10.9848	9.10427
10.9616	9.22592
10.9385	9.40439
10.9154	9.29301
10.8925	9.26274
10.8697	9.43861
10.8469	9.35431
10.8243	9.10774
10.8017	9.0243
10.7793	8.96842
10.7569	8.94737
10.7346	8.92084
10.7125	8.80092
10.6904	8.76094
10.6684	8.73822
10.6465	8.73811
10.6247	8.64424
10.6029	8.58103
10.5813	8.6278
10.5597	8.67956
10.5383	8.8019
10.5169	8.89375
10.4956	8.93859
10.4744	9.08264
10.4533	9.37673
10.4323	9.67961
10.4113	10.1173
10.3904	10.6937
10.3697	11.2653
10.349	11.7042
10.3284	11.9477
10.3078	12.5904
10.2874	13.918
10.267	15.206
10.2467	15.9767
10.2265	16.1193
10.2064	15.8271
10.1863	15.5821
10.1663	15.2099
10.1464	14.9276
10.1266	15.0353
10.1069	15.2923
10.0872	15.5345
10.0676	15.742
10.0481	15.8645
10.0287	15.8957
10.0093	15.9051
9.99005	15.9284
9.97084	15.9138
9.95169	15.8808
9.93263	15.8445
9.91364	15.7465
9.89472	15.7031
9.87587	15.8584
9.8571	15.8315
9.83839	15.788
9.81976	15.9114
9.80119	15.9322
9.78271	15.7755
9.76428	15.6538
9.74592	15.6403
9.72764	15.7143
9.70943	15.7718
9.69128	15.7883
9.6732	15.6511
9.65518	15.5081
9.63724	15.6332
9.61935	15.9507
9.60155	16.1336
9.5838	16.2969
9.56611	16.6735
9.5485	17.1195
9.53094	17.548
9.51345	18.1658
9.49604	18.808
9.47867	19.2628
9.46137	19.6231
9.44414	19.9222
9.42697	19.9675
9.40986	19.7277
9.39281	19.1455
9.37583	18.007
9.35891	16.7279
9.34204	15.4837
9.32524	14.2192
9.3085	13.1437
9.29182	12.2504
9.27519	11.3862
9.25863	10.4754
9.24213	9.59367
9.22568	8.86641
9.2093	8.41124
9.19297	8.10128
9.17669	7.73039
9.16048	7.58592
9.14433	7.51536
9.12823	7.2493
9.11218	7.08251
9.0962	6.86631
9.08027	6.54104
9.06439	6.29315
9.04858	6.08072
9.03281	6.0056
9.0171	5.9818
9.00145	5.89833
8.98585	5.75023
8.9703	5.61909
8.9548	5.56523
8.93937	5.51765
8.92398	5.35718
8.90865	5.32301
8.89337	5.25209
8.87814	5.15453
8.86296	5.11492
8.84784	5.08512
8.83277	4.9034
8.81774	4.74279
8.80277	4.75357
8.78786	4.72432
8.77298	4.66748
8.75816	4.70351
8.7434	4.81682
8.72868	4.83975
8.714	4.70827
8.69938	4.6789
8.68481	4.78551
8.67029	4.86744
8.65581	4.78392
8.64139	4.79828
8.62701	4.82149
8.61268	4.73633
8.5984	4.67202
8.58416	4.7068
8.56997	4.75816
8.55583	4.82051
8.54174	4.93762
8.52769	5.08353
8.51368	5.1232
8.49973	5.15834
8.48582	5.26878
8.47195	5.32852
8.45813	5.45585
8.44436	5.51192
8.43062	5.63646
8.41693	5.72858
8.4033	5.75572
8.3897	5.93378
8.37614	6.25558
8.36264	6.54837
8.34917	6.90911
8.33574	7.21997
8.32236	7.31167
8.30903	7.32761
8.29573	7.6254
8.28248	8.05354
8.26927	8.28748
8.2561	8.4616
8.24298	8.63868
8.2299	8.76289
8.21685	8.8297
8.20385	8.85342
8.19089	8.90312
8.17797	8.9761
8.16509	8.89269
8.15225	8.70187
8.13946	8.66204
8.1267	8.77327
8.11398	8.75088
8.10131	8.68753
8.08867	8.69699
8.07606	8.69359
8.0635	8.74505
8.05099	8.91103
8.0385	9.06091
8.02606	9.28959
8.01366	9.49038
8.00129	9.69805
7.98896	9.97501
7.97667	10.2416
7.96442	10.3696
7.9522	10.4372
7.94002	10.6053
7.92788	10.7238
7.91578	10.8256
7.90371	10.8905
7.89168	10.9575
7.87969	11.1229
7.86773	11.2441
7.85581	11.1572
7.84392	11.1655
7.83207	11.1952
7.82026	11.1762
7.80849	11.1928
7.79674	11.2484
7.78503	11.3766
7.77337	11.4154
7.76173	11.4187
7.75012	11.5138
7.73856	11.6096
7.72703	11.6391
7.71553	11.6513
7.70406	11.68
7.69263	11.7178
7.68123	11.7559
7.66987	11.6803
7.65855	11.7018
7.64725	11.716
7.63598	11.6142
7.62475	11.4557
7.61356	11.4412
7.60239	11.4411
7.59126	11.4593
7.58017	11.4798
7.5691	11.452
7.55806	11.4574
7.54707	11.3899
7.5361	11.2962
7.52516	11.1197
7.51425	10.7307
7.50338	10.041
7.49253	9.00754
7.48172	8.41307
7.47094	9.16331
7.46019	10.3035
7.44947	10.9358
7.43879	11.2736
7.42813	11.4398
7.4175	11.501
7.4069	11.4528
7.39634	11.4435
7.3858	11.4204
7.37529	11.2401
7.36482	11.1203
7.35437	10.9267
7.34396	10.7338
7.33357	10.4495
7.32321	10.0866
7.31288	9.84014
7.30258	9.71648
7.29231	9.49712
7.28207	9.24899
7.27185	9.03715
7.26167	8.70781
7.25152	8.44198
7.24139	8.26282
7.23129	8.11025
7.22122	8.01379
7.21117	7.91851
7.20116	7.77984
7.19117	7.63507
7.18121	7.58704
7.17128	7.57965
7.16137	7.38587
7.1515	7.26804
7.14164	7.17373
7.13182	7.07151
7.12203	7.05223
7.11225	6.99215
7.10251	6.93343
7.0928	6.83743
7.08311	6.64644
7.07344	6.55929
7.06381	6.53016
7.0542	6.51669
7.04461	6.51344
7.03506	6.32317
7.02552	6.15554
7.01601	6.00509
7.00653	5.9042
6.99708	5.89349
6.98765	5.72287
6.97824	5.54544
6.96886	5.5801
6.95951	5.51071
6.95018	5.28945
6.94087	5.21605
6.9316	5.13056
6.92234	5.11856
6.91311	5.16706
6.90391	5.20493
6.89473	5.21213
6.88557	5.23836
6.87644	5.27621
6.86733	5.40734
6.85824	5.50618
6.84918	5.4784
6.84015	5.48532
6.83114	5.58291
6.82215	5.70571
6.81319	5.73561
6.80424	5.75651
6.79532	5.92433
6.78643	6.12096
6.77756	6.17332
6.76871	6.28838
6.75989	6.36561
6.75109	6.38746
6.74231	6.4046
6.73355	6.46754
6.72482	6.59511
6.71611	6.76054
6.70742	6.88215
6.69875	6.90614
6.69011	7.07521
6.68149	7.30907
6.67289	7.42212
6.66431	7.56395
6.65576	7.70498
6.64722	7.96968
6.63871	8.47416
6.63022	8.56168
6.62175	8.4138
6.61331	8.53504
6.60488	8.66877
6.59648	8.89244
6.5881	9.10409
6.57974	9.35863
6.5714	9.68937
6.56308	9.96094
6.55478	10.4482
6.54651	10.8081
6.53825	11.0557
6.53001	11.5122
6.5218	12.0835
6.51361	12.3597
6.50544	12.7243
6.49729	13.4941
6.48915	13.8494
6.48104	13.8059
6.47295	13.8163
6.46488	13.7517
6.45683	13.7937
6.4488	13.8683
6.44079	13.9081
6.4328	14.0146
6.42482	14.0556
6.41687	14.3605
6.40894	13.8905
6.40103	13.1035
6.39314	12.8572
6.38526	12.7863
6.37741	12.9268
6.36957	13.1442
6.36176	13.0638
6.35396	13.1471
6.34618	13.5417
6.33843	13.425
6.33069	13.1978
6.32297	13.174
6.31527	13.0966
6.30758	13.1275
6.29992	13.1582
6.29227	13.1657
6.28465	13.1801
6.27704	13.207
6.26945	13.2571
6.26188	13.2435
6.25432	13.1172
6.24679	13.0197
6.23927	12.9199
6.23177	12.762
6.22429	12.6698
6.21683	12.51
6.20938	12.3022
6.20195	12.1364
6.19454	12.0957
6.18715	12.3906
6.17978	12.413
6.17242	12.1876
6.16508	12.2897
6.15776	12.4216
6.15045	12.388
6.14317	12.3386
6.1359	12.0007
6.12864	11.7095
6.12141	11.7605
6.11419	11.9418
6.10699	11.9204
6.0998	11.9597
6.09263	12.1515
6.08549	12.2753
6.07835	12.5725
6.07123	12.668
6.06413	12.4246
6.05705	12.5228
6.04998	12.8964
6.04293	12.4923
6.0359	12.115
6.02888	12.0649
6.02187	12.1788
6.01489	12.4176
6.00792	12.6248
6.00096	12.8592
5.99403	13.2533
5.98711	13.3834
5.9802	13.27
5.97331	13.3119
5.96644	13.0764
5.95958	12.3852
5.95274	11.8957
5.94591	11.6361
5.9391	11.5349
5.9323	10.9261
5.92552	10.3581
5.91876	10.0736
5.91201	9.87912
5.90528	9.86139
5.89856	10.0423
5.89186	9.96094
5.88517	9.88965
5.8785	9.42817
5.87184	8.52643
5.8652	7.79185
5.85857	7.65909
5.85196	8.56173
5.84536	10.2029
5.83878	11.9207
5.83221	13.5575
5.82566	15.0837
5.81912	16.2379
5.81259	16.8012
5.80608	17.5065
5.79959	18.5365
5.79311	19.3911
5.78665	20.1745
5.78019	20.8455
5.77376	21.559
5.76734	22.3173
5.76093	22.0977
5.75453	21.8703
5.74815	22.1413
5.74179	22.0819
5.73543	21.9813
5.7291	22.0503
5.72277	22.2859
5.71646	22.4465
5.71017	22.5558
5.70389	22.3234
5.69762	22.436
5.69136	22.7545
5.68513	22.9366
5.6789	23.3069
5.67268	23.6525
5.66648	23.778
5.6603	24.134
5.65413	24.5189
5.64797	25.1356
5.64182	25.839
5.63569	25.9463
5.62957	25.8888
5.62347	25.8569
5.61737	25.612
5.61129	24.9939
5.60522	24.1758
5.59917	23.1088
5.59313	21.9088
5.5871	20.9102
5.58109	19.9937
5.57509	18.9593
5.5691	18.3305
5.56312	18.207
5.55716	18.4325
5.55121	18.9969
5.54528	20.0269
5.53935	21.5712
5.53344	23.4536
5.52754	25.4956
5.52166	27.294
5.51578	28.7007
5.50992	29.8436
5.50407	30.8438
5.49823	31.5374
5.49241	32.1808
5.4866	32.8634
5.4808	33.6255
5.47501	34.179
5.46923	34.8615
5.46347	35.6491
5.45772	36.1984
5.45198	36.9545
5.44625	37.9417
5.44054	38.8542
5.43484	39.8779
5.42914	41.1531
5.42347	42.6618
5.4178	43.5392
5.41214	44.2351
5.4065	45.1156
5.40087	45.924
5.39525	46.6063
5.38964	47.2763
5.38404	47.8829
5.37846	48.3414
5.37288	48.8018
5.36732	49.31
5.36177	49.7443
5.35623	50.3561
5.35071	50.9421
5.34519	51.004
5.33968	51.0161
5.33419	51.2077
5.32871	51.3828
5.32324	51.5755
5.31778	51.6787
5.31233	51.8032
5.30689	51.8893
5.30147	52.0014
5.29605	52.2907
5.29065	52.5655
5.28525	52.5146
5.27987	52.5915
5.2745	52.6574
5.26914	52.6647
5.26379	52.6695
5.25845	52.7079
5.25312	52.6698
5.24781	52.5904
5.2425	52.4495
5.23721	52.1997
5.23192	51.7658
5.22665	51.3491
5.22138	50.8536
5.21613	50.3784
5.21089	49.6213
5.20566	48.5678
5.20044	47.5334
5.19522	46.2819
5.19002	44.9772
5.18483	43.6395
5.17965	42.1705
5.17448	40.5592
5.16933	38.7672
5.16418	36.8336
5.15904	34.6742
5.15391	32.3545
5.14879	29.9935
5.14368	27.6939
5.13859	25.9168
5.1335	25.1472
5.12842	25.4047
5.12335	26.6034
5.1183	28.4745
5.11325	30.8085
5.10821	33.2521
5.10318	35.5734
5.09817	37.4884
5.09316	39.0384
5.08816	40.2474
5.08317	41.1235
5.07819	41.6231
5.07322	42.0643
5.06826	42.502
5.06331	42.8854
5.05837	43.2642
5.05344	43.716
5.04852	44.1181
5.04361	44.5013
5.03871	44.7859
5.03382	45.1418
5.02894	45.5194
5.02406	45.8487
5.0192	46.032
5.01435	45.8504
5.0095	45.5121
5.00467	45.2489
4.99984	45.0046
4.99502	45.0967
4.99021	45.5165
4.98542	46.3148
4.98063	47.2839
4.97585	48.1094
4.97108	48.505
4.96632	48.2939
4.96156	47.506
4.95682	46.3038
4.95209	44.6134
4.94736	42.6558
4.94264	40.6312
4.93794	38.8714
4.93324	37.4968
4.92855	36.6203
4.92387	36.1935
4.9192	36.1347
4.91453	36.2856
4.90988	36.4789
4.90524	36.7481
4.9006	36.9219
4.89597	36.9204
4.89135	36.838
4.88674	36.7074
4.88214	36.6213
4.87755	36.5827
4.87296	36.6721
4.86839	37.0133
4.86382	37.5723
4.85926	38.3561
4.85471	39.3824
4.85017	40.5733
4.84564	41.8363
4.84111	43.1612
4.8366	44.4909
4.83209	45.6634
4.82759	46.7258
4.8231	47.6371
4.81862	48.3485
4.81415	48.9677
4.80968	49.6229
4.80522	50.2149
4.80077	50.7308
4.79633	51.3407
4.7919	51.9959
4.78747	52.6369
4.78306	53.3046
4.77865	54.0519
4.77425	54.8902
4.76986	55.7193
4.76547	56.4637
4.7611	57.0421
4.75673	57.5528
4.75237	57.9683
4.74802	58.2982
4.74367	58.4561
4.73934	58.4896
4.73501	58.4983
4.73069	58.4121
4.72638	58.2163
4.72207	57.9991
4.71777	57.6688
4.71348	57.3682
4.7092	57.08
4.70493	56.8053
4.70066	56.4745
4.69641	56.1402
4.69216	55.8921
4.68791	55.7016
4.68368	55.5628
4.67945	55.6022
4.67523	55.7452
4.67102	55.915
4.66682	56.1245
4.66262	56.4644
4.65843	56.8742
4.65425	57.4017
4.65007	57.9964
4.64591	58.5545
4.64175	59.1776
4.6376	59.902
4.63345	60.5562
4.62932	61.051
4.62519	61.4671
4.62106	61.8997
4.61695	62.3834
4.61284	62.815
4.60874	63.2207
4.60465	63.6258
4.60056	64.0044
4.59648	64.28
4.59241	64.4635
4.58835	64.7249
4.58429	64.9519
4.58024	65.0788
4.5762	65.1662
4.57216	65.3179
4.56814	65.4127
4.56411	65.4893
4.5601	65.5437
4.55609	65.6514
4.55209	65.7385
4.5481	65.8345
4.54411	65.9165
4.54013	65.9996
4.53616	66.1003
4.5322	66.1633
4.52824	66.1753
4.52429	66.2343
4.52034	66.3349
4.51641	66.4339
4.51247	66.454
4.50855	66.4719
4.50463	66.5459
4.50072	66.6909
4.49682	66.7798
4.49292	66.8784
4.48903	66.9985
4.48515	67.1615
4.48127	67.3166
4.4774	67.4198
4.47354	67.5474
4.46968	67.7444
4.46584	67.8613
4.46199	67.9125
4.45815	68.0309
4.45432	68.242
4.4505	68.3627
4.44668	68.465
4.44287	68.5724
4.43907	68.5954
4.43527	68.6528
4.43148	68.8355
4.4277	68.9111
4.42392	68.8962
4.42015	68.915
4.41638	68.9399
4.41262	68.9374
4.40887	68.9383
4.40513	68.9527
4.40139	68.9761
4.39765	68.9842
4.39393	69.0454
4.39021	69.1275
4.38649	69.2419
4.38278	69.2964
4.37908	69.3303
4.37539	69.3434
4.3717	69.3953
4.36801	69.4004
4.36434	69.3585
4.36067	69.3827
4.357	69.3769
4.35335	69.3124
4.34969	69.2741
4.34605	69.2348
4.34241	69.2096
4.33877	69.158
4.33514	69.2103
4.33152	69.2371
4.32791	69.295
4.3243	69.3525
4.32069	69.3971
4.3171	69.3915
4.31351	69.3781
4.30992	69.3353
4.30634	69.3573
4.30277	69.3862
4.2992	69.4301
4.29564	69.4416
4.29208	69.464
4.28853	69.337
4.28499	69.157
4.28145	68.9294
4.27792	68.69
4.27439	68.4304
4.27087	68.165
4.26735	68.1248
4.26384	68.3202
4.26034	68.4988
4.25684	68.6694
4.25335	69.0141
4.24986	69.4072
4.24638	69.6955
4.24291	69.8671
4.23944	69.9498
4.23598	70.045
4.23252	70.0969
4.22906	70.1161
4.22562	70.0278
4.22218	69.949
4.21874	69.9006
4.21531	69.7849
4.21189	69.6026
4.20847	69.4385
4.20506	69.3094
4.20165	69.2092
4.19825	69.1739
4.19485	69.1299
4.19146	68.9941
4.18807	68.9224
4.18469	68.8891
4.18132	68.8132
4.17795	68.6554
4.17458	68.534
4.17123	68.4991
4.16787	68.4167
4.16453	68.2768
4.16118	68.2421
4.15785	68.1079
4.15451	67.8968
4.15119	67.716
4.14787	67.5821
4.14455	67.408
4.14124	67.2155
4.13794	67.0409
4.13464	66.8545
4.13134	66.685
4.12805	66.448
4.12477	66.1747
4.12149	66.0136
4.11822	65.848
4.11495	65.6187
4.11168	65.3504
4.10843	65.139
4.10517	64.8829
4.10192	64.505
4.09868	64.1594
4.09545	63.8701
4.09221	63.459
4.08899	62.9979
4.08576	62.5416
4.08255	62.0241
4.07933	61.4548
4.07613	60.8694
4.07292	60.188
4.06973	59.4652
4.06654	58.7522
4.06335	58.0686
4.06017	57.1879
4.05699	56.2103
4.05382	55.211
4.05065	54.1694
4.04749	52.971
4.04433	51.6212
4.04118	50.2732
4.03803	48.8423
4.03489	47.4032
4.03175	46.0734
4.02862	44.8497
4.02549	43.7962
4.02237	43.0197
4.01925	42.4194
4.01614	41.9044
4.01303	41.4625
4.00993	40.9625
4.00683	40.4771
4.00373	39.907
4.00064	39.3308
3.99756	38.6715
3.99448	37.8091
3.9914	36.9634
3.98833	36.2248
3.98527	35.586
3.98221	34.9981
3.97915	34.5257
3.9761	34.2286
3.97305	34.1327
3.97001	34.2019
3.96697	34.4034
3.96394	34.7309
3.96091	35.1392
3.95789	35.6612
3.95487	36.323
3.95186	37.1567
3.94885	38.0886
3.94584	39.0869
3.94284	40.1362
3.93984	41.1926
3.93685	42.2077
3.93386	43.0953
3.93088	43.7319
3.9279	44.2895
3.92493	44.777
3.92196	45.1254
3.919	45.3758
3.91604	45.6398
3.91308	45.9418
3.91013	46.1153
3.90718	46.1944
3.90424	46.378
3.9013	46.5719
3.89837	46.7201
3.89544	46.8391
3.89252	46.9549
3.8896	47.0462
3.88668	47.2056
3.88377	47.3254
3.88086	47.4567
3.87796	47.5913
3.87506	47.6914
3.87217	47.8138
3.86928	47.9493
3.86639	48.0659
3.86351	48.2122
3.86064	48.3459
3.85776	48.4579
3.8549	48.5631
3.85203	48.7711
3.84917	49.0388
3.84631	49.3137
3.84346	49.6494
3.84062	50.0049
3.83777	50.4125
3.83494	50.8691
3.8321	51.381
3.82927	52.0241
3.82644	52.7367
3.82362	53.456
3.82081	54.1819
3.81799	55.0348
3.81518	55.8883
3.81238	56.7289
3.80958	57.599
3.80678	58.4649
3.80399	59.3318
3.8012	60.3224
3.79841	61.424
3.79563	62.4912
3.79286	63.4223
3.79008	64.2883
3.78731	65.0877
3.78455	65.7142
3.78179	66.2332
3.77903	66.6401
3.77628	66.872
3.77353	67.0104
3.77079	67.1185
3.76805	67.1607
3.76531	67.2577
3.76258	67.4027
3.75985	67.5113
3.75713	67.6554
3.7544	67.894
3.75169	68.1349
3.74898	68.285
3.74627	68.4637
3.74356	68.5897
3.74086	68.7126
3.73816	68.8367
3.73547	68.9193
3.73278	69.0857
3.7301	69.2553
3.72741	69.3761
3.72474	69.4001
3.72206	69.4787
3.71939	69.5239
3.71673	69.4625
3.71406	69.4623
3.71141	69.5079
3.70875	69.536
3.7061	69.5121
3.70345	69.4975
3.70081	69.45
3.69817	69.4361
3.69553	69.5017
3.6929	69.4756
3.69027	69.3901
3.68765	69.4227
3.68503	69.3702
3.68241	69.2647
3.6798	69.2304
3.67719	69.2466
3.67458	69.3084
3.67198	69.3002
3.66938	69.2608
3.66678	69.2041
3.66419	69.1134
3.66161	69.0998
3.65902	69.0623
3.65644	68.9742
3.65387	68.9388
3.65129	68.9459
3.64872	68.8
3.64616	68.6558
3.64359	68.6388
3.64103	68.567
3.63848	68.4272
3.63593	68.2495
3.63338	68.17
3.63084	68.1245
3.6283	67.9975
3.62576	67.8697
3.62322	67.7808
3.62069	67.6801
3.61817	67.4981
3.61564	67.3261
3.61312	67.2129
3.61061	67.127
3.6081	66.9644
3.60559	66.8289
3.60308	66.6583
3.60058	66.4086
3.59808	66.1368
3.59558	65.8918
3.59309	65.6201
3.59061	65.3406
3.58812	65.0517
3.58564	64.6771
3.58316	64.2646
3.58069	63.8474
3.57822	63.4117
3.57575	62.9992
3.57328	62.5502
3.57082	62.0688
3.56836	61.5989
3.56591	61.1067
3.56346	60.6834
3.56101	60.3113
3.55857	59.887
3.55613	59.4748
3.55369	59.1711
3.55126	58.7568
3.54883	58.2245
3.5464	57.7849
3.54397	57.3682
3.54155	56.862
3.53914	56.4021
3.53672	55.9531
3.53431	55.4039
3.5319	54.7392
3.5295	54.0265
3.5271	53.2649
3.5247	52.4875
3.52231	51.7429
3.51991	50.9366
3.51753	50.124
3.51514	49.4099
3.51276	48.6617
3.51038	47.9644
3.50801	47.2977
3.50563	46.7149
3.50327	46.2206
3.5009	45.7318
3.49854	45.2932
3.49618	44.8994
3.49382	44.5693
3.49147	44.2336
3.48912	43.8376
3.48677	43.427
3.48443	43.1009
3.48209	42.8546
3.47975	42.6545
3.47742	42.5755
3.47509	42.5716
3.47276	42.6981
3.47044	43.0947
3.46812	43.5266
3.4658	44.1036
3.46348	44.7249
3.46117	45.2665
3.45886	45.765
3.45656	46.2771
3.45425	46.6794
3.45195	47.0225
3.44966	47.2041
3.44736	47.3388
3.44507	47.4865
3.44279	47.5314
3.4405	47.5334
3.43822	47.5974
3.43594	47.6176
3.43367	47.4846
3.43139	47.4126
3.42912	47.3986
3.42686	47.3106
3.42459	47.1531
3.42233	47.0174
3.42007	46.9783
3.41782	46.9878
3.41557	47.0195
3.41332	47.0233
3.41108	47.004
3.40883	46.9982
3.40659	47.0834
3.40435	47.1695
3.40212	47.1276
3.39989	47.0056
3.39766	47.0073
3.39544	47.0157
3.39322	47.0723
3.391	47.0722
3.38878	46.9794
3.38657	46.9225
3.38436	46.923
3.38215	46.8478
3.37994	46.7208
3.37774	46.5127
3.37554	46.4742
3.37335	46.4447
3.37115	46.3903
3.36896	46.3558
3.36678	46.212
3.36459	46.0887
3.36241	46.0342
3.36023	45.8944
3.35805	45.6883
3.35588	45.4531
3.35371	45.3014
3.35154	45.1906
3.34938	45.2011
3.34721	45.47
3.34505	45.8211
3.3429	46.485
3.34074	47.5985
3.33859	48.7847
3.33644	50.0793
3.3343	51.3783
3.33215	52.5015
3.33001	53.4611
3.32788	54.2686
3.32574	54.9031
3.32361	55.4325
3.32148	55.8621
3.31936	56.2165
3.31723	56.5741
3.31511	56.8891
3.31299	57.0179
3.31088	56.987
3.30876	56.949
3.30665	56.9403
3.30455	56.8776
3.30244	56.805
3.30034	56.672
3.29824	56.5217
3.29614	56.4418
3.29405	56.5834
3.29196	56.906
3.28987	57.2657
3.28778	57.4803
3.2857	57.5516
3.28362	57.6743
3.28154	57.804
3.27946	57.8621
3.27739	58.0024
3.27532	58.0299
3.27325	57.9248
3.27119	57.9499
3.26913	58.0129
3.26707	57.9698
3.26501	57.9408
3.26295	57.9998
3.2609	58.0179
3.25885	57.9364
3.2568	57.9115
3.25476	57.965
3.25272	57.9161
3.25068	57.8396
3.24864	57.7941
3.24661	57.777
3.24458	57.7485
3.24255	57.6518
3.24052	57.6451
3.2385	57.5909
3.23648	57.4969
3.23446	57.4318
3.23244	57.4541
3.23043	57.4428
3.22841	57.3027
3.2264	57.233
3.2244	57.1618
3.22239	57.0765
3.22039	57.0024
3.21839	57.0142
3.2164	57.0317
3.2144	56.9465
3.21241	56.9414
3.21042	56.8908
3.20844	56.7327
3.20645	56.6004
3.20447	56.5682
3.20249	56.4551
3.20051	56.3458
3.19854	56.3323
3.19657	56.2624
3.1946	56.1533
3.19263	56.0976
3.19067	56.0238
3.1887	55.917
3.18674	55.8287
3.18479	55.7296
3.18283	55.6311
3.18088	55.4554
3.17893	55.3012
3.17698	55.2114
3.17504	55.2038
3.17309	55.1491
3.17115	55.0312
3.16921	54.8829
3.16728	54.7577
3.16534	54.7065
3.16341	54.6309
3.16148	54.5061
3.15956	54.3395
3.15763	54.1192
3.15571	54.0088
3.15379	53.9931
3.15187	53.969
3.14996	53.7721
3.14805	53.5885
3.14614	53.5054
3.14423	53.4747
3.14232	53.4274
3.14042	53.2994
3.13852	53.1963
3.13662	53.12
3.13472	53.0918
3.13283	53.0119
3.13094	52.9403
3.12905	52.9214
3.12716	52.8002
3.12528	52.659
3.12339	52.5366
3.12151	52.3802
3.11964	52.3411
3.11776	52.3517
3.11589	52.2802
3.11401	52.1034
3.11214	51.9584
3.11028	51.8593
3.10841	51.6935
3.10655	51.5741
3.10469	51.4911
3.10283	51.4371
3.10098	51.49
3.09912	51.434
3.09727	51.2556
3.09542	51.1633
3.09358	51.1388
3.09173	51.0991
3.08989	50.9991
3.08805	50.9277
3.08621	50.8743
3.08437	50.7576
3.08254	50.6343
3.08071	50.5792
3.07888	50.6507
3.07705	50.6272
3.07523	50.5264
3.0734	50.4441
3.07158	50.3795
3.06977	50.3093
3.06795	50.2001
3.06613	50.0641
3.06432	49.9574
3.06251	49.9077
3.0607	49.8019
3.0589	49.6829
3.0571	49.6981
3.05529	49.6128
3.05349	49.4795
3.0517	49.3826
3.0499	49.2736
3.04811	49.1507
3.04632	49.1205
3.04453	49.1108
3.04274	49.097
3.04096	49.0994
3.03918	49.0458
3.0374	48.9119
3.03562	48.8369
3.03384	48.8433
3.03207	48.7558
3.03029	48.7001
3.02852	48.6953
3.02676	48.6392
3.02499	48.6067
3.02323	48.5707
3.02146	48.5199
3.0197	48.5285
3.01795	48.53
3.01619	48.3227
3.01444	48.3457
3.01269	48.3987
3.01094	48.3377
3.00919	48.3421
3.00744	48.2885
3.0057	48.2761
3.00396	48.3033
3.00222	48.1839
3.00048	48.157
2.99875	48.1202
2.99701	48.016
2.99528	47.8744
2.99355	47.7191
2.99183	47.7077
2.9901	47.6909
2.98838	47.5966
2.98666	47.5685
2.98494	47.5486
2.98322	47.5698
2.9815	47.5347
2.97979	47.4333
2.97808	47.2899
2.97637	47.2714
2.97466	47.2956
2.97295	47.2393
2.97125	47.1803
2.96955	47.1115
2.96785	47.0708
2.96615	46.9974
2.96446	46.96
2.96276	46.8909
2.96107	46.8203
2.95938	46.8653
2.95769	46.7184
2.95601	46.5442
2.95432	46.5962
2.95264	46.6399
2.95096	46.6067
2.94928	46.532
2.9476	46.4868
2.94593	46.4572
2.94425	46.4219
2.94258	46.3557
2.94092	46.3421
2.93925	46.3686
2.93758	46.3845
2.93592	46.2964
2.93426	46.2706
2.9326	46.2449
2.93094	46.22
2.92928	46.2217
2.92763	46.1643
2.92598	46.0887
2.92433	46.0061
2.92268	46.0377
2.92103	46.0259
2.91939	46.042
2.91775	45.9731
2.9161	45.8875
2.91447	46.0184
2.91283	46.1066
2.91119	46.0634
2.90956	45.9738
2.90793	45.9508
2.9063	46.0734
2.90467	46.2129
2.90304	46.2082
2.90142	46.2238
2.89979	46.158
2.89817	45.9764
2.89656	46.0097
2.89494	46.166
2.89332	46.2356
2.89171	46.1129
2.8901	46.0483
2.88849	46.1267
2.88688	46.1752
2.88527	46.2086
2.88367	46.2929
2.88206	46.3452
2.88046	46.3916
2.87886	46.3615
2.87727	46.3288
2.87567	46.3523
2.87408	46.419
2.87248	46.5018
2.87089	46.5046
2.8693	46.4828
2.86772	46.3749
2.86613	46.3475
2.86455	46.3948
2.86297	46.3767
2.86139	46.2963
2.85981	46.2727
2.85823	46.2361
2.85666	46.2273
2.85508	46.2402
2.85351	46.3193
2.85194	46.3429
2.85038	46.2772
2.84881	46.2113
2.84724	46.1967
2.84568	46.1715
2.84412	46.0722
2.84256	46.0112
2.841	45.9104
2.83945	45.8832
2.83789	46.0554
2.83634	46.0584
2.83479	45.9566
2.83324	45.9925
2.83169	46.0258
2.83015	45.9817
2.82861	45.9717
2.82706	45.9551
2.82552	46.0575
2.82398	46.165
2.82245	46.3575
2.82091	46.7615
2.81938	47.1144
2.81784	47.1796
2.81631	47.389
2.81479	47.8162
2.81326	48.0816
2.81173	48.321
2.81021	48.6615
2.80869	48.9009
2.80716	49.0724
2.80565	49.5739
2.80413	50.1114
2.80261	50.3169
2.8011	50.3489
2.79959	50.5513
2.79808	50.7257
2.79657	50.818
2.79506	50.947
2.79355	51.1864
2.79205	51.4729
2.79055	51.6719
2.78904	51.9625
2.78754	52.4831
2.78605	52.3664
2.78455	52.2238
2.78306	52.5418
2.78156	52.8711
2.78007	52.9081
2.77858	53.1108
2.77709	53.6084
2.77561	53.6575
2.77412	53.7845
2.77264	54.2055
2.77116	54.7104
2.76968	54.8141
2.7682	55.0434
2.76672	55.2579
2.76524	55.2573
2.76377	55.7005
2.7623	56.0327
2.76083	55.784
2.75936	55.8642
2.75789	56.3923
2.75642	57.5106
2.75496	58.0774
2.7535	57.5504
2.75203	57.6797
2.75057	57.9673
2.74912	58.2517
2.74766	58.521
2.7462	58.9221
2.74475	59.3071
2.7433	60.0501
2.74185	61.4179
2.7404	62.3602
2.73895	62.265
2.7375	61.6762
2.73606	62.0816
2.73462	62.8089
2.73318	63.0401
2.73174	63.6443
2.7303	64.2796
2.72886	64.8602
2.72742	65.5386
2.72599	66.7573
2.72456	68.0075
2.72313	68.0099
2.7217	68.7079
2.72027	69.7427
2.71884	69.0773
2.71742	68.8979
2.71599	69.0448
2.71457	69.4191
2.71315	69.9725
2.71173	71.3359
2.71032	72.0958
2.7089	71.888
2.70748	71.6622
2.70607	71.773
2.70466	72.1255
2.70325	72.6574
2.70184	73.5497
2.70043	74.0077
2.69903	74.2379
2.69762	74.9055
2.69622	75.9643
2.69482	77.0256
2.69342	77.5486
2.69202	77.1807
2.69062	77.2466
2.68923	77.722
2.68783	78.1963
2.68644	78.6436
2.68505	78.8807
2.68366	79.1809
2.68227	79.2803
2.68089	79.5691
2.6795	80.5688
2.67812	81.1371
2.67673	81.5266
2.67535	81.061
2.67397	80.6719
2.6726	80.9935
2.67122	82.6077
2.66984	83.063
2.66847	82.1422
2.6671	83.0412
2.66572	83.3271
2.66435	82.6599
2.66299	81.825
2.66162	81.8374
2.66025	81.9814
2.65889	81.9147
2.65753	81.6278
2.65616	81.9637
2.65481	82.0349
2.65345	82.2755
2.65209	82.5247
2.65073	82.1239
2.64938	81.9071
2.64803	82.0389
2.64667	82.3712
2.64532	82.5846
2.64397	82.2093
2.64263	82.3278
2.64128	82.3665
2.63994	82.2496
2.63859	82.1363
2.63725	82.124
2.63591	82.2309
2.63457	82.7694
2.63323	82.8943
2.6319	83.19
2.63056	84.1236
2.62923	83.4816
2.62789	83.202
2.62656	83.7197
2.62523	82.9356
2.6239	82.4875
2.62258	82.5122
2.62125	83.4023
2.61993	83.7315
2.6186	83.4508
2.61728	84.2473
2.61596	83.8893
2.61464	83.0682
2.61332	83.089
2.61201	82.9264
2.61069	83.081
2.60938	83.2647
2.60807	83.2475
2.60675	83.7585
2.60544	84.3424
2.60414	83.7635
2.60283	83.2179
2.60152	82.9939
2.60022	82.7255
2.59891	82.5596
2.59761	82.9198
2.59631	84.2873
2.59501	85.9159
2.59371	84.5226
2.59242	82.9219
2.59112	82.5605
2.58983	82.6826
2.58853	82.9881
2.58724	83.3027
2.58595	82.8947
2.58466	83.3357
2.58338	83.3805
2.58209	82.807
2.5808	82.7201
2.57952	82.2301
2.57824	82.4452
2.57695	82.8992
2.57567	82.4153
2.5744	82.3959
2.57312	82.6617
2.57184	82.0944
2.57057	82.3069
2.56929	82.38
2.56802	81.8446
2.56675	81.6236
2.56548	81.9235
2.56421	82.3537
2.56294	82.4265
2.56168	82.4118
2.56041	81.9058
2.55915	81.1846
2.55789	80.864
2.55662	80.783
2.55536	80.6576
2.5541	80.7212
2.55285	80.8718
2.55159	80.6807
2.55034	80.4445
2.54908	80.3
2.54783	80.2039
2.54658	79.8798
2.54533	79.6428
2.54408	79.6014
2.54283	79.5264
2.54159	79.3191
2.54034	79.1161
2.5391	79.0127
2.53785	78.9471
2.53661	79.0126
2.53537	78.9026
2.53413	78.7358
2.53289	78.8575
2.53166	78.8436
2.53042	78.8
2.52919	78.7979
2.52795	78.9115
2.52672	78.9678
2.52549	78.9917
2.52426	79.1482
2.52303	79.2459
2.52181	79.2641
2.52058	79.3309
2.51936	79.436
2.51813	79.4744
2.51691	79.5855
2.51569	79.6462
2.51447	79.736
2.51325	79.8473
2.51203	79.958
2.51082	79.9792
2.5096	79.8727
2.50839	79.8835
2.50717	80.0872
2.50596	80.1664
2.50475	80.1626
2.50354	80.2226
2.50233	80.2554
2.50113	80.2957
2.49992	80.3051
2.49872	80.2385
2.49751	80.2579
2.49631	80.3942
2.49511	80.4364
2.49391	80.3976
2.49271	80.5652
2.49151	80.6537
2.49031	80.6156
2.48912	80.7222
2.48792	80.7608
2.48673	80.7027
2.48554	80.7712
2.48435	80.8555
2.48316	80.9728
2.48197	81.0614
2.48078	81.074
2.4796	81.1119
2.47841	81.1858
2.47723	81.3259
2.47604	81.3825
2.47486	81.3476
2.47368	81.4329
2.4725	81.5824
2.47132	81.5935
2.47014	81.6266
2.46897	81.6669
2.46779	81.7472
2.46662	81.8345
2.46545	81.87
2.46427	81.9326
2.4631	82.1021
2.46193	82.1605
2.46077	82.0805
2.4596	82.0844
2.45843	82.0921
2.45727	82.2188
2.4561	82.3425
2.45494	82.3747
2.45378	82.3364
2.45262	82.4068
2.45146	82.4878
2.4503	82.5166
2.44914	82.5217
2.44799	82.6129
2.44683	82.7084
2.44568	82.7779
2.44452	82.7373
2.44337	82.7137
2.44222	82.8334
2.44107	82.9056
2.43992	82.7831
2.43877	82.7292
2.43763	82.7541
2.43648	82.887
2.43534	82.9854
2.43419	82.9604
2.43305	82.9271
2.43191	82.9728
2.43077	83.1326
2.42963	83.1206
2.42849	82.9799
2.42736	82.9857
2.42622	83.0254
2.42509	83.139
2.42395	83.2492
2.42282	83.3052
2.42169	83.3395
2.42056	83.4009
2.41943	83.4884
2.4183	83.5621
2.41717	83.5147
2.41605	83.3404
2.41492	83.3547
2.4138	83.4441
2.41267	83.383
2.41155	83.4015
2.41043	83.5038
2.40931	83.5347
2.40819	83.5317
2.40707	83.5599
2.40595	83.6195
2.40484	83.6465
2.40372	83.6667
2.40261	83.6592
2.4015	83.6126
2.40039	83.6462
2.39928	83.7088
2.39817	83.774
2.39706	83.7866
2.39595	83.6848
2.39484	83.6036
2.39374	83.5256
2.39263	83.4431
2.39153	83.588
2.39043	83.6405
2.38932	83.629
2.38822	83.6466
2.38712	83.5906
2.38603	83.6529
2.38493	83.7033
2.38383	83.596
2.38274	83.3934
2.38164	83.4292
2.38055	83.6057
2.37946	83.7045
2.37836	83.6404
2.37727	83.6484
2.37618	83.6215
2.3751	83.6074
2.37401	83.6104
2.37292	83.4892
2.37184	83.4342
2.37075	83.3501
2.36967	83.2621
2.36859	83.2294
2.3675	83.338
2.36642	83.4688
2.36534	83.4805
2.36427	83.4125
2.36319	83.4022
2.36211	83.374
2.36104	83.2157
2.35996	83.0829
2.35889	83.0115
2.35781	82.9845
2.35674	82.887
2.35567	82.7712
2.3546	82.7825
2.35353	82.8649
2.35247	82.8199
2.3514	82.7388
2.35033	82.6264
2.34927	82.5321
2.3482	82.5483
2.34714	82.4582
2.34608	82.3237
2.34502	82.3127
2.34396	82.4834
2.3429	82.4801
2.34184	82.3704
2.34078	82.4148
2.33973	82.4199
2.33867	82.305
2.33762	82.342
2.33656	82.3746
2.33551	82.4182
2.33446	82.4895
2.33341	82.4741
2.33236	82.3596
2.33131	82.329
2.33026	82.4672
2.32922	82.5614
2.32817	82.6155
2.32712	82.598
2.32608	82.6606
2.32504	82.666
2.324	82.5124
2.32295	82.4726
2.32191	82.6969
2.32087	82.9012
2.31984	82.8497
2.3188	82.7116
2.31776	82.7022
2.31673	82.8285
2.31569	83
2.31466	83.1241
2.31362	83.1777
2.31259	83.1114
2.31156	83.0268
2.31053	82.997
2.3095	83.0878
2.30847	83.1305
2.30745	83.2378
2.30642	83.2304
2.3054	83.1888
2.30437	83.2172
2.30335	83.1955
2.30232	83.2737
2.3013	83.2781
2.30028	83.2527
2.29926	83.3535
2.29824	83.4114
2.29722	83.2623
2.29621	83.2048
2.29519	83.2902
2.29417	83.4229
2.29316	83.4517
2.29215	83.4092
2.29113	83.4818
2.29012	83.6001
2.28911	83.6565
2.2881	83.6668
2.28709	83.6814
2.28608	83.581
2.28507	83.4683
2.28407	83.5227
2.28306	83.6504
2.28206	83.7017
2.28105	83.8703
2.28005	83.856
2.27905	83.7452
2.27805	83.7886
2.27705	83.8379
2.27605	83.8829
2.27505	83.9092
2.27405	83.8951
2.27305	83.9002
2.27206	83.9135
2.27106	83.9913
2.27007	84.0221
2.26907	83.98
2.26808	84.0337
2.26709	83.9633
2.2661	83.9842
2.26511	84.0743
2.26412	84.1098
2.26313	84.0975
2.26214	84.0052
2.26116	83.9379
2.26017	84.0926
2.25919	84.27
2.2582	84.1703
2.25722	84.0997
2.25624	84.1879
2.25526	84.3016
2.25428	84.3077
2.2533	84.2564
2.25232	84.3006
2.25134	84.3537
2.25036	84.2921
2.24939	84.3409
2.24841	84.4103
2.24744	84.3815
2.24646	84.2918
2.24549	84.3009
2.24452	84.3063
2.24355	84.3387
2.24257	84.5127
2.24161	84.7228
2.24064	84.7042
2.23967	84.5498
2.2387	84.6273
2.23774	84.6731
2.23677	84.5976
2.23581	84.5145
2.23484	84.6049
2.23388	84.6145
2.23292	84.6956
2.23196	84.6083
2.231	84.5553
2.23004	84.6083
2.22908	84.66
2.22812	84.6956
2.22716	84.6321
2.22621	84.4832
2.22525	84.4669
2.2243	84.6132
2.22334	84.6546
2.22239	84.7584
2.22144	84.7493
2.22049	84.7486
2.21953	84.8075
2.21859	84.8306
2.21764	84.7853
2.21669	84.699
2.21574	84.7262
2.21479	84.8014
2.21385	84.8272
2.2129	84.787
2.21196	84.7502
2.21102	84.7109
2.21007	84.6912
2.20913	84.7517
2.20819	84.8671
2.20725	84.9165
2.20631	84.8544
2.20537	84.6885
2.20444	84.5823
2.2035	84.678
2.20256	84.7515
2.20163	84.7124
2.20069	84.8166
2.19976	84.8422
2.19883	84.7277
2.19789	84.7685
2.19696	84.9241
2.19603	84.8647
2.1951	84.8376
2.19417	84.8779
2.19325	84.8475
2.19232	84.8258
2.19139	84.8077
2.19047	84.8457
2.18954	84.9682
2.18862	84.9454
2.18769	84.8567
2.18677	84.8198
2.18585	84.888
2.18493	84.9946
2.18401	85.0539
2.18309	84.9133
2.18217	84.8919
2.18125	85.044
2.18033	84.9537
2.17942	84.9297
2.1785	84.9933
2.17759	85.0426
2.17667	85.1321
2.17576	85.0095
2.17485	84.9202
2.17393	84.9148
2.17302	84.8608
2.17211	84.7919
2.1712	84.8952
2.17029	85.0158
2.16939	84.9494
2.16848	84.8574
2.16757	84.8918
2.16667	84.9227
2.16576	84.9113
2.16486	84.9102
2.16395	84.8915
2.16305	85.043
2.16215	85.1431
2.16125	85.0283
2.16035	85.0269
2.15945	85.0792
2.15855	85.0164
2.15765	85.0524
2.15675	85.0683
2.15586	84.9949
2.15496	85.0819
2.15406	85.1311
2.15317	85.0728
2.15228	84.9425
2.15138	84.8868
2.15049	84.8459
2.1496	84.8785
2.14871	84.9015
2.14782	84.9815
2.14693	85.0112
2.14604	84.9591
2.14515	84.8977
2.14427	84.7654
2.14338	84.7403
2.14249	84.8724
2.14161	85.056
2.14072	85.0628
2.13984	85.1149
2.13896	85.143
2.13808	85.1827
2.13719	85.083
2.13631	84.9155
2.13543	85.0668
2.13455	84.9851
2.13368	84.9895
2.1328	85.036
2.13192	85.0272
2.13105	85.0753
2.13017	85.1486
2.1293	85.2119
2.12842	85.1644
2.12755	85.2492
2.12668	85.3159
2.1258	85.2284
2.12493	85.2202
2.12406	85.1928
2.12319	85.2805
2.12232	85.2944
2.12145	85.1159
2.12059	85.0203
2.11972	85.1065
2.11885	85.2326
2.11799	85.284
2.11712	85.2207
2.11626	85.305
2.1154	85.2287
2.11453	85.1531
2.11367	85.1687
2.11281	85.1823
2.11195	85.3028
2.11109	85.524
2.11023	85.4989
2.10937	85.2478
2.10851	85.1257
2.10766	85.2544
2.1068	85.3035
2.10594	85.2548
2.10509	85.2481
2.10423	85.3285
2.10338	85.2883
2.10253	85.2718
2.10168	85.3742
2.10082	85.4717
2.09997	85.3314
2.09912	85.2675
2.09827	85.3736
2.09742	85.3954
2.09658	85.2445
2.09573	85.2243
2.09488	85.3996
2.09404	85.2964
2.09319	85.3781
2.09235	85.5465
2.0915	85.4815
2.09066	85.4346
2.08982	85.4967
2.08897	85.5582
2.08813	85.4621
2.08729	85.4333
2.08645	85.3446
2.08561	85.4425
2.08477	85.494
2.08394	85.403
2.0831	85.2979
2.08226	85.2727
2.08143	85.2643
2.08059	85.3269
2.07976	85.2943
2.07892	85.2362
2.07809	85.4378
2.07726	85.4931
2.07643	85.4662
2.07559	85.3348
2.07476	85.2632
2.07393	85.1285
2.0731	85.1495
2.07228	85.3201
2.07145	85.5269
2.07062	85.3626
2.06979	85.3726
2.06897	85.5838
2.06814	85.4104
2.06732	85.171
2.06649	85.182
2.06567	85.2177
2.06485	85.3945
2.06403	85.6824
2.0632	85.5185
2.06238	85.2522
2.06156	85.4083
2.06074	85.4714
2.05993	85.3771
2.05911	85.2758
2.05829	85.2003
2.05747	85.149
2.05666	85.1733
2.05584	85.447
2.05503	85.452
2.05421	85.2307
2.0534	85.2652
2.05259	85.5227
2.05177	85.5312
2.05096	85.408
2.05015	85.2159
2.04934	85.184
2.04853	85.2562
2.04772	85.3516
2.04691	85.2941
2.04611	85.2004
2.0453	85.3123
2.04449	85.423
2.04369	85.3845
2.04288	85.4063
2.04208	85.3526
2.04127	85.2457
2.04047	85.3417
2.03967	85.4061
2.03886	85.3233
2.03806	85.217
2.03726	85.099
2.03646	85.0564
2.03566	85.1109
2.03486	85.2585
2.03407	85.1549
2.03327	85.0695
2.03247	85.2077
2.03167	85.2892
2.03088	85.2188
2.03008	85.2041
2.02929	85.2266
2.0285	85.3503
2.0277	85.4366
2.02691	85.4973
2.02612	85.33
2.02533	85.2359
2.02453	85.2059
2.02374	85.2097
2.02295	85.2582
2.02217	85.4065
2.02138	85.3505
2.02059	85.1315
2.0198	85.1655
2.01902	85.299
2.01823	85.3708
2.01744	85.4164
2.01666	85.2213
2.01588	85.164
2.01509	85.1761
2.01431	85.1462
2.01353	85.1971
2.01275	85.2597
2.01196	85.1868
2.01118	85.2082
2.0104	85.0816
2.00963	85.1736
2.00885	85.3694
2.00807	85.3287
2.00729	85.0722
2.00651	84.9673
2.00574	84.9049
2.00496	84.8538
2.00419	84.8749
2.00341	84.813
2.00264	84.9155
2.00187	85.1388
2.00109	85.1858
2.00032	85.127
