Name: Quartz Conglomerate
Type: Rock
Class: Sedimentary
Subclass:  Conglomerate 
Particle Size: Solid surface
Sample No.: Ward49.txt
Owner: JPL
Wavelength range:  IR
Origin: Ward's Collection of American Rocks.  Sample locality - near Olean, Cattaraugus County, New York.
Collected by:  Ward's Natural Science
Description: The rock is composed principally of sub-angular and rounded
pebbles of milky quartz of various size, cemented by a siliceous cement
which is usually coated with clay material.
Geologic age - Pennsylvanian.


Measurement: Hemispherical reflectance
First Column: X
Second Column: Y
X Units: Wavelength (micrometers)
Y Units: Reflectance (percent)
First X Value: 15.3871
Last X Value: 1.9998
Number of X Values: 2257
Additional information: None

15.3871   3.68004
15.3416   3.99325
15.2964   3.94022
15.2514   3.90551
15.2066   3.81256
15.1622   3.72815
15.1180   3.84837
15.0740   4.04716
15.0303   3.85632
14.9869   3.74041
14.9437   4.01679
14.9008   4.26032
14.8581   4.28723
14.8156   4.22719
14.7734   4.32893
14.7314   4.20581
14.6897   4.45483
14.6482   4.69240
14.6069   4.62502
14.5659   4.70726
14.5251   4.82805
14.4845   5.15792
14.4442   5.39625
14.4041   5.15979
14.3642   4.57760
14.3245   3.69486
14.2850   3.23515
14.2458   3.27595
14.2068   3.39265
14.1679   3.60353
14.1293   3.81758
14.0909   3.76952
14.0528   3.85618
14.0148   3.93576
13.9770   4.10586
13.9394   4.40965
13.9021   4.50498
13.8649   4.56452
13.8279   4.63439
13.7911   4.82574
13.7546   5.06819
13.7182   4.95519
13.6820   5.20102
13.6460   5.37824
13.6101   5.51159
13.5745   5.46785
13.5391   5.45360
13.5038   5.48310
13.4687   5.59194
13.4339   5.76777
13.3991   5.79997
13.3646   5.90864
13.3302   6.06491
13.2961   6.14643
13.2621   6.25715
13.2282   6.59189
13.1946   6.78697
13.1611   7.01572
13.1278   7.30257
13.0946   7.40958
13.0616   7.53214
13.0288   7.93679
12.9962   8.66041
12.9637   9.30393
12.9313   9.97042
12.8992  11.06120
12.8672  12.25890
12.8353  13.23040
12.8036  13.59670
12.7721  13.37570
12.7407  12.52410
12.7095  11.12450
12.6784   9.71396
12.6475   8.92689
12.6167   9.04853
12.5861   9.67555
12.5556  10.63040
12.5253  11.33110
12.4951  11.61760
12.4651  11.25740
12.4352  10.11060
12.4054   8.02898
12.3758   5.48632
12.3463   3.27011
12.3170   1.84041
12.2878   1.37201
12.2588   1.63443
12.2299   1.83030
12.2011   1.97943
12.1725   2.14293
12.1439   2.31390
12.1156   2.44373
12.0873   2.45214
12.0592   2.81091
12.0312   3.17941
12.0034   3.31604
11.9757   3.44232
11.9481   3.61713
11.9206   3.60113
11.8933   3.65659
11.8661   3.81808
11.8390   3.96329
11.8120   3.99350
11.7852   4.11044
11.7584   4.34987
11.7318   4.46301
11.7053   4.61118
11.6790   4.74249
11.6527   4.88550
11.6266   4.97289
11.6006   4.93316
11.5747   4.97415
11.5489   5.06100
11.5233   5.15916
11.4977   5.13342
11.4723   5.20560
11.4469   5.31424
11.4217   5.36071
11.3966   5.42290
11.3716   5.50626
11.3468   5.67000
11.3220   5.72162
11.2973   5.72355
11.2728   5.79488
11.2483   5.87790
11.2240   5.92102
11.1997   5.97566
11.1756   6.11960
11.1515   6.14857
11.1276   6.15863
11.1038   6.23641
11.0801   6.30360
11.0564   6.34812
11.0329   6.49890
11.0095   6.61277
10.9862   6.65828
10.9629   6.73186
10.9398   6.70991
10.9168   6.65195
10.8938   6.73592
10.8710   6.95995
10.8483   6.91232
10.8256   6.86941
10.8031   6.91528
10.7806   6.92182
10.7582   6.95273
10.7360   6.96428
10.7138   7.13634
10.6917   7.26893
10.6697   7.29806
10.6478   7.24473
10.6260   7.20650
10.6042   7.31143
10.5826   7.50430
10.5610   7.54510
10.5396   7.58225
10.5182   7.73655
10.4969   8.02365
10.4757   8.05888
10.4546   8.04714
10.4335   7.97881
10.4126   7.96642
10.3917   8.07580
10.3709   8.22448
10.3502   8.39137
10.3296   8.47520
10.3091   8.60387
10.2886   8.69227
10.2683   8.86829
10.2480   9.04183
10.2277   9.12212
10.2076   9.21685
10.1876   9.27605
10.1676   9.38978
10.1477   9.58053
10.1279   9.84120
10.1081  10.04530
10.0885  10.26510
10.0689  10.33960
10.0494  10.36380
10.0299  10.69040
10.0106  10.98010
 9.9913  11.21160
 9.9720  11.48880
 9.9529  11.74620
 9.9338  11.89220
 9.9148  12.02700
 9.8959  12.12580
 9.8771  12.18410
 9.8583  12.25640
 9.8396  12.39430
 9.8210  12.60720
 9.8024  12.87450
 9.7839  13.08900
 9.7655  13.36740
 9.7471  13.69630
 9.7288  14.07320
 9.7106  14.53700
 9.6925  15.13040
 9.6744  15.80100
 9.6564  16.37770
 9.6384  16.93210
 9.6205  17.50230
 9.6027  17.89270
 9.5850  18.32340
 9.5673  18.95100
 9.5497  19.72880
 9.5321  20.56150
 9.5146  21.51440
 9.4972  22.43060
 9.4798  23.32050
 9.4625  24.46500
 9.4453  25.96380
 9.4281  27.76320
 9.4110  29.94400
 9.3940  32.49800
 9.3770  35.13780
 9.3600  37.48000
 9.3432  39.59960
 9.3264  41.43560
 9.3096  42.83210
 9.2930  43.68340
 9.2763  44.16210
 9.2598  44.47620
 9.2432  44.72680
 9.2268  44.95350
 9.2104  45.10950
 9.1941  45.13410
 9.1778  45.11230
 9.1616  45.12560
 9.1454  45.23010
 9.1293  45.17570
 9.1133  44.89770
 9.0973  44.83740
 9.0814  44.90600
 9.0655  44.67640
 9.0497  44.30760
 9.0339  44.11970
 9.0182  43.94880
 9.0025  43.61930
 8.9870  43.29650
 8.9714  43.25380
 8.9559  43.45610
 8.9405  43.64050
 8.9251  43.98310
 8.9097  44.26000
 8.8945  44.34490
 8.8792  44.45480
 8.8641  44.40490
 8.8489  44.26280
 8.8338  44.00140
 8.8188  43.64040
 8.8039  43.24690
 8.7889  42.78130
 8.7741  42.30480
 8.7592  41.91560
 8.7445  41.62940
 8.7297  41.13160
 8.7151  40.32880
 8.7005  39.45150
 8.6859  38.29950
 8.6714  36.37910
 8.6569  33.48610
 8.6425  30.21250
 8.6281  28.69590
 8.6137  30.37490
 8.5994  33.84700
 8.5852  37.10780
 8.5710  39.50030
 8.5569  40.86400
 8.5428  41.62530
 8.5287  42.15510
 8.5147  42.60990
 8.5008  42.89760
 8.4869  43.13120
 8.4730  43.22830
 8.4592  43.26390
 8.4454  43.26420
 8.4316  43.38660
 8.4180  43.39070
 8.4043  43.49220
 8.3907  43.68540
 8.3772  43.88440
 8.3637  43.92280
 8.3502  43.92510
 8.3368  44.05050
 8.3234  44.27940
 8.3100  44.32620
 8.2967  44.41090
 8.2835  44.45540
 8.2703  44.45060
 8.2571  44.41750
 8.2440  44.32090
 8.2309  44.23770
 8.2179  44.12640
 8.2049  43.66010
 8.1919  43.09520
 8.1790  42.27560
 8.1661  41.02380
 8.1532  39.28790
 8.1404  37.38440
 8.1277  35.28500
 8.1150  33.11890
 8.1023  31.15060
 8.0897  29.25700
 8.0770  27.34070
 8.0645  25.47820
 8.0520  23.69320
 8.0395  22.16240
 8.0270  20.76680
 8.0146  19.47650
 8.0023  18.33950
 7.9899  17.11970
 7.9776  15.89760
 7.9654  14.74900
 7.9532  13.62250
 7.9410  12.57970
 7.9288  11.49070
 7.9167  10.36970
 7.9047   9.39841
 7.8926   8.60505
 7.8807   7.97929
 7.8687   7.31190
 7.8568   6.75450
 7.8449   6.29485
 7.8330   5.82531
 7.8212   5.42154
 7.8094   5.12025
 7.7977   4.83097
 7.7860   4.61078
 7.7743   4.31646
 7.7627   3.98654
 7.7511   3.77113
 7.7395   3.45590
 7.7280   3.17334
 7.7165   2.90987
 7.7050   2.71397
 7.6936   2.55086
 7.6822   2.40421
 7.6708   2.14465
 7.6595   1.94230
 7.6482   1.90244
 7.6369   1.75023
 7.6257   1.51327
 7.6145   1.38619
 7.6033   1.37862
 7.5922   1.25596
 7.5811   1.13571
 7.5700   1.05815
 7.5590   1.01156
 7.5480   0.98667
 7.5370   0.93814
 7.5261   0.92327
 7.5152   0.91876
 7.5043   0.92310
 7.4935   1.00887
 7.4826   0.92108
 7.4718   0.76665
 7.4611   0.78342
 7.4504   0.84435
 7.4397   0.84327
 7.4290   0.80892
 7.4184   0.79031
 7.4078   0.81039
 7.3972   0.77130
 7.3867   0.71768
 7.3762   0.75097
 7.3657   0.77674
 7.3553   0.76804
 7.3449   0.76719
 7.3345   0.71000
 7.3241   0.64689
 7.3138   0.68664
 7.3035   0.74494
 7.2932   0.74804
 7.2830   0.74488
 7.2727   0.68218
 7.2626   0.60451
 7.2524   0.62723
 7.2423   0.63625
 7.2322   0.63982
 7.2221   0.71017
 7.2120   0.61241
 7.2020   0.53146
 7.1921   0.60784
 7.1821   0.68787
 7.1722   0.68583
 7.1623   0.75490
 7.1524   0.66358
 7.1425   0.65747
 7.1327   0.69948
 7.1229   0.78618
 7.1131   0.87559
 7.1034   0.83372
 7.0937   0.81502
 7.0840   0.77238
 7.0743   0.71749
 7.0647   0.85238
 7.0551   0.95317
 7.0455   0.85648
 7.0359   0.81093
 7.0264   0.84823
 7.0169   0.94494
 7.0074   0.96382
 6.9979   0.95286
 6.9885   0.85645
 6.9791   0.86446
 6.9697   0.91667
 6.9604   0.97968
 6.9510   0.92982
 6.9417   0.90108
 6.9324   1.01826
 6.9232   1.07295
 6.9140   1.12937
 6.9047   1.16058
 6.8956   1.14333
 6.8864   1.12264
 6.8773   1.08450
 6.8682   1.04518
 6.8591   1.01819
 6.8500   1.00638
 6.8410   1.11328
 6.8320   1.14944
 6.8230   1.11703
 6.8140   1.12773
 6.8051   1.19873
 6.7962   1.18021
 6.7873   1.09688
 6.7784   1.05291
 6.7695   1.10074
 6.7607   1.13818
 6.7519   1.18308
 6.7431   1.20384
 6.7344   1.17083
 6.7256   1.15544
 6.7169   1.14088
 6.7082   1.15087
 6.6996   1.26598
 6.6909   1.33171
 6.6823   1.27643
 6.6737   1.29097
 6.6651   1.25037
 6.6566   1.22079
 6.6480   1.30484
 6.6395   1.40716
 6.6310   1.41381
 6.6226   1.27956
 6.6141   1.25760
 6.6057   1.28568
 6.5973   1.28885
 6.5889   1.36433
 6.5805   1.42434
 6.5722   1.36419
 6.5639   1.29663
 6.5556   1.31236
 6.5473   1.40350
 6.5390   1.46694
 6.5308   1.52115
 6.5226   1.51759
 6.5144   1.44087
 6.5062   1.45274
 6.4981   1.50381
 6.4900   1.50406
 6.4818   1.44400
 6.4737   1.48403
 6.4657   1.54500
 6.4576   1.57541
 6.4496   1.52226
 6.4416   1.53022
 6.4336   1.54633
 6.4256   1.59594
 6.4177   1.60362
 6.4097   1.58683
 6.4018   1.55500
 6.3939   1.48557
 6.3860   1.51947
 6.3782   1.60050
 6.3704   1.62232
 6.3625   1.67829
 6.3547   1.63994
 6.3470   1.55895
 6.3392   1.60491
 6.3315   1.67575
 6.3237   1.63476
 6.3160   1.55800
 6.3083   1.55253
 6.3007   1.54796
 6.2930   1.67431
 6.2854   1.67296
 6.2778   1.60345
 6.2702   1.61407
 6.2626   1.53981
 6.2551   1.52719
 6.2476   1.46120
 6.2400   1.43410
 6.2325   1.49542
 6.2251   1.55997
 6.2176   1.58043
 6.2101   1.54171
 6.2027   1.47231
 6.1953   1.51153
 6.1879   1.60050
 6.1805   1.53531
 6.1732   1.51097
 6.1658   1.57643
 6.1585   1.62694
 6.1512   1.73595
 6.1439   1.74447
 6.1367   1.60246
 6.1294   1.60053
 6.1222   1.77011
 6.1149   1.83782
 6.1077   1.59155
 6.1006   1.51573
 6.0934   1.57913
 6.0862   1.65333
 6.0791   1.73210
 6.0720   1.75495
 6.0649   1.74972
 6.0578   1.83067
 6.0507   1.89436
 6.0437   1.83614
 6.0366   1.82903
 6.0296   1.82100
 6.0226   1.71517
 6.0156   1.74755
 6.0087   1.83309
 6.0017   1.77003
 5.9948   1.81183
 5.9878   1.76450
 5.9809   1.67227
 5.9740   1.69050
 5.9672   1.77288
 5.9603   1.77304
 5.9535   1.71904
 5.9466   1.80761
 5.9398   1.91225
 5.9330   1.76880
 5.9262   1.73860
 5.9195   1.87011
 5.9127   1.88567
 5.9060   1.79330
 5.8993   1.76235
 5.8926   1.73774
 5.8859   1.72646
 5.8792   1.84936
 5.8726   1.94343
 5.8659   1.96641
 5.8593   1.99004
 5.8527   1.96777
 5.8461   1.95617
 5.8395   2.01639
 5.8329   2.05578
 5.8264   2.09647
 5.8198   2.05558
 5.8133   1.97174
 5.8068   2.00159
 5.8003   2.12572
 5.7938   2.18207
 5.7874   2.07376
 5.7809   2.02534
 5.7745   2.12318
 5.7680   2.23951
 5.7616   2.30717
 5.7552   2.30385
 5.7489   2.26182
 5.7425   2.31218
 5.7361   2.43624
 5.7298   2.44683
 5.7235   2.36244
 5.7172   2.44061
 5.7109   2.48128
 5.7046   2.47593
 5.6983   2.40893
 5.6921   2.42353
 5.6858   2.47050
 5.6796   2.46653
 5.6734   2.36577
 5.6672   2.28422
 5.6610   2.33144
 5.6548   2.35361
 5.6487   2.37758
 5.6425   2.36911
 5.6364   2.35909
 5.6303   2.26951
 5.6242   2.19444
 5.6181   2.25009
 5.6120   2.38648
 5.6059   2.41079
 5.5999   2.34574
 5.5938   2.27102
 5.5878   2.19765
 5.5818   2.17011
 5.5758   2.20374
 5.5698   2.22393
 5.5638   2.30994
 5.5578   2.28593
 5.5519   2.24227
 5.5460   2.26609
 5.5400   2.27670
 5.5341   2.31467
 5.5282   2.34715
 5.5223   2.34870
 5.5164   2.38139
 5.5106   2.30888
 5.5047   2.30246
 5.4989   2.42095
 5.4931   2.48485
 5.4873   2.50057
 5.4815   2.51369
 5.4757   2.49909
 5.4699   2.50270
 5.4641   2.45563
 5.4584   2.44476
 5.4527   2.54615
 5.4469   2.59819
 5.4412   2.58732
 5.4355   2.59332
 5.4298   2.56124
 5.4241   2.49575
 5.4185   2.47547
 5.4128   2.52472
 5.4072   2.54217
 5.4015   2.45678
 5.3959   2.42384
 5.3903   2.37685
 5.3847   2.36006
 5.3791   2.40178
 5.3735   2.41402
 5.3680   2.31778
 5.3624   2.24424
 5.3569   2.19617
 5.3514   2.18630
 5.3458   2.31628
 5.3403   2.41172
 5.3348   2.41053
 5.3294   2.33196
 5.3239   2.25572
 5.3184   2.32130
 5.3130   2.34627
 5.3075   2.38585
 5.3021   2.40801
 5.2967   2.42734
 5.2913   2.46269
 5.2859   2.46836
 5.2805   2.38930
 5.2751   2.37257
 5.2698   2.41802
 5.2644   2.47244
 5.2591   2.51262
 5.2538   2.54674
 5.2485   2.50864
 5.2431   2.52006
 5.2378   2.61221
 5.2326   2.69185
 5.2273   2.69937
 5.2220   2.66947
 5.2168   2.66398
 5.2115   2.70093
 5.2063   2.68058
 5.2011   2.69561
 5.1959   2.77825
 5.1907   2.85284
 5.1855   2.84175
 5.1803   2.75026
 5.1751   2.70328
 5.1700   2.74315
 5.1648   2.85173
 5.1597   2.95695
 5.1545   2.95487
 5.1494   2.85395
 5.1443   2.78358
 5.1392   2.82790
 5.1341   2.89543
 5.1291   2.87247
 5.1240   2.85086
 5.1189   2.80043
 5.1139   2.79105
 5.1088   2.79529
 5.1038   2.77838
 5.0988   2.84240
 5.0938   2.91756
 5.0888   2.93352
 5.0838   2.89738
 5.0788   2.87076
 5.0738   2.92528
 5.0689   2.82328
 5.0639   2.76155
 5.0590   2.84236
 5.0541   2.89884
 5.0491   2.92163
 5.0442   2.98699
 5.0393   2.94012
 5.0344   2.83735
 5.0296   2.86557
 5.0247   2.96372
 5.0198   2.94971
 5.0150   2.94593
 5.0101   2.92815
 5.0053   2.92792
 5.0004   2.98869
 4.9956   3.00771
 4.9908   2.99027
 4.9860   2.98584
 4.9812   3.00596
 4.9765   3.09537
 4.9717   3.10668
 4.9669   3.16462
 4.9622   3.25328
 4.9574   3.26322
 4.9527   3.35892
 4.9480   3.41639
 4.9432   3.31751
 4.9385   3.24897
 4.9338   3.32672
 4.9291   3.43738
 4.9245   3.48101
 4.9198   3.55287
 4.9151   3.55708
 4.9105   3.60687
 4.9058   3.76568
 4.9012   3.93444
 4.8966   3.98299
 4.8919   4.04645
 4.8873   4.24430
 4.8827   4.45264
 4.8781   4.65513
 4.8736   4.85707
 4.8690   4.99262
 4.8644   5.17438
 4.8599   5.31040
 4.8553   5.47760
 4.8508   5.63956
 4.8462   5.76882
 4.8417   5.90499
 4.8372   6.02535
 4.8327   6.18675
 4.8282   6.34578
 4.8237   6.52559
 4.8192   6.65552
 4.8147   6.78730
 4.8103   6.90497
 4.8058   7.03633
 4.8014   7.16050
 4.7969   7.28335
 4.7925   7.45515
 4.7881   7.65362
 4.7836   7.70524
 4.7792   7.72294
 4.7748   7.77151
 4.7704   7.93966
 4.7660   8.17981
 4.7617   8.27454
 4.7573   8.39611
 4.7530   8.51599
 4.7486   8.62923
 4.7443   8.59054
 4.7399   8.60852
 4.7356   8.70922
 4.7313   8.77191
 4.7270   8.75970
 4.7226   8.72413
 4.7184   8.68531
 4.7141   8.72586
 4.7098   8.68269
 4.7055   8.56827
 4.7012   8.37151
 4.6970   7.92995
 4.6927   7.57499
 4.6885   7.39587
 4.6842   7.40572
 4.6800   7.50197
 4.6758   7.59935
 4.6716   7.81470
 4.6674   8.04783
 4.6632   8.20670
 4.6590   8.46455
 4.6548   8.67519
 4.6506   8.93402
 4.6465   9.23575
 4.6423   9.55625
 4.6382   9.89222
 4.6340  10.21570
 4.6299  10.55450
 4.6258  10.78050
 4.6216  10.96980
 4.6175  11.20750
 4.6134  11.35230
 4.6093  11.44030
 4.6052  11.63210
 4.6011  11.77840
 4.5971  11.88570
 4.5930  11.98860
 4.5889  12.03520
 4.5849  12.06710
 4.5808  12.04160
 4.5768  12.01990
 4.5727  12.04520
 4.5687  12.00200
 4.5647  11.87690
 4.5607  11.72910
 4.5567  11.67640
 4.5526  11.44060
 4.5487  11.09910
 4.5447  10.88290
 4.5407  10.57980
 4.5367  10.26790
 4.5328   9.92855
 4.5288   9.53049
 4.5248   9.18132
 4.5209   8.99642
 4.5170   8.69728
 4.5130   8.25917
 4.5091   7.92071
 4.5052   7.53668
 4.5013   7.32230
 4.4974   7.26263
 4.4935   7.19510
 4.4896   7.06391
 4.4857   7.00279
 4.4818   6.95491
 4.4779   6.89628
 4.4741   6.91783
 4.4702   6.90355
 4.4664   6.79272
 4.4625   6.84159
 4.4587   6.95224
 4.4549   7.05363
 4.4510   7.14378
 4.4472   7.26337
 4.4434   7.36310
 4.4396   7.42456
 4.4358   7.42795
 4.4320   7.48680
 4.4282   7.63004
 4.4245   7.71468
 4.4207   7.88145
 4.4169   8.01699
 4.4132   8.13427
 4.4094   8.28703
 4.4057   8.45298
 4.4019   8.67179
 4.3982   8.76538
 4.3945   8.90575
 4.3907   9.21021
 4.3870   9.52452
 4.3833   9.72572
 4.3796   9.93682
 4.3759  10.13320
 4.3722  10.41520
 4.3685  10.72770
 4.3649  10.99570
 4.3612  11.22200
 4.3575  11.43260
 4.3539  11.63050
 4.3502  11.85370
 4.3466  12.00730
 4.3429  12.17480
 4.3393  12.43500
 4.3357  12.45260
 4.3320  12.36160
 4.3284  12.40620
 4.3248  12.41010
 4.3212  12.50530
 4.3176  12.52860
 4.3140  12.40740
 4.3105  12.21490
 4.3069  12.04810
 4.3033  11.94970
 4.2997  11.78130
 4.2962  11.72880
 4.2926  11.74400
 4.2890  11.65650
 4.2855  11.55000
 4.2820  11.59960
 4.2784  11.70450
 4.2749  11.63590
 4.2714  11.64280
 4.2679  11.78020
 4.2644  12.07690
 4.2609  12.53880
 4.2574  12.79290
 4.2539  12.81530
 4.2504  12.74870
 4.2469  12.60810
 4.2434  12.47480
 4.2400  12.46130
 4.2365  12.44690
 4.2330  12.33400
 4.2296  12.36370
 4.2261  12.55330
 4.2227  12.77660
 4.2193  12.97940
 4.2158  13.12930
 4.2124  13.30770
 4.2090  13.54440
 4.2056  13.62980
 4.2022  13.61680
 4.1988  13.62440
 4.1954  13.75320
 4.1920  13.85000
 4.1886  13.85450
 4.1852  14.03640
 4.1818  14.21960
 4.1785  14.32280
 4.1751  14.43100
 4.1717  14.60370
 4.1684  14.80480
 4.1650  14.78040
 4.1617  14.75360
 4.1584  14.96810
 4.1550  15.27780
 4.1517  15.40590
 4.1484  15.53840
 4.1451  15.61570
 4.1418  15.62300
 4.1384  15.77850
 4.1351  15.96520
 4.1319  16.15270
 4.1286  16.29310
 4.1253  16.37110
 4.1220  16.56120
 4.1187  16.79100
 4.1155  16.97670
 4.1122  16.99510
 4.1089  17.15950
 4.1057  17.38750
 4.1024  17.59860
 4.0992  17.83440
 4.0959  18.11800
 4.0927  18.37690
 4.0895  18.45840
 4.0863  18.55260
 4.0830  18.73100
 4.0798  18.87960
 4.0766  19.01040
 4.0734  19.14630
 4.0702  19.29490
 4.0670  19.43470
 4.0639  19.55150
 4.0607  19.49140
 4.0575  19.38800
 4.0543  19.43010
 4.0511  19.48060
 4.0480  19.39300
 4.0448  19.37230
 4.0417  19.43620
 4.0385  19.43580
 4.0354  19.31660
 4.0323  19.31270
 4.0291  19.32890
 4.0260  19.22600
 4.0229  19.19260
 4.0197  19.10310
 4.0166  19.05850
 4.0135  19.13860
 4.0104  19.05570
 4.0073  18.97500
 4.0042  19.10530
 4.0011  19.14310
 3.9981  19.03200
 3.9950  19.12440
 3.9919  19.20390
 3.9888  19.24280
 3.9857  19.36910
 3.9827  19.64070
 3.9796  19.87570
 3.9766  19.93010
 3.9735  19.91120
 3.9705  19.98210
 3.9675  20.17260
 3.9644  20.36130
 3.9614  20.58150
 3.9584  20.72240
 3.9554  20.88460
 3.9523  21.06160
 3.9493  21.19440
 3.9463  21.40720
 3.9433  21.61480
 3.9403  21.71030
 3.9373  21.97520
 3.9343  22.17240
 3.9314  22.17340
 3.9284  22.19760
 3.9254  22.33370
 3.9224  22.41090
 3.9195  22.41090
 3.9165  22.48170
 3.9136  22.48410
 3.9106  22.41430
 3.9077  22.40220
 3.9047  22.40210
 3.9018  22.36630
 3.8988  22.36730
 3.8959  22.27080
 3.8930  21.99770
 3.8901  21.76910
 3.8872  21.58720
 3.8842  21.50660
 3.8813  21.52680
 3.8784  21.51730
 3.8755  21.41890
 3.8726  21.24430
 3.8697  21.12920
 3.8669  21.00260
 3.8640  20.91290
 3.8611  20.94510
 3.8582  20.86090
 3.8554  20.75800
 3.8525  20.85580
 3.8496  20.94830
 3.8468  20.98040
 3.8439  21.03230
 3.8411  21.13860
 3.8382  21.25590
 3.8354  21.25990
 3.8326  21.30310
 3.8297  21.37050
 3.8269  21.43470
 3.8241  21.60570
 3.8213  21.72190
 3.8185  21.86910
 3.8157  21.82690
 3.8128  21.80190
 3.8100  21.90310
 3.8072  22.01760
 3.8045  22.03950
 3.8017  21.93810
 3.7989  21.85510
 3.7961  21.85770
 3.7933  21.92000
 3.7906  21.89540
 3.7878  21.85670
 3.7850  21.84900
 3.7822  21.70530
 3.7795  21.56420
 3.7767  21.53620
 3.7740  21.46500
 3.7713  21.39520
 3.7685  21.32390
 3.7658  21.29650
 3.7630  21.08490
 3.7603  20.83550
 3.7576  20.65850
 3.7549  20.54560
 3.7521  20.59260
 3.7494  20.67650
 3.7467  20.68800
 3.7440  20.56690
 3.7413  20.41490
 3.7386  20.51870
 3.7359  20.74110
 3.7332  20.77870
 3.7306  20.65200
 3.7279  20.66570
 3.7252  20.74240
 3.7225  20.78820
 3.7199  20.95740
 3.7172  21.21620
 3.7145  21.51640
 3.7119  21.54870
 3.7092  21.54000
 3.7066  21.86920
 3.7039  22.02570
 3.7013  22.10900
 3.6986  22.37750
 3.6960  22.59390
 3.6934  22.78530
 3.6907  22.97440
 3.6881  23.26020
 3.6855  23.47780
 3.6829  23.71230
 3.6803  23.93560
 3.6776  24.10500
 3.6750  24.32410
 3.6724  24.51650
 3.6698  24.51980
 3.6672  24.68340
 3.6646  24.97860
 3.6620  25.00690
 3.6595  24.96900
 3.6569  25.01710
 3.6543  25.11850
 3.6517  25.21750
 3.6492  25.30020
 3.6466  25.34450
 3.6440  25.29850
 3.6415  25.21700
 3.6389  25.28520
 3.6364  25.38960
 3.6338  25.23770
 3.6313  25.10210
 3.6287  25.25840
 3.6262  25.27160
 3.6237  25.25290
 3.6211  25.24990
 3.6186  25.12680
 3.6161  24.93920
 3.6136  25.01560
 3.6111  25.23570
 3.6085  25.15590
 3.6060  25.03190
 3.6035  25.17570
 3.6010  25.17490
 3.5985  25.09600
 3.5960  25.05340
 3.5935  24.94010
 3.5910  24.84550
 3.5886  24.85570
 3.5861  25.04630
 3.5836  24.98970
 3.5811  24.83020
 3.5787  24.92830
 3.5762  25.09080
 3.5737  25.14040
 3.5713  25.07500
 3.5688  25.05840
 3.5663  24.98950
 3.5639  24.90130
 3.5614  24.85570
 3.5590  25.06370
 3.5566  25.21900
 3.5541  25.16020
 3.5517  25.10770
 3.5493  25.20660
 3.5468  25.24080
 3.5444  25.10740
 3.5420  25.10770
 3.5396  25.23870
 3.5372  25.09870
 3.5347  24.96820
 3.5323  25.00230
 3.5299  24.92540
 3.5275  24.87090
 3.5251  24.96400
 3.5227  25.05180
 3.5203  24.96790
 3.5180  24.93180
 3.5156  25.04300
 3.5132  25.04990
 3.5108  24.90820
 3.5084  24.85820
 3.5061  24.80960
 3.5037  24.63890
 3.5013  24.58460
 3.4990  24.64220
 3.4966  24.64900
 3.4943  24.68500
 3.4919  24.62860
 3.4895  24.47320
 3.4872  24.26230
 3.4849  24.23120
 3.4825  24.19130
 3.4802  24.31980
 3.4778  24.33360
 3.4755  24.21710
 3.4732  24.23930
 3.4709  24.28720
 3.4685  24.12280
 3.4662  23.94860
 3.4639  23.91910
 3.4616  23.89340
 3.4593  23.88850
 3.4570  23.79960
 3.4547  23.65590
 3.4524  23.55900
 3.4501  23.45410
 3.4478  23.45560
 3.4455  23.35730
 3.4432  23.37040
 3.4409  23.26840
 3.4386  22.99460
 3.4364  22.91010
 3.4341  22.84060
 3.4318  22.72680
 3.4295  22.54460
 3.4273  22.39060
 3.4250  22.23610
 3.4228  22.15220
 3.4205  21.94790
 3.4182  21.88740
 3.4160  21.87000
 3.4137  21.69730
 3.4115  21.55830
 3.4093  21.51470
 3.4070  21.47190
 3.4048  21.25210
 3.4025  21.12090
 3.4003  20.94250
 3.3981  20.82540
 3.3958  20.79860
 3.3936  20.69640
 3.3914  20.64400
 3.3892  20.58190
 3.3870  20.58400
 3.3848  20.40080
 3.3826  20.24430
 3.3804  19.98980
 3.3782  19.80240
 3.3760  19.86730
 3.3738  19.81940
 3.3716  19.57970
 3.3694  19.46030
 3.3672  19.40050
 3.3650  19.40310
 3.3628  19.32990
 3.3606  19.26010
 3.3585  19.16590
 3.3563  18.97980
 3.3541  18.90350
 3.3520  19.02550
 3.3498  18.86470
 3.3476  18.65850
 3.3455  18.63890
 3.3433  18.63400
 3.3411  18.55120
 3.3390  18.70450
 3.3369  18.61220
 3.3347  18.25980
 3.3326  18.10780
 3.3304  17.84980
 3.3283  17.56280
 3.3262  17.69270
 3.3240  17.73670
 3.3219  17.60630
 3.3198  17.50970
 3.3176  17.49960
 3.3155  17.26050
 3.3134  16.99860
 3.3113  16.93450
 3.3092  16.86820
 3.3071  16.67710
 3.3049  16.68050
 3.3028  16.62540
 3.3007  16.63040
 3.2986  16.52590
 3.2965  16.51590
 3.2944  16.41610
 3.2924  16.21570
 3.2903  15.98250
 3.2882  15.78110
 3.2861  15.57990
 3.2840  15.45560
 3.2819  15.70930
 3.2799  15.78110
 3.2778  15.37610
 3.2757  15.36980
 3.2736  15.56530
 3.2716  15.43480
 3.2695  15.13270
 3.2675  14.88570
 3.2654  14.87020
 3.2634  14.85940
 3.2613  14.60320
 3.2593  14.51760
 3.2572  14.78560
 3.2552  14.92060
 3.2531  14.68920
 3.2511  14.31430
 3.2490  14.11010
 3.2470  14.02260
 3.2450  14.12020
 3.2429  14.20170
 3.2409  14.30230
 3.2389  14.15670
 3.2369  14.01460
 3.2348  13.71710
 3.2328  13.55700
 3.2308  13.49530
 3.2288  13.37030
 3.2268  13.51540
 3.2248  13.72200
 3.2228  13.47890
 3.2208  13.04130
 3.2188  12.91490
 3.2168  12.89460
 3.2148  12.71570
 3.2128  12.64380
 3.2108  12.78200
 3.2088  12.91310
 3.2068  12.91540
 3.2049  12.62220
 3.2029  12.27120
 3.2009  12.24320
 3.1989  12.24020
 3.1970  12.06090
 3.1950  11.91350
 3.1930  11.95520
 3.1911  12.02270
 3.1891  11.90970
 3.1871  11.72770
 3.1852  11.59800
 3.1832  11.45410
 3.1813  11.36750
 3.1793  11.36820
 3.1774  11.25130
 3.1754  11.35670
 3.1735  11.40170
 3.1715  11.50200
 3.1696  11.46940
 3.1677  11.30470
 3.1657  11.17260
 3.1638  10.93690
 3.1619  10.63180
 3.1599  10.59440
 3.1580  10.57740
 3.1561  10.81000
 3.1542  10.85460
 3.1523  10.49880
 3.1503  10.56490
 3.1484  10.69200
 3.1465  10.56730
 3.1446  10.36820
 3.1427  10.28660
 3.1408  10.22940
 3.1389  10.17170
 3.1370  10.30580
 3.1351  10.18180
 3.1332  10.01920
 3.1313   9.84643
 3.1294   9.93478
 3.1275   9.85392
 3.1257   9.93313
 3.1238  10.25700
 3.1219  10.04410
 3.1200   9.63158
 3.1181   9.53464
 3.1163   9.35826
 3.1144   9.25328
 3.1125   9.31607
 3.1107   9.48764
 3.1088   9.45183
 3.1069   9.58181
 3.1051   9.57026
 3.1032   9.70466
 3.1014   9.70255
 3.0995   9.40479
 3.0976   9.21969
 3.0958   8.99576
 3.0940   9.14436
 3.0921   9.23223
 3.0903   9.07021
 3.0884   9.01326
 3.0866   9.04739
 3.0848   9.09557
 3.0829   9.09369
 3.0811   8.98502
 3.0793   9.10828
 3.0774   9.23789
 3.0756   9.19241
 3.0738   8.64658
 3.0720   8.26028
 3.0701   8.56191
 3.0683   8.98064
 3.0665   8.79184
 3.0647   8.77876
 3.0629   8.68604
 3.0611   8.63181
 3.0593   8.78247
 3.0575   8.79297
 3.0557   8.37692
 3.0539   8.16569
 3.0521   8.20189
 3.0503   8.27983
 3.0485   8.46010
 3.0467   8.68252
 3.0449   8.59577
 3.0431   8.86689
 3.0413   9.07708
 3.0396   8.64472
 3.0378   8.29677
 3.0360   8.58673
 3.0342   8.95207
 3.0324   8.87287
 3.0307   8.57972
 3.0289   8.45669
 3.0271   8.58542
 3.0254   8.67599
 3.0236   8.48051
 3.0218   8.59048
 3.0201   8.50142
 3.0183   8.70487
 3.0166   8.91370
 3.0148   8.34762
 3.0130   8.33372
 3.0113   8.37431
 3.0096   8.24673
 3.0078   8.45810
 3.0061   8.58563
 3.0043   8.50858
 3.0026   8.65591
 3.0008   8.65802
 2.9991   8.43386
 2.9974   8.32785
 2.9956   8.35118
 2.9939   8.44038
 2.9922   8.45730
 2.9905   8.97297
 2.9887   9.07832
 2.9870   8.47807
 2.9853   7.87317
 2.9836   7.63350
 2.9819   8.10295
 2.9802   8.65768
 2.9784   8.79199
 2.9767   8.34652
 2.9750   8.13957
 2.9733   7.77092
 2.9716   7.41414
 2.9699   7.51413
 2.9682   7.71131
 2.9665   8.07162
 2.9648   7.82802
 2.9631   7.53500
 2.9614   7.55018
 2.9597   7.72742
 2.9581   7.91011
 2.9564   7.81033
 2.9547   7.74461
 2.9530   7.71732
 2.9513   7.85589
 2.9496   7.82221
 2.9480   8.10539
 2.9463   8.49635
 2.9446   8.08174
 2.9429   7.81637
 2.9413   7.55526
 2.9396   7.77958
 2.9379   8.35724
 2.9363   8.17336
 2.9346   8.13757
 2.9330   8.26862
 2.9313   8.24715
 2.9296   7.94949
 2.9280   7.75274
 2.9263   7.76193
 2.9247   7.73998
 2.9230   7.96793
 2.9214   7.87129
 2.9197   7.94923
 2.9181   8.60143
 2.9165   8.93064
 2.9148   8.17855
 2.9132   8.20909
 2.9116   8.24203
 2.9099   8.51350
 2.9083   8.51324
 2.9067   7.93238
 2.9050   8.03190
 2.9034   8.44284
 2.9018   8.37500
 2.9002   8.66711
 2.8985   8.43659
 2.8969   8.11917
 2.8953   7.97111
 2.8937   8.24898
 2.8921   8.39173
 2.8905   8.63849
 2.8888   9.11297
 2.8872   8.76725
 2.8856   8.83551
 2.8840   8.94619
 2.8824   8.54434
 2.8808   8.55912
 2.8792   8.83505
 2.8776   8.79498
 2.8760   8.87280
 2.8744   8.83698
 2.8728   8.95675
 2.8712   8.98105
 2.8697   8.99082
 2.8681   8.87589
 2.8665   8.75503
 2.8649   9.06104
 2.8633   9.41382
 2.8617   9.24072
 2.8602   9.43378
 2.8586   9.38234
 2.8570   9.20753
 2.8554   9.22185
 2.8539   9.41484
 2.8523   9.83399
 2.8507  10.02780
 2.8492   9.77338
 2.8476   9.48880
 2.8460   9.31345
 2.8445   9.48764
 2.8429  10.10930
 2.8413  10.15240
 2.8398   9.84023
 2.8382   9.89150
 2.8367  10.14450
 2.8351  10.37950
 2.8336  10.35780
 2.8320  10.00300
 2.8305   9.59790
 2.8289   9.51257
 2.8274   9.74279
 2.8259   9.99836
 2.8243  10.17990
 2.8228  10.36290
 2.8213  10.30980
 2.8197  10.20290
 2.8182  10.48070
 2.8167  10.78140
 2.8151  10.65920
 2.8136  10.71910
 2.8121  11.08180
 2.8106  10.86570
 2.8090  10.40750
 2.8075  10.43800
 2.8060  10.73090
 2.8045  11.22620
 2.8030  11.69170
 2.8014  11.42560
 2.7999  10.82450
 2.7984  10.75500
 2.7969  10.80100
 2.7954  10.88170
 2.7939  11.24700
 2.7924  11.68990
 2.7909  11.13770
 2.7894  11.34220
 2.7879  11.67100
 2.7864  11.55330
 2.7849  11.35050
 2.7834  10.49170
 2.7819  10.38260
 2.7804  11.11000
 2.7789  11.52140
 2.7774  11.51320
 2.7759  11.82500
 2.7745  11.62780
 2.7730  11.41290
 2.7715  11.22880
 2.7700  10.92350
 2.7685  10.46800
 2.7671  10.48740
 2.7656  10.41810
 2.7641  10.15960
 2.7626  10.20130
 2.7612  10.55410
 2.7597  10.46980
 2.7582  10.52080
 2.7568  10.93940
 2.7553  11.20410
 2.7538  11.39660
 2.7524  11.51880
 2.7509  11.65710
 2.7494  12.04430
 2.7480  12.32720
 2.7465  12.68770
 2.7451  13.02840
 2.7436  12.72610
 2.7422  12.64490
 2.7407  12.80520
 2.7393  13.26000
 2.7378  13.20100
 2.7364  12.68820
 2.7350  13.11880
 2.7335  13.76370
 2.7321  14.21210
 2.7306  15.23830
 2.7292  16.19350
 2.7278  16.38030
 2.7263  16.63110
 2.7249  17.31790
 2.7235  17.69920
 2.7220  18.02270
 2.7206  18.61380
 2.7192  18.62640
 2.7178  19.03530
 2.7163  19.26060
 2.7149  19.64730
 2.7135  19.97850
 2.7121  19.93430
 2.7106  19.90010
 2.7092  19.75130
 2.7078  19.63160
 2.7064  19.92670
 2.7050  20.19800
 2.7036  20.61060
 2.7022  21.20190
 2.7008  21.86930
 2.6994  22.66550
 2.6980  23.19810
 2.6965  23.58660
 2.6951  24.31920
 2.6938  25.04640
 2.6923  25.71350
 2.6910  26.81900
 2.6896  28.18120
 2.6882  29.16990
 2.6868  30.09210
 2.6854  30.94620
 2.6840  31.84940
 2.6826  32.85440
 2.6812  33.36560
 2.6798  33.78280
 2.6784  34.36630
 2.6771  35.01090
 2.6757  35.36990
 2.6743  35.92790
 2.6729  36.52110
 2.6715  36.87610
 2.6702  37.17840
 2.6688  37.42570
 2.6674  37.84220
 2.6660  38.19490
 2.6647  38.27830
 2.6633  38.46900
 2.6619  38.94340
 2.6606  39.41510
 2.6592  39.63040
 2.6578  39.73990
 2.6565  39.94560
 2.6551  40.26770
 2.6538  40.57610
 2.6524  40.66850
 2.6511  40.57950
 2.6497  40.94830
 2.6484  41.06570
 2.6470  41.14780
 2.6456  41.34630
 2.6443  41.63580
 2.6429  42.03470
 2.6416  42.05280
 2.6403  41.88400
 2.6389  41.92700
 2.6376  41.93190
 2.6362  42.07820
 2.6349  42.57350
 2.6336  42.68300
 2.6322  42.65370
 2.6309  43.19940
 2.6296  43.52920
 2.6282  43.47390
 2.6269  43.40100
 2.6256  43.41650
 2.6242  43.50480
 2.6229  43.43880
 2.6216  43.64460
 2.6203  43.94830
 2.6189  44.27200
 2.6176  44.30410
 2.6163  44.41350
 2.6150  44.17350
 2.6136  44.00190
 2.6123  43.93080
 2.6110  44.07330
 2.6097  44.28520
 2.6084  44.42110
 2.6071  44.68510
 2.6058  45.16510
 2.6044  44.96640
 2.6031  44.74970
 2.6018  44.65610
 2.6005  44.40680
 2.5992  44.50650
 2.5979  44.64680
 2.5966  44.85630
 2.5953  45.53010
 2.5940  45.33280
 2.5927  44.73830
 2.5914  44.52400
 2.5901  44.69800
 2.5888  44.75130
 2.5876  45.06220
 2.5863  45.14940
 2.5850  45.12020
 2.5837  45.17080
 2.5824  45.07120
 2.5811  44.76210
 2.5798  44.73720
 2.5785  45.05060
 2.5773  44.80690
 2.5760  44.75940
 2.5747  45.34460
 2.5734  45.62740
 2.5722  45.92680
 2.5709  46.50670
 2.5696  46.38800
 2.5683  46.03040
 2.5671  45.80480
 2.5658  45.77370
 2.5645  46.18570
 2.5633  46.35890
 2.5620  46.33880
 2.5607  46.49700
 2.5595  46.57090
 2.5582  46.58640
 2.5569  46.68450
 2.5557  46.47630
 2.5544  46.80620
 2.5532  47.32960
 2.5519  47.08050
 2.5507  46.94040
 2.5494  47.16290
 2.5481  47.22310
 2.5469  47.12950
 2.5456  47.21920
 2.5444  47.47340
 2.5431  47.56480
 2.5419  47.61430
 2.5406  47.47860
 2.5394  47.48540
 2.5382  47.56470
 2.5369  47.67340
 2.5357  47.85150
 2.5344  47.64120
 2.5332  47.29620
 2.5320  47.08410
 2.5307  46.84180
 2.5295  47.09800
 2.5283  47.67930
 2.5270  47.80770
 2.5258  47.47980
 2.5246  47.20100
 2.5233  47.55810
 2.5221  47.91710
 2.5209  47.81630
 2.5197  47.81610
 2.5184  47.91370
 2.5172  48.04390
 2.5160  48.13230
 2.5148  48.11340
 2.5136  48.26990
 2.5123  48.40190
 2.5111  48.09650
 2.5099  47.82880
 2.5087  48.07310
 2.5075  48.34030
 2.5063  48.37660
 2.5051  48.38130
 2.5038  48.31170
 2.5026  48.65580
 2.5014  48.54630
 2.5002  48.52270
 2.4990  48.44670
 2.4978  48.64230
 2.4966  48.84130
 2.4954  48.75240
 2.4942  48.47620
 2.4930  48.33080
 2.4918  48.67440
 2.4906  49.12020
 2.4894  48.82610
 2.4882  48.63520
 2.4870  48.97030
 2.4858  49.42050
 2.4846  49.30810
 2.4835  48.93780
 2.4823  49.10750
 2.4811  49.26370
 2.4799  49.19470
 2.4787  49.41750
 2.4775  49.89800
 2.4764  49.91200
 2.4752  49.61350
 2.4740  49.90750
 2.4728  50.18810
 2.4716  50.15400
 2.4705  50.25900
 2.4693  50.28860
 2.4681  49.99260
 2.4669  50.43320
 2.4657  50.77490
 2.4646  50.57250
 2.4634  50.76930
 2.4622  50.74360
 2.4611  50.34890
 2.4599  50.27930
 2.4587  50.84300
 2.4576  51.44690
 2.4564  51.63900
 2.4552  51.48910
 2.4541  51.35910
 2.4529  51.45810
 2.4518  51.09820
 2.4506  50.93740
 2.4494  51.25290
 2.4483  51.14330
 2.4471  51.05000
 2.4460  50.81840
 2.4448  51.04060
 2.4437  51.12440
 2.4425  51.05380
 2.4414  51.17700
 2.4402  51.14160
 2.4391  51.31860
 2.4379  51.79490
 2.4368  52.21670
 2.4356  51.92580
 2.4345  51.95660
 2.4333  52.38810
 2.4322  52.77910
 2.4311  52.23460
 2.4299  51.82660
 2.4288  52.18720
 2.4276  52.73390
 2.4265  52.81330
 2.4254  52.16960
 2.4242  51.81870
 2.4231  52.27460
 2.4220  52.32030
 2.4209  52.20510
 2.4197  52.66930
 2.4186  53.01250
 2.4175  52.88740
 2.4163  52.88850
 2.4152  53.39760
 2.4141  53.79770
 2.4130  53.70730
 2.4118  53.32140
 2.4107  53.27400
 2.4096  53.28430
 2.4085  53.45400
 2.4074  53.71140
 2.4063  53.84360
 2.4051  54.08020
 2.4040  53.96480
 2.4029  53.91520
 2.4018  53.77410
 2.4007  53.78970
 2.3996  54.03760
 2.3985  54.16840
 2.3973  53.97370
 2.3962  53.14220
 2.3951  52.78140
 2.3940  53.02350
 2.3929  53.39610
 2.3918  53.73520
 2.3907  53.98120
 2.3896  53.92010
 2.3885  53.35620
 2.3874  53.18070
 2.3863  53.22020
 2.3852  53.31220
 2.3841  53.43910
 2.3830  53.77590
 2.3819  53.52800
 2.3808  53.32130
 2.3798  53.64260
 2.3786  53.92680
 2.3776  53.94760
 2.3765  54.47710
 2.3754  54.14510
 2.3743  53.88520
 2.3732  54.16560
 2.3721  54.14490
 2.3710  53.99640
 2.3700  54.72150
 2.3689  55.37640
 2.3678  55.24980
 2.3667  54.92030
 2.3656  54.83370
 2.3645  55.18040
 2.3635  55.29710
 2.3624  55.27470
 2.3613  55.46560
 2.3603  55.22730
 2.3592  54.94180
 2.3581  54.80240
 2.3570  54.82440
 2.3560  55.04590
 2.3549  55.32270
 2.3538  54.70640
 2.3527  54.39500
 2.3517  55.02850
 2.3506  55.52680
 2.3495  55.61720
 2.3485  55.64730
 2.3474  55.39010
 2.3464  55.13500
 2.3453  55.84000
 2.3442  55.81600
 2.3432  55.40900
 2.3421  55.39080
 2.3411  55.72380
 2.3400  56.51050
 2.3390  56.63470
 2.3379  56.30120
 2.3369  56.26990
 2.3358  56.45270
 2.3347  56.72340
 2.3337  56.41420
 2.3326  56.43470
 2.3316  56.50790
 2.3306  55.71200
 2.3295  55.61320
 2.3285  56.38910
 2.3274  56.80130
 2.3264  57.21340
 2.3253  57.13150
 2.3243  56.76610
 2.3232  56.49250
 2.3222  56.94350
 2.3212  56.91630
 2.3201  56.98060
 2.3191  57.06170
 2.3180  56.58290
 2.3170  57.03200
 2.3160  57.69780
 2.3149  57.56710
 2.3139  57.12070
 2.3129  57.05680
 2.3118  57.07960
 2.3108  57.42900
 2.3098  57.57860
 2.3088  57.38800
 2.3077  57.16830
 2.3067  57.41100
 2.3057  57.81530
 2.3047  57.53280
 2.3036  57.42640
 2.3026  57.63720
 2.3016  57.40640
 2.3006  57.47910
 2.2995  57.90450
 2.2985  58.27540
 2.2975  58.42530
 2.2965  58.46220
 2.2955  58.28490
 2.2944  57.98400
 2.2934  57.98320
 2.2924  57.83570
 2.2914  57.68770
 2.2904  57.99050
 2.2894  58.17340
 2.2884  57.99330
 2.2874  57.83030
 2.2864  58.55890
 2.2854  59.20120
 2.2843  59.21470
 2.2833  58.95590
 2.2823  58.54370
 2.2813  58.08310
 2.2803  58.33240
 2.2793  58.88640
 2.2783  58.84850
 2.2773  58.58670
 2.2763  59.07640
 2.2753  59.46260
 2.2743  59.39650
 2.2733  59.78510
 2.2723  59.48550
 2.2713  58.99940
 2.2703  59.09990
 2.2694  59.37830
 2.2684  59.60550
 2.2674  59.95850
 2.2664  59.84320
 2.2654  59.36830
 2.2644  58.97200
 2.2634  58.43200
 2.2624  58.64430
 2.2614  59.37930
 2.2605  59.13260
 2.2595  59.07730
 2.2585  59.31620
 2.2575  59.38990
 2.2565  59.36460
 2.2555  59.49130
 2.2546  59.82200
 2.2536  59.32080
 2.2526  59.56030
 2.2516  59.79700
 2.2506  59.69740
 2.2497  59.72190
 2.2487  60.38270
 2.2477  60.55230
 2.2467  59.98450
 2.2458  59.23400
 2.2448  59.07850
 2.2438  59.23170
 2.2428  59.84210
 2.2419  59.88120
 2.2409  59.67860
 2.2399  59.26880
 2.2390  59.33820
 2.2380  59.62880
 2.2370  59.43590
 2.2361  59.04480
 2.2351  59.52200
 2.2342  59.20450
 2.2332  58.77670
 2.2322  58.56640
 2.2313  58.71640
 2.2303  59.12250
 2.2294  59.13670
 2.2284  59.38450
 2.2274  59.71030
 2.2265  59.64420
 2.2255  58.98350
 2.2246  58.16790
 2.2236  57.97530
 2.2227  57.69400
 2.2217  57.84520
 2.2208  58.57930
 2.2198  58.12040
 2.2189  57.12530
 2.2179  56.91030
 2.2170  57.09870
 2.2160  56.69830
 2.2151  56.27410
 2.2141  55.91000
 2.2132  55.45290
 2.2122  54.98960
 2.2113  54.31850
 2.2103  53.72820
 2.2094  52.91340
 2.2085  52.73960
 2.2075  53.07030
 2.2066  53.59190
 2.2056  53.88990
 2.2047  54.47880
 2.2038  55.39910
 2.2028  55.42250
 2.2019  55.39850
 2.2010  56.05700
 2.2000  56.22880
 2.1991  56.61550
 2.1982  56.89720
 2.1972  56.93480
 2.1963  57.12390
 2.1954  56.91730
 2.1944  56.62930
 2.1935  56.65850
 2.1926  56.45940
 2.1917  56.08250
 2.1907  56.42380
 2.1898  56.51900
 2.1889  56.71270
 2.1880  56.58070
 2.1870  55.93660
 2.1861  55.87230
 2.1852  56.50890
 2.1843  56.70290
 2.1833  56.46130
 2.1824  56.14810
 2.1815  56.01650
 2.1806  56.21930
 2.1797  56.09340
 2.1788  56.03570
 2.1778  56.70870
 2.1769  57.03320
 2.1760  56.28180
 2.1751  56.04400
 2.1742  56.35470
 2.1733  56.56920
 2.1724  56.61190
 2.1715  56.94100
 2.1706  56.71220
 2.1696  56.83990
 2.1687  57.29420
 2.1678  57.30080
 2.1669  57.18340
 2.1660  57.28230
 2.1651  57.99740
 2.1642  58.55980
 2.1633  58.83700
 2.1624  59.38480
 2.1615  59.00700
 2.1606  58.48750
 2.1597  58.74800
 2.1588  58.78700
 2.1579  58.59260
 2.1570  58.40550
 2.1561  58.44930
 2.1552  59.00010
 2.1543  59.64110
 2.1534  59.48670
 2.1525  59.26930
 2.1517  59.28610
 2.1507  59.61910
 2.1499  59.78550
 2.1490  59.30130
 2.1481  59.66060
 2.1472  60.08680
 2.1463  59.77520
 2.1454  59.20210
 2.1445  59.10450
 2.1436  59.89200
 2.1428  60.09070
 2.1419  59.59400
 2.1410  59.75670
 2.1401  60.49300
 2.1392  60.37000
 2.1383  60.04640
 2.1375  60.68520
 2.1366  60.55580
 2.1357  59.93960
 2.1348  60.49330
 2.1339  61.70380
 2.1331  61.85840
 2.1322  61.09920
 2.1313  60.54300
 2.1304  60.11260
 2.1296  60.28290
 2.1287  60.63540
 2.1278  60.56910
 2.1269  60.73410
 2.1261  60.67060
 2.1252  61.04430
 2.1243  61.39020
 2.1235  60.64770
 2.1226  59.88190
 2.1217  60.32440
 2.1208  61.21030
 2.1200  61.52750
 2.1191  61.22260
 2.1183  60.93220
 2.1174  60.96930
 2.1165  60.94350
 2.1157  61.15670
 2.1148  60.76290
 2.1139  60.49690
 2.1131  60.80850
 2.1122  60.38810
 2.1113  60.13260
 2.1105  60.46540
 2.1096  60.49850
 2.1088  60.55020
 2.1079  61.12000
 2.1071  60.73170
 2.1062  60.75560
 2.1054  61.28290
 2.1045  61.89140
 2.1036  61.80830
 2.1028  61.52620
 2.1019  60.98520
 2.1011  60.78690
 2.1002  60.80350
 2.0994  60.95410
 2.0985  61.25160
 2.0977  60.90160
 2.0968  60.73510
 2.0960  60.95540
 2.0951  60.73810
 2.0943  60.09270
 2.0934  60.48940
 2.0926  60.88050
 2.0918  60.43030
 2.0909  60.50690
 2.0901  60.81950
 2.0892  60.51190
 2.0884  60.16470
 2.0875  60.16470
 2.0867  60.45810
 2.0859  61.47250
 2.0850  62.16370
 2.0842  61.71160
 2.0833  61.04480
 2.0825  60.09170
 2.0817  60.65960
 2.0808  60.99140
 2.0800  61.02960
 2.0792  61.13100
 2.0783  61.05360
 2.0775  61.15810
 2.0767  60.52380
 2.0759  59.79690
 2.0750  60.36340
 2.0742  60.22000
 2.0734  59.67440
 2.0725  60.16510
 2.0717  60.27720
 2.0709  59.70940
 2.0701  59.84110
 2.0692  60.05830
 2.0684  59.74520
 2.0676  60.67220
 2.0667  60.71980
 2.0659  60.13810
 2.0651  60.19010
 2.0643  61.21230
 2.0635  60.34150
 2.0626  59.44430
 2.0618  60.25310
 2.0610  60.76550
 2.0602  60.66230
 2.0594  60.45690
 2.0585  60.89300
 2.0577  61.07750
 2.0569  59.53480
 2.0561  58.43480
 2.0553  59.55910
 2.0545  60.18230
 2.0537  60.34950
 2.0528  60.41920
 2.0520  58.80740
 2.0512  59.80660
 2.0504  60.96810
 2.0496  60.66110
 2.0488  60.61730
 2.0480  59.88730
 2.0472  58.44210
 2.0464  57.34850
 2.0456  57.85350
 2.0447  59.46090
 2.0439  59.92130
 2.0431  59.78840
 2.0423  58.94940
 2.0415  59.39780
 2.0407  59.35360
 2.0399  59.33470
 2.0391  59.90850
 2.0383  59.84290
 2.0375  60.39900
 2.0367  60.11410
 2.0359  58.11160
 2.0351  57.97140
 2.0343  59.66220
 2.0335  59.73530
 2.0327  59.72300
 2.0319  60.09780
 2.0311  61.06940
 2.0303  60.14120
 2.0295  58.65530
 2.0287  58.76990
 2.0280  59.30150
 2.0272  59.46340
 2.0264  59.45650
 2.0256  59.26520
 2.0248  58.70460
 2.0240  58.22750
 2.0232  58.14670
 2.0224  58.52130
 2.0216  58.33600
 2.0208  59.04000
 2.0200  59.13910
 2.0193  58.92180
 2.0185  58.29990
 2.0177  57.25250
 2.0169  57.25440
 2.0161  58.97110
 2.0153  59.17680
 2.0146  57.46550
 2.0138  57.77970
 2.0130  58.85940
 2.0122  59.37340
 2.0114  59.53850
 2.0107  59.06400
 2.0099  58.06540
 2.0091  58.58860
 2.0083  59.21670
 2.0075  58.72360
 2.0068  58.25760
 2.0060  57.88890
 2.0052  57.05310
 2.0044  57.17200
 2.0037  57.06770
 2.0029  57.26280
 2.0021  58.56020
 2.0013  57.85780
 2.0006  57.62520
 1.9998  58.09030
