Name: Brass plate
Type: Manmade materials
Class: Reflectance target
Subclass: 
Particle Size: Solid
Sample No.: SN: ILF-17464-2-2
Owner: JPL
Wavelength range: IR
Origin: Labsphere, P.O. Box 70, Shaker Street, North Sutton, NH 03260
(603) 927-4266
Description: Measurement made at top center. Field Brass 1.
Measured Oct. 29 1997.




Measurement: Hemispherical Reflectance
First Column: X
Second Column: Y
X Units: Wavelength (micrometers)
Y Units: Reflectence (percent)
First X Value: 15.3853
Last X Value: 2.00032
Number of X Values: 2256
Additional information: None.
 
15.3853	86.8933
15.3397	87.0043
15.2945	87.1632
15.2495	87.1
15.2048	87.0605
15.1603	87.0711
15.1161	87.0626
15.0722	87.119
15.0285	87.0183
14.9851	87.0983
14.9419	87.2517
14.8989	87.1541
14.8563	87.0661
14.8138	87.046
14.7716	87.055
14.7296	87.1233
14.6879	87.0766
14.6464	86.9103
14.6052	86.8615
14.5641	87.0168
14.5233	87.06
14.4828	86.88
14.4424	86.8725
14.4023	86.9469
14.3624	86.9757
14.3227	86.9631
14.2833	87.0314
14.244	87.0682
14.205	86.9864
14.1662	87.012
14.1276	86.9872
14.0892	86.7451
14.051	86.613
14.0131	86.6669
13.9753	86.7622
13.9377	86.8989
13.9004	86.9376
13.8632	86.9381
13.8262	86.9619
13.7895	86.9094
13.7529	86.8326
13.7165	86.8598
13.6803	87.0675
13.6443	87.1629
13.6085	87.0595
13.5729	87.0624
13.5374	87.0512
13.5022	87.0393
13.4671	87.0647
13.4322	87.0201
13.3975	86.9814
13.363	87.0214
13.3286	87.0197
13.2944	87.0606
13.2604	87.0547
13.2266	86.9636
13.193	86.8797
13.1595	86.919
13.1262	87.0024
13.093	86.9451
13.06	86.7784
13.0272	86.6793
12.9946	86.7188
12.9621	86.7421
12.9298	86.6326
12.8976	86.629
12.8656	86.7249
12.8337	86.7023
12.8021	86.5539
12.7705	86.4735
12.7391	86.5428
12.7079	86.563
12.6769	86.564
12.6459	86.5713
12.6152	86.436
12.5845	86.4166
12.5541	86.5529
12.5238	86.5386
12.4936	86.461
12.4635	86.5582
12.4337	86.7329
12.4039	86.8293
12.3743	86.8008
12.3448	86.7962
12.3155	86.8044
12.2863	86.9016
12.2573	87.0035
12.2284	87.0933
12.1996	87.1139
12.171	87.037
12.1425	86.9581
12.1141	86.9672
12.0859	86.9497
12.0578	86.8146
12.0298	86.8066
12.0019	86.9597
11.9742	87.0342
11.9466	87.0125
11.9192	87.0354
11.8918	86.9928
11.8646	86.9979
11.8375	87.0884
11.8106	86.9703
11.7837	86.8519
11.757	86.8272
11.7304	86.8704
11.7039	87.0223
11.6776	87.096
11.6513	87.0337
11.6252	86.8723
11.5992	86.7681
11.5733	86.7087
11.5475	86.665
11.5219	86.4569
11.4963	86.1212
11.4709	85.9723
11.4455	85.9085
11.4203	85.9402
11.3952	86.0743
11.3702	86.2095
11.3454	86.3663
11.3206	86.4383
11.2959	86.4962
11.2714	86.6198
11.2469	86.6144
11.2226	86.6385
11.1983	86.564
11.1742	86.4687
11.1502	86.3977
11.1263	86.3506
11.1024	86.3576
11.0787	86.3209
11.0551	86.2894
11.0316	86.32
11.0081	86.2553
10.9848	86.1236
10.9616	86.0276
10.9385	86.0688
10.9154	86.1332
10.8925	86.1048
10.8697	86.0101
10.8469	85.9865
10.8243	86.0171
10.8017	86.0124
10.7793	85.9636
10.7569	85.8924
10.7346	85.8877
10.7125	85.8623
10.6904	85.8208
10.6684	85.7801
10.6465	85.7853
10.6247	85.7178
10.6029	85.6288
10.5813	85.6655
10.5597	85.7357
10.5383	85.675
10.5169	85.5362
10.4956	85.5111
10.4744	85.4404
10.4533	85.3664
10.4323	85.3721
10.4113	85.289
10.3904	85.186
10.3697	85.1373
10.349	85.1235
10.3284	85.1355
10.3078	85.1636
10.2874	85.0943
10.267	85.0212
10.2467	84.9822
10.2265	84.8615
10.2064	84.8249
10.1863	84.7374
10.1663	84.6333
10.1464	84.6633
10.1266	84.6141
10.1069	84.5741
10.0872	84.5443
10.0676	84.5704
10.0481	84.6544
10.0287	84.6587
10.0093	84.5494
9.99005	84.5071
9.97084	84.4038
9.95169	84.2993
9.93263	84.2423
9.91364	84.2882
9.89472	84.2622
9.87587	84.2397
9.8571	84.2725
9.83839	84.2172
9.81976	84.203
9.80119	84.2564
9.78271	84.2386
9.76428	84.2269
9.74592	84.2769
9.72764	84.2559
9.70943	84.243
9.69128	84.2588
9.6732	84.1892
9.65518	84.1821
9.63724	84.209
9.61935	84.1962
9.60155	84.2438
9.5838	84.3455
9.56611	84.3694
9.5485	84.3661
9.53094	84.3428
9.51345	84.3322
9.49604	84.3006
9.47867	84.2834
9.46137	84.2815
9.44414	84.2878
9.42697	84.3651
9.40986	84.4564
9.39281	84.4738
9.37583	84.4138
9.35891	84.4782
9.34204	84.6079
9.32524	84.6957
9.3085	84.7773
9.29182	84.7866
9.27519	84.7399
9.25863	84.7129
9.24213	84.7351
9.22568	84.6861
9.2093	84.7062
9.19297	84.8742
9.17669	84.9738
9.16048	85.006
9.14433	85.0194
9.12823	85.0802
9.11218	85.0719
9.0962	85.0421
9.08027	85.1086
9.06439	85.1987
9.04858	85.2677
9.03281	85.3146
9.0171	85.3552
9.00145	85.3499
8.98585	85.297
8.9703	85.2542
8.9548	85.2112
8.93937	85.2125
8.92398	85.2107
8.90865	85.2728
8.89337	85.3485
8.87814	85.2784
8.86296	85.3402
8.84784	85.3919
8.83277	85.2796
8.81774	85.1707
8.80277	85.2005
8.78786	85.3366
8.77298	85.405
8.75816	85.4594
8.7434	85.4035
8.72868	85.3268
8.714	85.3037
8.69938	85.3187
8.68481	85.4246
8.67029	85.4371
8.65581	85.4686
8.64139	85.5042
8.62701	85.5733
8.61268	85.564
8.5984	85.5015
8.58416	85.5549
8.56997	85.6439
8.55583	85.7658
8.54174	85.9071
8.52769	85.9105
8.51368	85.8377
8.49973	85.8211
8.48582	85.9262
8.47195	85.9351
8.45813	85.9514
8.44436	85.9849
8.43062	86.0428
8.41693	86.1066
8.4033	86.1722
8.3897	86.1643
8.37614	86.163
8.36264	86.2253
8.34917	86.2506
8.33574	86.229
8.32236	86.2275
8.30903	86.3069
8.29573	86.3568
8.28248	86.4422
8.26927	86.5889
8.2561	86.5903
8.24298	86.5696
8.2299	86.5968
8.21685	86.6147
8.20385	86.673
8.19089	86.694
8.17797	86.6795
8.16509	86.6546
8.15225	86.745
8.13946	86.83
8.1267	86.9129
8.11398	87.0108
8.10131	87.0043
8.08867	87.0069
8.07606	87.0454
8.0635	86.9897
8.05099	86.9712
8.0385	86.9631
8.02606	87.01
8.01366	87.1336
8.00129	87.1556
7.98896	87.1836
7.97667	87.288
7.96442	87.4101
7.9522	87.4524
7.94002	87.4459
7.92788	87.4501
7.91578	87.5992
7.90371	87.6789
7.89168	87.6878
7.87969	87.7513
7.86773	87.8159
7.85581	87.8524
7.84392	87.9582
7.83207	88.0189
7.82026	88.1083
7.80849	88.1628
7.79674	88.1647
7.78503	88.1365
7.77337	88.1186
7.76173	88.1801
7.75012	88.2171
7.73856	88.2202
7.72703	88.2224
7.71553	88.146
7.70406	88.1557
7.69263	88.2759
7.68123	88.3007
7.66987	88.2889
7.65855	88.3183
7.64725	88.2883
7.63598	88.2763
7.62475	88.2923
7.61356	88.3319
7.60239	88.3151
7.59126	88.3503
7.58017	88.3454
7.5691	88.3676
7.55806	88.4414
7.54707	88.3958
7.5361	88.3018
7.52516	88.3073
7.51425	88.3531
7.50338	88.3221
7.49253	88.248
7.48172	88.3066
7.47094	88.376
7.46019	88.3385
7.44947	88.233
7.43879	88.1964
7.42813	88.1861
7.4175	88.1332
7.4069	88.0939
7.39634	88.0747
7.3858	88.007
7.37529	87.9858
7.36482	87.9711
7.35437	87.8704
7.34396	87.8688
7.33357	87.8853
7.32321	87.7791
7.31288	87.7487
7.30258	87.6571
7.29231	87.5304
7.28207	87.5986
7.27185	87.6253
7.26167	87.5638
7.25152	87.5
7.24139	87.4255
7.23129	87.4078
7.22122	87.4194
7.21117	87.4334
7.20116	87.3641
7.19117	87.325
7.18121	87.4077
7.17128	87.4898
7.16137	87.4016
7.1515	87.3967
7.14164	87.4109
7.13182	87.3559
7.12203	87.3718
7.11225	87.3446
7.10251	87.2816
7.0928	87.2669
7.08311	87.2327
7.07344	87.2219
7.06381	87.323
7.0542	87.4914
7.04461	87.5715
7.03506	87.4322
7.02552	87.4108
7.01601	87.4181
7.00653	87.3744
6.99708	87.4111
6.98765	87.4182
6.97824	87.4038
6.96886	87.481
6.95951	87.5653
6.95018	87.4046
6.94087	87.4098
6.9316	87.4266
6.92234	87.4043
6.91311	87.4461
6.90391	87.448
6.89473	87.3803
6.88557	87.398
6.87644	87.4671
6.86733	87.7478
6.85824	87.7572
6.84918	87.494
6.84015	87.3981
6.83114	87.4894
6.82215	87.5285
6.81319	87.4308
6.80424	87.4552
6.79532	87.6647
6.78643	87.7466
6.77756	87.6098
6.76871	87.5115
6.75989	87.4382
6.75109	87.4694
6.74231	87.5738
6.73355	87.6347
6.72482	87.7448
6.71611	87.8096
6.70742	87.7559
6.69875	87.7014
6.69011	87.8701
6.68149	88.0018
6.67289	87.8802
6.66431	87.789
6.65576	87.7987
6.64722	88.1137
6.63871	88.4639
6.63022	88.3144
6.62175	88.1195
6.61331	88.1257
6.60488	88.1256
6.59648	88.2694
6.5881	88.4007
6.57974	88.5527
6.5714	88.6623
6.56308	88.4857
6.55478	88.454
6.54651	88.4473
6.53825	88.392
6.53001	88.4301
6.5218	88.6097
6.51361	88.5534
6.50544	88.6469
6.49729	89.0349
6.48915	89.0199
6.48104	88.7805
6.47295	88.658
6.46488	88.5526
6.45683	88.5368
6.4488	88.5551
6.44079	88.6006
6.4328	88.7289
6.42482	88.854
6.41687	89.2139
6.40894	89.0757
6.40103	88.6487
6.39314	88.542
6.38526	88.5009
6.37741	88.5696
6.36957	88.6626
6.36176	88.5867
6.35396	88.6171
6.34618	88.7925
6.33843	88.6093
6.33069	88.3814
6.32297	88.3858
6.31527	88.3953
6.30758	88.3447
6.29992	88.3337
6.29227	88.3097
6.28465	88.2173
6.27704	88.2146
6.26945	88.2539
6.26188	88.2645
6.25432	88.3111
6.24679	88.3289
6.23927	88.2879
6.23177	88.2547
6.22429	88.2627
6.21683	88.2886
6.20938	88.2483
6.20195	88.1968
6.19454	88.3087
6.18715	88.5567
6.17978	88.3725
6.17242	88.1221
6.16508	88.1857
6.15776	88.2006
6.15045	88.1008
6.14317	88.1239
6.1359	88.1465
6.12864	88.2614
6.12141	88.5042
6.11419	88.7067
6.10699	88.6088
6.0998	88.4771
6.09263	88.4777
6.08549	88.4744
6.07835	88.6467
6.07123	88.7965
6.06413	88.6312
6.05705	88.8083
6.04998	89.3077
6.04293	89.069
6.0359	88.672
6.02888	88.6104
6.02187	88.7089
6.01489	88.8428
6.00792	88.8028
6.00096	88.7729
5.99403	88.9561
5.98711	89.0096
5.9802	88.9479
5.97331	89.005
5.96644	88.921
5.95958	88.745
5.95274	88.7507
5.94591	88.8895
5.9391	89.2437
5.9323	89.148
5.92552	88.8276
5.91876	88.7933
5.91201	88.8123
5.90528	88.872
5.89856	89.1316
5.89186	89.1372
5.88517	89.2624
5.8785	89.3408
5.87184	89.0741
5.8652	89.0462
5.85857	88.9511
5.85196	88.8874
5.84536	88.9111
5.83878	88.9183
5.83221	88.9565
5.82566	89.1319
5.81912	89.1612
5.81259	89.017
5.80608	89.0054
5.79959	89.0154
5.79311	88.9776
5.78665	88.9517
5.78019	88.9944
5.77376	89.1988
5.76734	89.4405
5.76093	89.2499
5.75453	89.1219
5.74815	89.2215
5.74179	89.1818
5.73543	89.1913
5.7291	89.1809
5.72277	89.2008
5.71646	89.2262
5.71017	89.2372
5.70389	89.1295
5.69762	89.1087
5.69136	89.1869
5.68513	89.1185
5.6789	89.1122
5.67268	89.128
5.66648	89.1115
5.6603	89.2086
5.65413	89.262
5.64797	89.2964
5.64182	89.4023
5.63569	89.2638
5.62957	89.1744
5.62347	89.1936
5.61737	89.1761
5.61129	89.1334
5.60522	89.081
5.59917	88.9932
5.59313	88.9195
5.5871	88.9026
5.58109	88.9444
5.57509	88.8651
5.5691	88.7347
5.56312	88.7518
5.55716	88.8333
5.55121	88.9201
5.54528	88.943
5.53935	88.9995
5.53344	89.069
5.52754	89.098
5.52166	89.1373
5.51578	89.1459
5.50992	89.1242
5.50407	89.0874
5.49823	89.0633
5.49241	89.1149
5.4866	89.1666
5.4808	89.1881
5.47501	89.1642
5.46923	89.1891
5.46347	89.2752
5.45772	89.2848
5.45198	89.2646
5.44625	89.1998
5.44054	89.1928
5.43484	89.2339
5.42914	89.2272
5.42347	89.2921
5.4178	89.2787
5.41214	89.1998
5.4065	89.1395
5.40087	89.1068
5.39525	89.1514
5.38964	89.2013
5.38404	89.2179
5.37846	89.216
5.37288	89.1995
5.36732	89.1491
5.36177	89.1351
5.35623	89.1728
5.35071	89.1837
5.34519	89.1548
5.33968	89.1741
5.33419	89.1386
5.32871	89.0943
5.32324	89.155
5.31778	89.1958
5.31233	89.1403
5.30689	89.1726
5.30147	89.2441
5.29605	89.2304
5.29065	89.2273
5.28525	89.2138
5.27987	89.2345
5.2745	89.2251
5.26914	89.1792
5.26379	89.2016
5.25845	89.2309
5.25312	89.2682
5.24781	89.2576
5.2425	89.2369
5.23721	89.3039
5.23192	89.3376
5.22665	89.3052
5.22138	89.2821
5.21613	89.3264
5.21089	89.3538
5.20566	89.3566
5.20044	89.3756
5.19522	89.3046
5.19002	89.2342
5.18483	89.2532
5.17965	89.2669
5.17448	89.2552
5.16933	89.2857
5.16418	89.3291
5.15904	89.3467
5.15391	89.3524
5.14879	89.3572
5.14368	89.3183
5.13859	89.2665
5.1335	89.2176
5.12842	89.2602
5.12335	89.2848
5.1183	89.32
5.11325	89.3169
5.10821	89.2846
5.10318	89.3384
5.09817	89.3637
5.09316	89.3725
5.08816	89.3924
5.08317	89.3539
5.07819	89.3259
5.07322	89.3351
5.06826	89.3111
5.06331	89.2749
5.05837	89.3134
5.05344	89.3797
5.04852	89.3747
5.04361	89.3414
5.03871	89.3547
5.03382	89.3492
5.02894	89.3406
5.02406	89.3483
5.0192	89.3665
5.01435	89.361
5.0095	89.3086
5.00467	89.3086
4.99984	89.3301
4.99502	89.3349
4.99021	89.3291
4.98542	89.3229
4.98063	89.3386
4.97585	89.3352
4.97108	89.3829
4.96632	89.3666
4.96156	89.3834
4.95682	89.422
4.95209	89.4121
4.94736	89.4108
4.94264	89.4213
4.93794	89.4
4.93324	89.3751
4.92855	89.3711
4.92387	89.3448
4.9192	89.337
4.91453	89.3702
4.90988	89.3874
4.90524	89.4089
4.9006	89.4381
4.89597	89.4405
4.89135	89.4284
4.88674	89.4021
4.88214	89.3951
4.87755	89.4401
4.87296	89.4418
4.86839	89.398
4.86382	89.4139
4.85926	89.4996
4.85471	89.4609
4.85017	89.4088
4.84564	89.4159
4.84111	89.4553
4.8366	89.4608
4.83209	89.4113
4.82759	89.4528
4.8231	89.4671
4.81862	89.4881
4.81415	89.5027
4.80968	89.5016
4.80522	89.458
4.80077	89.4668
4.79633	89.4839
4.7919	89.4471
4.78747	89.4093
4.78306	89.4576
4.77865	89.4433
4.77425	89.3995
4.76986	89.4233
4.76547	89.4415
4.7611	89.4427
4.75673	89.4505
4.75237	89.421
4.74802	89.4546
4.74367	89.4267
4.73934	89.391
4.73501	89.4207
4.73069	89.4298
4.72638	89.3831
4.72207	89.4035
4.71777	89.4249
4.71348	89.4216
4.7092	89.4254
4.70493	89.4463
4.70066	89.4061
4.69641	89.3645
4.69216	89.3842
4.68791	89.4079
4.68368	89.4215
4.67945	89.4876
4.67523	89.5273
4.67102	89.4597
4.66682	89.3626
4.66262	89.3436
4.65843	89.3867
4.65425	89.4165
4.65007	89.3848
4.64591	89.4093
4.64175	89.4592
4.6376	89.4747
4.63345	89.4617
4.62932	89.4581
4.62519	89.4107
4.62106	89.3529
4.61695	89.3278
4.61284	89.3835
4.60874	89.4234
4.60465	89.3816
4.60056	89.4019
4.59648	89.4143
4.59241	89.4015
4.58835	89.4244
4.58429	89.4472
4.58024	89.4584
4.5762	89.4112
4.57216	89.4393
4.56814	89.4484
4.56411	89.399
4.5601	89.4116
4.55609	89.4509
4.55209	89.4733
4.5481	89.4401
4.54411	89.4355
4.54013	89.4833
4.53616	89.4729
4.5322	89.4103
4.52824	89.3846
4.52429	89.4392
4.52034	89.411
4.51641	89.3917
4.51247	89.4812
4.50855	89.4435
4.50463	89.3591
4.50072	89.4014
4.49682	89.4451
4.49292	89.3963
4.48903	89.3968
4.48515	89.4657
4.48127	89.4869
4.4774	89.4858
4.47354	89.4902
4.46968	89.445
4.46584	89.4344
4.46199	89.4476
4.45815	89.4482
4.45432	89.4314
4.4505	89.4323
4.44668	89.4122
4.44287	89.4073
4.43907	89.4402
4.43527	89.4621
4.43148	89.4189
4.4277	89.3557
4.42392	89.3567
4.42015	89.4101
4.41638	89.476
4.41262	89.4681
4.40887	89.3735
4.40513	89.3728
4.40139	89.4091
4.39765	89.4224
4.39393	89.4967
4.39021	89.4979
4.38649	89.4745
4.38278	89.4278
4.37908	89.3813
4.37539	89.3849
4.3717	89.4229
4.36801	89.4372
4.36434	89.4563
4.36067	89.4542
4.357	89.4572
4.35335	89.452
4.34969	89.4815
4.34605	89.4454
4.34241	89.3978
4.33877	89.3959
4.33514	89.3516
4.33152	89.3658
4.32791	89.3957
4.3243	89.3709
4.32069	89.3445
4.3171	89.3477
4.31351	89.3903
4.30992	89.3939
4.30634	89.3016
4.30277	89.2888
4.2992	89.3403
4.29564	89.2688
4.29208	89.2594
4.28853	89.2935
4.28499	89.2926
4.28145	89.2542
4.27792	89.2131
4.27439	89.2394
4.27087	89.2784
4.26735	89.3179
4.26384	89.3442
4.26034	89.3846
4.25684	89.4277
4.25335	89.3738
4.24986	89.3548
4.24638	89.3331
4.24291	89.2986
4.23944	89.3069
4.23598	89.2824
4.23252	89.2452
4.22906	89.1937
4.22562	89.2285
4.22218	89.2789
4.21874	89.255
4.21531	89.2194
4.21189	89.2245
4.20847	89.3171
4.20506	89.3774
4.20165	89.3631
4.19825	89.3176
4.19485	89.3404
4.19146	89.4242
4.18807	89.4781
4.18469	89.4323
4.18132	89.3574
4.17795	89.3376
4.17458	89.3419
4.17123	89.3073
4.16787	89.3283
4.16453	89.3437
4.16118	89.3809
4.15785	89.3919
4.15451	89.3567
4.15119	89.3425
4.14787	89.3235
4.14455	89.3125
4.14124	89.2788
4.13794	89.2603
4.13464	89.3135
4.13134	89.3272
4.12805	89.3246
4.12477	89.3309
4.12149	89.3337
4.11822	89.3042
4.11495	89.3012
4.11168	89.3415
4.10843	89.4017
4.10517	89.3617
4.10192	89.3214
4.09868	89.3262
4.09545	89.2638
4.09221	89.2006
4.08899	89.1752
4.08576	89.23
4.08255	89.3027
4.07933	89.2927
4.07613	89.294
4.07292	89.3344
4.06973	89.3222
4.06654	89.3176
4.06335	89.3041
4.06017	89.291
4.05699	89.2917
4.05382	89.2789
4.05065	89.2195
4.04749	89.1899
4.04433	89.2362
4.04118	89.2298
4.03803	89.2606
4.03489	89.2733
4.03175	89.2208
4.02862	89.155
4.02549	89.1064
4.02237	89.1423
4.01925	89.2116
4.01614	89.1575
4.01303	89.087
4.00993	89.0973
4.00683	89.0842
4.00373	89.0322
4.00064	88.9948
3.99756	88.9809
3.99448	88.9747
3.9914	88.9294
3.98833	88.867
3.98527	88.8441
3.98221	88.8277
3.97915	88.8935
3.9761	88.9162
3.97305	88.8202
3.97001	88.6984
3.96697	88.6856
3.96394	88.747
3.96091	88.8448
3.95789	88.8733
3.95487	88.8471
3.95186	88.8562
3.94885	88.8894
3.94584	88.8875
3.94284	88.9403
3.93984	88.9551
3.93685	88.9852
3.93386	89.0135
3.93088	89.0058
3.9279	88.9716
3.92493	89.0139
3.92196	89.0592
3.919	89.1053
3.91604	89.1092
3.91308	89.099
3.91013	89.0475
3.90718	89.0455
3.90424	89.115
3.9013	89.0503
3.89837	89.0503
3.89544	89.1155
3.89252	89.0512
3.8896	89.0384
3.88668	89.0656
3.88377	89.0502
3.88086	89.0694
3.87796	89.1552
3.87506	89.2018
3.87217	89.1492
3.86928	89.0317
3.86639	88.9915
3.86351	89.0441
3.86064	89.0237
3.85776	88.9876
3.8549	89.0326
3.85203	89.0357
3.84917	89.028
3.84631	89.0358
3.84346	89.1179
3.84062	89.1503
3.83777	89.1225
3.83494	89.0951
3.8321	89.0937
3.82927	89.089
3.82644	89.0455
3.82362	89.0429
3.82081	89.0407
3.81799	89.1134
3.81518	89.1325
3.81238	89.1093
3.80958	89.078
3.80678	89.0889
3.80399	89.1585
3.8012	89.2081
3.79841	89.1813
3.79563	89.1243
3.79286	89.1131
3.79008	89.1468
3.78731	89.1395
3.78455	89.1525
3.78179	89.1674
3.77903	89.194
3.77628	89.1262
3.77353	89.13
3.77079	89.2013
3.76805	89.2346
3.76531	89.1987
3.76258	89.1337
3.75985	89.138
3.75713	89.1297
3.7544	89.1021
3.75169	89.1368
3.74898	89.2027
3.74627	89.2009
3.74356	89.1022
3.74086	89.1107
3.73816	89.163
3.73547	89.1615
3.73278	89.1076
3.7301	89.0927
3.72741	89.0945
3.72474	89.1622
3.72206	89.1886
3.71939	89.2071
3.71673	89.1935
3.71406	89.1561
3.71141	89.1833
3.70875	89.1712
3.7061	89.1284
3.70345	89.1497
3.70081	89.1245
3.69817	89.0843
3.69553	89.0884
3.6929	89.1455
3.69027	89.1569
3.68765	89.1958
3.68503	89.2216
3.68241	89.1756
3.6798	89.1174
3.67719	89.1075
3.67458	89.1619
3.67198	89.1578
3.66938	89.1008
3.66678	89.1076
3.66419	89.0591
3.66161	89.0568
3.65902	89.1341
3.65644	89.1399
3.65387	89.1065
3.65129	89.1349
3.64872	89.1621
3.64616	89.1119
3.64359	89.0451
3.64103	89.0099
3.63848	89.0932
3.63593	89.146
3.63338	89.1089
3.63084	89.0972
3.6283	89.1638
3.62576	89.1386
3.62322	89.0911
3.62069	89.1015
3.61817	89.0167
3.61564	88.9475
3.61312	89.0395
3.61061	89.0537
3.6081	88.992
3.60559	88.9841
3.60308	88.9759
3.60058	89.0355
3.59808	89.024
3.59558	89.0056
3.59309	89.0626
3.59061	89.0648
3.58812	89.0081
3.58564	89.0124
3.58316	89.0635
3.58069	89.0671
3.57822	89.0615
3.57575	89.0598
3.57328	88.9782
3.57082	88.9222
3.56836	88.9473
3.56591	88.9712
3.56346	88.975
3.56101	88.982
3.55857	89.0234
3.55613	89.0396
3.55369	89.0382
3.55126	88.9343
3.54883	88.9189
3.5464	89.0227
3.54397	89.0323
3.54155	88.9457
3.53914	88.9162
3.53672	88.9167
3.53431	88.9194
3.5319	88.9328
3.5295	88.9062
3.5271	88.8844
3.5247	88.8698
3.52231	88.8844
3.51991	88.8363
3.51753	88.7877
3.51514	88.7853
3.51276	88.7738
3.51038	88.6966
3.50801	88.632
3.50563	88.63
3.50327	88.6559
3.5009	88.6423
3.49854	88.5834
3.49618	88.5528
3.49382	88.5403
3.49147	88.5341
3.48912	88.5795
3.48677	88.5674
3.48443	88.5066
3.48209	88.4862
3.47975	88.4999
3.47742	88.6117
3.47509	88.6266
3.47276	88.4928
3.47044	88.499
3.46812	88.6256
3.4658	88.6522
3.46348	88.5609
3.46117	88.5233
3.45886	88.5283
3.45656	88.5481
3.45425	88.5306
3.45195	88.4959
3.44966	88.5599
3.44736	88.5736
3.44507	88.5184
3.44279	88.5488
3.4405	88.6494
3.43822	88.5895
3.43594	88.5484
3.43367	88.4822
3.43139	88.4095
3.42912	88.3294
3.42686	88.3767
3.42459	88.4576
3.42233	88.442
3.42007	88.3984
3.41782	88.4359
3.41557	88.5171
3.41332	88.4836
3.41108	88.3674
3.40883	88.3083
3.40659	88.3279
3.40435	88.4114
3.40212	88.4672
3.39989	88.4117
3.39766	88.428
3.39544	88.5712
3.39322	88.5771
3.391	88.4208
3.38878	88.422
3.38657	88.4309
3.38436	88.4191
3.38215	88.3356
3.37994	88.3593
3.37774	88.4469
3.37554	88.4493
3.37335	88.5295
3.37115	88.5324
3.36896	88.553
3.36678	88.6003
3.36459	88.4673
3.36241	88.3978
3.36023	88.545
3.35805	88.6042
3.35588	88.5681
3.35371	88.6027
3.35154	88.6125
3.34938	88.5834
3.34721	88.5485
3.34505	88.6056
3.3429	88.7018
3.34074	88.7512
3.33859	88.7466
3.33644	88.745
3.3343	88.7466
3.33215	88.6865
3.33001	88.6453
3.32788	88.6611
3.32574	88.6818
3.32361	88.6764
3.32148	88.7558
3.31936	88.7686
3.31723	88.6904
3.31511	88.6369
3.31299	88.6676
3.31088	88.6802
3.30876	88.6529
3.30665	88.7447
3.30455	88.7775
3.30244	88.6913
3.30034	88.6454
3.29824	88.6272
3.29614	88.6557
3.29405	88.6978
3.29196	88.7378
3.28987	88.8272
3.28778	88.8283
3.2857	88.8029
3.28362	88.6905
3.28154	88.6057
3.27946	88.6252
3.27739	88.6572
3.27532	88.7146
3.27325	88.7043
3.27119	88.6289
3.26913	88.5987
3.26707	88.6564
3.26501	88.6879
3.26295	88.655
3.2609	88.682
3.25885	88.6079
3.2568	88.5703
3.25476	88.6608
3.25272	88.678
3.25068	88.6764
3.24864	88.7019
3.24661	88.6047
3.24458	88.6045
3.24255	88.5738
3.24052	88.5526
3.2385	88.4532
3.23648	88.539
3.23446	88.6961
3.23244	88.6967
3.23043	88.7423
3.22841	88.6743
3.2264	88.5789
3.2244	88.616
3.22239	88.5826
3.22039	88.4958
3.21839	88.5791
3.2164	88.6802
3.2144	88.608
3.21241	88.5314
3.21042	88.6203
3.20844	88.5858
3.20645	88.5388
3.20447	88.6071
3.20249	88.6398
3.20051	88.5575
3.19854	88.5172
3.19657	88.4507
3.1946	88.5153
3.19263	88.5541
3.19067	88.5558
3.1887	88.4454
3.18674	88.4651
3.18479	88.5588
3.18283	88.5196
3.18088	88.5001
3.17893	88.5054
3.17698	88.5101
3.17504	88.5272
3.17309	88.4851
3.17115	88.4086
3.16921	88.4515
3.16728	88.5311
3.16534	88.4973
3.16341	88.4603
3.16148	88.4605
3.15956	88.3747
3.15763	88.3387
3.15571	88.4698
3.15379	88.5017
3.15187	88.4173
3.14996	88.4055
3.14805	88.4524
3.14614	88.5289
3.14423	88.5227
3.14232	88.4509
3.14042	88.4169
3.13852	88.4134
3.13662	88.3921
3.13472	88.3995
3.13283	88.3411
3.13094	88.2995
3.12905	88.3796
3.12716	88.4034
3.12528	88.3573
3.12339	88.3753
3.12151	88.415
3.11964	88.4878
3.11776	88.4829
3.11589	88.3898
3.11401	88.327
3.11214	88.4383
3.11028	88.4562
3.10841	88.3738
3.10655	88.2368
3.10469	88.2196
3.10283	88.3316
3.10098	88.333
3.09912	88.3612
3.09727	88.421
3.09542	88.3608
3.09358	88.2963
3.09173	88.3056
3.08989	88.3351
3.08805	88.3805
3.08621	88.3226
3.08437	88.2521
3.08254	88.2397
3.08071	88.1615
3.07888	88.2118
3.07705	88.2931
3.07523	88.2733
3.0734	88.1953
3.07158	88.1699
3.06977	88.2727
3.06795	88.3275
3.06613	88.2449
3.06432	88.2358
3.06251	88.2176
3.0607	88.2044
3.0589	88.2603
3.0571	88.2349
3.05529	88.2462
3.05349	88.2706
3.0517	88.25
3.0499	88.204
3.04811	88.1754
3.04632	88.1814
3.04453	88.1951
3.04274	88.1431
3.04096	88.1517
3.03918	88.2382
3.0374	88.2246
3.03562	88.1701
3.03384	88.1874
3.03207	88.197
3.03029	88.2446
3.02852	88.2682
3.02676	88.1171
3.02499	88.0344
3.02323	88.1355
3.02146	88.1458
3.0197	88.1339
3.01795	88.1189
3.01619	88.1855
3.01444	88.1702
3.01269	88.1445
3.01094	88.2265
3.00919	88.3179
3.00744	88.2407
3.0057	88.1674
3.00396	88.1975
3.00222	88.0979
3.00048	88.0269
2.99875	88.0231
2.99701	88.1438
2.99528	88.2738
2.99355	88.2208
2.99183	88.1675
2.9901	88.2329
2.98838	88.2452
2.98666	88.195
2.98494	88.1613
2.98322	88.2001
2.9815	88.3314
2.97979	88.3547
2.97808	88.2042
2.97637	88.0836
2.97466	88.0484
2.97295	88.0485
2.97125	88.0836
2.96955	88.1739
2.96785	88.1685
2.96615	88.1039
2.96446	88.0821
2.96276	88.016
2.96107	88.0607
2.95938	88.1494
2.95769	88.1325
2.95601	88.1576
2.95432	88.1499
2.95264	88.1025
2.95096	88.1127
2.94928	88.1722
2.9476	88.0841
2.94593	88.0672
2.94425	88.1451
2.94258	88.1326
2.94092	88.1895
2.93925	88.2048
2.93758	88.1629
2.93592	88.0612
2.93426	87.9351
2.9326	88.0092
2.93094	88.2084
2.92928	88.1873
2.92763	88.0717
2.92598	88.0292
2.92433	88.1214
2.92268	88.2204
2.92103	88.2756
2.91939	88.2049
2.91775	87.9985
2.9161	88.0151
2.91447	88.1639
2.91283	88.1653
2.91119	88.1006
2.90956	88.1442
2.90793	88.218
2.9063	88.0773
2.90467	87.9546
2.90304	87.9824
2.90142	88.1941
2.89979	88.168
2.89817	88.0269
2.89656	88.0723
2.89494	88.2163
2.89332	88.1475
2.89171	88.0742
2.8901	88.1912
2.88849	88.2888
2.88688	88.2449
2.88527	88.0963
2.88367	88.1224
2.88206	88.1685
2.88046	88.0941
2.87886	88.1024
2.87727	88.1881
2.87567	88.1367
2.87408	88.2296
2.87248	88.3583
2.87089	88.2992
2.8693	88.2627
2.86772	88.2632
2.86613	88.2592
2.86455	88.1684
2.86297	88.1051
2.86139	87.998
2.85981	87.9907
2.85823	88.1724
2.85666	88.2872
2.85508	88.3113
2.85351	88.1725
2.85194	88.0354
2.85038	88.0758
2.84881	88.1968
2.84724	88.2701
2.84568	88.2236
2.84412	88.2344
2.84256	88.2051
2.841	88.1149
2.83945	88.1628
2.83789	88.4326
2.83634	88.4758
2.83479	88.3004
2.83324	88.0765
2.83169	88.2022
2.83015	88.2422
2.82861	88.1449
2.82706	88.1839
2.82552	88.0654
2.82398	87.9172
2.82245	88.0547
2.82091	88.2041
2.81938	88.2044
2.81784	88.1306
2.81631	88.1538
2.81479	88.1953
2.81326	88.107
2.81173	88.0461
2.81021	88.0232
2.80869	88.0009
2.80716	88.1612
2.80565	88.2127
2.80413	88.185
2.80261	88.1823
2.8011	88.1506
2.79959	88.1685
2.79808	88.1326
2.79657	88.1677
2.79506	88.1798
2.79355	88.0404
2.79205	88.0449
2.79055	88.1994
2.78904	88.2025
2.78754	88.1641
2.78605	88.1483
2.78455	88.0548
2.78306	88.0531
2.78156	87.8521
2.78007	88.0357
2.77858	88.4849
2.77709	88.4193
2.77561	87.8873
2.77412	87.8716
2.77264	88.1515
2.77116	88.2175
2.76968	88.0299
2.7682	87.8609
2.76672	88.1582
2.76524	88.1422
2.76377	87.9335
2.7623	87.8167
2.76083	87.9081
2.75936	88.0584
2.75789	88.1815
2.75642	88.3667
2.75496	88.513
2.7535	88.3239
2.75203	88.1675
2.75057	88.2075
2.74912	88.2208
2.74766	88.2349
2.7462	88.1494
2.74475	88.1306
2.7433	88.2183
2.74185	88.4352
2.7404	88.5369
2.73895	88.4091
2.7375	88.3229
2.73606	88.3353
2.73462	88.357
2.73318	88.4174
2.73174	88.4078
2.7303	88.4265
2.72886	88.388
2.72742	88.4898
2.72599	88.7453
2.72456	88.8495
2.72313	88.6507
2.7217	88.6792
2.72027	88.8036
2.71884	88.6192
2.71742	88.573
2.71599	88.6361
2.71457	88.5851
2.71315	88.6552
2.71173	88.9433
2.71032	88.9579
2.7089	88.7755
2.70748	88.7409
2.70607	88.7866
2.70466	88.8169
2.70325	88.8417
2.70184	88.8466
2.70043	88.9259
2.69903	88.9427
2.69762	89.0122
2.69622	89.0465
2.69482	89.1174
2.69342	89.1587
2.69202	88.9469
2.69062	88.8382
2.68923	88.9488
2.68783	89.0506
2.68644	89.0859
2.68505	89.1335
2.68366	89.1301
2.68227	89.0626
2.68089	89.0957
2.6795	89.2857
2.67812	89.3676
2.67673	89.476
2.67535	89.4023
2.67397	89.1841
2.6726	89.1672
2.67122	89.4553
2.66984	89.5206
2.66847	89.3215
2.6671	89.3963
2.66572	89.5009
2.66435	89.3652
2.66299	89.1546
2.66162	89.1847
2.66025	89.1771
2.65889	89.0798
2.65753	89.0463
2.65616	89.1046
2.65481	88.9723
2.65345	89.0674
2.65209	89.2501
2.65073	89.0811
2.64938	89.0394
2.64803	89.0844
2.64667	89.1323
2.64532	89.0831
2.64397	89.0321
2.64263	89.0907
2.64128	89.0383
2.63994	88.9476
2.63859	89.0335
2.63725	89.1329
2.63591	89.0692
2.63457	89.0558
2.63323	89.08
2.6319	89.1587
2.63056	89.2962
2.62923	89.1383
2.62789	89.0357
2.62656	89.1647
2.62523	89.1408
2.6239	89.0234
2.62258	89.0333
2.62125	89.2096
2.61993	89.2708
2.6186	89.1727
2.61728	89.3082
2.61596	89.2341
2.61464	89.0608
2.61332	89.0294
2.61201	89.1223
2.61069	89.1905
2.60938	89.1669
2.60807	89.1151
2.60675	89.229
2.60544	89.3
2.60414	89.144
2.60283	89.1057
2.60152	89.2194
2.60022	89.3204
2.59891	89.2532
2.59761	89.1028
2.59631	89.2333
2.59501	89.6392
2.59371	89.5883
2.59242	89.2051
2.59112	89.0169
2.58983	89.0816
2.58853	89.1157
2.58724	89.1273
2.58595	89.0911
2.58466	89.1262
2.58338	89.1665
2.58209	89.0985
2.5808	89.1461
2.57952	89.1051
2.57824	89.1552
2.57695	89.2953
2.57567	89.2747
2.5744	89.1609
2.57312	89.1059
2.57184	89.0286
2.57057	89.0649
2.56929	89.0285
2.56802	88.894
2.56675	88.9312
2.56548	89.1546
2.56421	89.3434
2.56294	89.3091
2.56168	89.195
2.56041	89.1389
2.55915	89.163
2.55789	89.0617
2.55662	89.0731
2.55536	89.0777
2.5541	88.9821
2.55285	88.9749
2.55159	89.0261
2.55034	89.0583
2.54908	89.0614
2.54783	89.041
2.54658	88.9771
2.54533	89.0272
2.54408	88.9363
2.54283	88.839
2.54159	88.9537
2.54034	89.0055
2.5391	89.0081
2.53785	89.0924
2.53661	89.1525
2.53537	89.0952
2.53413	89.0034
2.53289	88.9707
2.53166	88.9879
2.53042	89.0127
2.52919	89.0408
2.52795	89.0673
2.52672	89.0706
2.52549	89.079
2.52426	88.9054
2.52303	88.8339
2.52181	88.8451
2.52058	88.9103
2.51936	88.9447
2.51813	88.8948
2.51691	88.9324
2.51569	88.9685
2.51447	88.9808
2.51325	88.9344
2.51203	88.8206
2.51082	88.7776
2.5096	88.7871
2.50839	88.8571
2.50717	88.9851
2.50596	89.0013
2.50475	88.9619
2.50354	89.0008
2.50233	88.9794
2.50113	88.9057
2.49992	88.9516
2.49872	88.9963
2.49751	89.0162
2.49631	88.9851
2.49511	88.9829
2.49391	88.9835
2.49271	88.9371
2.49151	88.8905
2.49031	88.8799
2.48912	88.7694
2.48792	88.7454
2.48673	88.8982
2.48554	89.0091
2.48435	88.9518
2.48316	88.8552
2.48197	88.8613
2.48078	88.8243
2.4796	88.7738
2.47841	88.9003
2.47723	89.1074
2.47604	89.076
2.47486	88.9477
2.47368	88.9316
2.4725	89.0032
2.47132	88.9907
2.47014	88.9888
2.46897	89.007
2.46779	89.0984
2.46662	89.0484
2.46545	88.8562
2.46427	88.8945
2.4631	88.9862
2.46193	88.9816
2.46077	89.0058
2.4596	88.9369
2.45843	88.8774
2.45727	88.8204
2.4561	88.7645
2.45494	88.8163
2.45378	88.8107
2.45262	88.7227
2.45146	88.707
2.4503	88.8166
2.44914	88.9497
2.44799	88.975
2.44683	88.9392
2.44568	88.8612
2.44452	88.8391
2.44337	88.803
2.44222	88.7596
2.44107	88.8551
2.43992	88.945
2.43877	89.0576
2.43763	89.0024
2.43648	88.873
2.43534	88.9722
2.43419	88.9507
2.43305	88.8987
2.43191	88.9287
2.43077	88.9679
2.42963	89.0346
2.42849	88.9827
2.42736	88.8902
2.42622	88.9419
2.42509	88.9567
2.42395	88.8986
2.42282	88.9014
2.42169	89.0113
2.42056	89.1685
2.41943	89.1756
2.4183	88.9582
2.41717	88.7831
2.41605	88.821
2.41492	88.8807
2.4138	88.8808
2.41267	88.922
2.41155	88.9291
2.41043	88.8774
2.40931	88.8872
2.40819	88.9522
2.40707	89.0883
2.40595	89.058
2.40484	88.9818
2.40372	88.8923
2.40261	88.8127
2.4015	88.9007
2.40039	88.9453
2.39928	88.8867
2.39817	88.9333
2.39706	88.9362
2.39595	88.9243
2.39484	88.9441
2.39374	88.8195
2.39263	88.7627
2.39153	88.795
2.39043	88.8124
2.38932	88.8025
2.38822	88.8407
2.38712	88.9519
2.38603	88.9852
2.38493	89.048
2.38383	88.9715
2.38274	88.7838
2.38164	88.6977
2.38055	88.8085
2.37946	88.8725
2.37836	88.9903
2.37727	89.0831
2.37618	89.0034
2.3751	88.9005
2.37401	88.9354
2.37292	88.9825
2.37184	88.9408
2.37075	88.8103
2.36967	88.7538
2.36859	88.8295
2.3675	88.9202
2.36642	88.9365
2.36534	88.9578
2.36427	88.9535
2.36319	88.9303
2.36211	88.8629
2.36104	88.8646
2.35996	88.9704
2.35889	89.0485
2.35781	88.9946
2.35674	88.8721
2.35567	88.8211
2.3546	88.8067
2.35353	88.8964
2.35247	88.8564
2.3514	88.797
2.35033	88.782
2.34927	88.7289
2.3482	88.6964
2.34714	88.722
2.34608	88.6483
2.34502	88.7898
2.34396	89.0311
2.3429	88.9466
2.34184	88.9854
2.34078	89.0222
2.33973	88.9581
2.33867	88.9005
2.33762	88.8687
2.33656	88.8137
2.33551	88.7749
2.33446	88.8656
2.33341	88.9403
2.33236	88.9065
2.33131	88.9306
2.33026	88.8932
2.32922	88.8116
2.32817	88.7849
2.32712	88.8531
2.32608	88.8678
2.32504	88.8004
2.324	88.7716
2.32295	88.8609
2.32191	88.8719
2.32087	88.8164
2.31984	88.8223
2.3188	88.9185
2.31776	88.8977
2.31673	88.8232
2.31569	88.7817
2.31466	88.8135
2.31362	88.7772
2.31259	88.7898
2.31156	88.8672
2.31053	88.8171
2.3095	88.7905
2.30847	88.7089
2.30745	88.8272
2.30642	88.862
2.3054	88.8264
2.30437	88.8064
2.30335	88.8767
2.30232	88.8792
2.3013	88.829
2.30028	88.7635
2.29926	88.6696
2.29824	88.7294
2.29722	88.9009
2.29621	88.9784
2.29519	88.9736
2.29417	88.8962
2.29316	88.8493
2.29215	88.7243
2.29113	88.7215
2.29012	88.7609
2.28911	88.6306
2.2881	88.4992
2.28709	88.6533
2.28608	88.7497
2.28507	88.829
2.28407	88.9099
2.28306	88.739
2.28206	88.7648
2.28105	88.7054
2.28005	88.5012
2.27905	88.4826
2.27805	88.7041
2.27705	88.9009
2.27605	88.9641
2.27505	88.835
2.27405	88.6848
2.27305	88.6357
2.27206	88.8218
2.27106	88.8818
2.27007	88.7535
2.26907	88.6956
2.26808	88.7296
2.26709	88.5889
2.2661	88.5926
2.26511	88.7104
2.26412	88.7399
2.26313	88.776
2.26214	88.8915
2.26116	88.833
2.26017	88.6957
2.25919	88.6737
2.2582	88.7729
2.25722	88.846
2.25624	88.897
2.25526	88.858
2.25428	88.8023
2.2533	88.7895
2.25232	88.7978
2.25134	88.7522
2.25036	88.7375
2.24939	88.7071
2.24841	88.6925
2.24744	88.823
2.24646	88.8115
2.24549	88.7483
2.24452	88.7357
2.24355	88.8043
2.24257	88.7814
2.24161	88.7255
2.24064	88.7263
2.23967	88.7751
2.2387	88.803
2.23774	88.9406
2.23677	88.886
2.23581	88.6724
2.23484	88.5834
2.23388	88.6637
2.23292	88.7226
2.23196	88.6678
2.231	88.8032
2.23004	88.9185
2.22908	88.8578
2.22812	88.7481
2.22716	88.7059
2.22621	88.8481
2.22525	88.8056
2.2243	88.5796
2.22334	88.4864
2.22239	88.5691
2.22144	88.7356
2.22049	88.8541
2.21953	88.7977
2.21859	88.78
2.21764	88.8731
2.21669	88.7106
2.21574	88.4147
2.21479	88.5055
2.21385	88.885
2.2129	89.0292
2.21196	88.8852
2.21102	88.6816
2.21007	88.6791
2.20913	88.7176
2.20819	88.7365
2.20725	88.8083
2.20631	88.905
2.20537	88.7979
2.20444	88.8704
2.2035	88.943
2.20256	88.8421
2.20163	88.7119
2.20069	88.7395
2.19976	88.7692
2.19883	88.7083
2.19789	88.6153
2.19696	88.6272
2.19603	88.5693
2.1951	88.5345
2.19417	88.7282
2.19325	88.704
2.19232	88.6837
2.19139	88.8272
2.19047	88.6907
2.18954	88.5813
2.18862	88.5968
2.18769	88.6492
2.18677	88.716
2.18585	88.671
2.18493	88.6599
2.18401	88.6719
2.18309	88.6424
2.18217	88.704
2.18125	88.8429
2.18033	88.8307
2.17942	88.781
2.1785	88.78
2.17759	88.8276
2.17667	88.7835
2.17576	88.7533
2.17485	88.5969
2.17393	88.4387
2.17302	88.6277
2.17211	88.8358
2.1712	88.7532
2.17029	88.6631
2.16939	88.6891
2.16848	88.6355
2.16757	88.5985
2.16667	88.6138
2.16576	88.5395
2.16486	88.4997
2.16395	88.5444
2.16305	88.6843
2.16215	88.9223
2.16125	88.8206
2.16035	88.6294
2.15945	88.5524
2.15855	88.5963
2.15765	88.614
2.15675	88.5825
2.15586	88.6758
2.15496	88.6852
2.15406	88.6372
2.15317	88.7175
2.15228	88.8861
2.15138	88.744
2.15049	88.7125
2.1496	88.8862
2.14871	88.8503
2.14782	88.6474
2.14693	88.4084
2.14604	88.4748
2.14515	88.7325
2.14427	88.7557
2.14338	88.8943
2.14249	88.9735
2.14161	88.7098
2.14072	88.6246
2.13984	88.7624
2.13896	88.6129
2.13808	88.61
2.13719	88.6858
2.13631	88.67
2.13543	88.5838
2.13455	88.6579
2.13368	88.6372
2.1328	88.5067
2.13192	88.3943
2.13105	88.578
2.13017	88.715
2.1293	88.7863
2.12842	88.643
2.12755	88.5407
2.12668	88.6426
2.1258	88.6067
2.12493	88.5651
2.12406	88.5102
2.12319	88.5877
2.12232	88.9595
2.12145	88.9864
2.12059	88.7737
2.11972	88.6545
2.11885	88.5005
2.11799	88.4544
2.11712	88.5201
2.11626	88.637
2.1154	88.5478
2.11453	88.5856
2.11367	88.6999
2.11281	88.6864
2.11195	88.7854
2.11109	88.8499
2.11023	88.8101
2.10937	88.7103
2.10851	88.7166
2.10766	88.6189
2.1068	88.597
2.10594	88.6518
2.10509	88.6717
2.10423	88.7835
2.10338	88.7577
2.10253	88.6962
2.10168	88.5956
2.10082	88.5972
2.09997	88.6316
2.09912	88.6005
2.09827	88.6592
2.09742	88.6182
2.09658	88.5006
2.09573	88.5384
2.09488	88.6433
2.09404	88.6478
2.09319	88.742
2.09235	88.757
2.0915	88.8044
2.09066	88.8966
2.08982	88.6903
2.08897	88.4701
2.08813	88.6044
2.08729	88.7814
2.08645	88.8109
2.08561	88.8316
2.08477	88.6576
2.08394	88.3933
2.0831	88.3119
2.08226	88.4578
2.08143	88.5119
2.08059	88.454
2.07976	88.5781
2.07892	88.5798
2.07809	88.5294
2.07726	88.5601
2.07643	88.5375
2.07559	88.61
2.07476	88.6701
2.07393	88.5694
2.0731	88.4975
2.07228	88.5522
2.07145	88.5558
2.07062	88.5749
2.06979	88.47
2.06897	88.486
2.06814	88.6502
2.06732	88.859
2.06649	88.8351
2.06567	88.4504
2.06485	88.1934
2.06403	88.3122
2.0632	88.4817
2.06238	88.7308
2.06156	88.7474
2.06074	88.4726
2.05993	88.5157
2.05911	88.644
2.05829	88.6593
2.05747	88.6997
2.05666	88.5691
2.05584	88.6073
2.05503	88.7177
2.05421	88.7552
2.0534	88.7726
2.05259	88.6006
2.05177	88.2292
2.05096	88.2241
2.05015	88.4916
2.04934	88.5065
2.04853	88.6001
2.04772	88.6278
2.04691	88.5868
2.04611	88.6877
2.0453	88.7731
2.04449	88.6368
2.04369	88.4979
2.04288	88.4063
2.04208	88.4005
2.04127	88.5796
2.04047	88.7821
2.03967	88.7442
2.03886	88.6259
2.03806	88.3977
2.03726	88.2291
2.03646	88.3606
2.03566	88.5356
2.03486	88.5279
2.03407	88.5148
2.03327	88.5785
2.03247	88.7438
2.03167	88.5179
2.03088	88.2599
2.03008	88.1844
2.02929	88.2653
2.0285	88.509
2.0277	88.5866
2.02691	88.5488
2.02612	88.5445
2.02533	88.5236
2.02453	88.4294
2.02374	88.4461
2.02295	88.6203
2.02217	88.8004
2.02138	88.7419
2.02059	88.7038
2.0198	88.7192
2.01902	88.7388
2.01823	88.8278
2.01744	88.8514
2.01666	88.699
2.01588	88.4309
2.01509	88.2423
2.01431	88.3595
2.01353	88.4769
2.01275	88.423
2.01196	88.402
2.01118	88.5882
2.0104	88.5989
2.00963	88.6442
2.00885	88.7639
2.00807	88.7293
2.00729	88.5542
2.00651	88.2589
2.00574	88.4846
2.00496	88.6274
2.00419	88.3988
2.00341	88.4721
2.00264	88.7849
2.00187	88.7474
2.00109	88.3558
2.00032	87.9474
