Name: Biotite K(Mg,Fe^2+)_3(Al,Fe^3+)Si_3O_10(OH,F)_2
Type: Mineral
Class: Silicates
Subclass: Phyllosilicates
Particle Size: 45-125um
Sample No.: PS-23A
Owner: JPL
Wavelength range: IR
Origin: 
Collected by JPL
Description: 





Measurement: Hemispherical reflectance
First Column: X
Second Column: Y
X Units:  Wavelength (micrometers)
Y Units:  Reflectance (percent)
First X Value: 15.3853
Last X Value: 2.00032
Number of X Values: 2256
Additional information: ps23aa.txt
 
15.3853	2.55469
15.3397	2.63845
15.2945	2.67993
15.2495	3.03041
15.2048	3.36476
15.1603	3.28676
15.1161	3.33334
15.0722	3.4831
15.0285	3.30284
14.9851	2.93962
14.9419	3.0481
14.8989	3.49009
14.8563	3.64934
14.8138	3.67852
14.7716	3.76715
14.7296	3.76339
14.6879	3.81987
14.6464	3.80949
14.6052	3.95886
14.5641	4.22796
14.5233	4.25582
14.4828	4.21304
14.4424	4.28115
14.4023	4.26549
14.3624	4.24226
14.3227	4.34672
14.2833	4.37466
14.244	4.24488
14.205	4.3283
14.1662	4.22565
14.1276	4.11427
14.0892	4.28612
14.051	4.31402
14.0131	4.26977
13.9753	4.31511
13.9377	4.33926
13.9004	4.20786
13.8632	4.08912
13.8262	3.97128
13.7895	3.81957
13.7529	3.78981
13.7165	3.64872
13.6803	3.86142
13.6443	4.10743
13.6085	4.05901
13.5729	4.16735
13.5374	4.38542
13.5022	4.53401
13.4671	4.76235
13.4322	4.76933
13.3975	4.98294
13.363	5.33342
13.3286	5.26714
13.2944	5.44905
13.2604	5.69003
13.2266	5.83817
13.193	6.04624
13.1595	6.37601
13.1262	6.55392
13.093	6.50223
13.06	6.63431
13.0272	7.02221
12.9946	7.31647
12.9621	7.48481
12.9298	7.79902
12.8976	8.05131
12.8656	8.30236
12.8337	8.60447
12.8021	8.84723
12.7705	9.02587
12.7391	9.17419
12.7079	9.46797
12.6769	9.87339
12.6459	10.4392
12.6152	10.8297
12.5845	11.0844
12.5541	11.5367
12.5238	12.1223
12.4936	12.5808
12.4635	13.1029
12.4337	13.5316
12.4039	14.0368
12.3743	14.6093
12.3448	15.3122
12.3155	15.936
12.2863	16.3274
12.2573	16.7324
12.2284	17.3237
12.1996	17.843
12.171	18.0446
12.1425	18.2021
12.1141	18.4738
12.0859	18.6013
12.0578	18.6883
12.0298	18.882
12.0019	18.9851
11.9742	19.0109
11.9466	18.9065
11.9192	18.737
11.8918	18.7593
11.8646	18.6768
11.8375	18.6086
11.8106	18.5311
11.7837	18.435
11.757	18.3706
11.7304	18.1866
11.7039	18.1451
11.6776	18.1564
11.6513	17.9489
11.6252	17.8953
11.5992	18.0189
11.5733	18.0105
11.5475	17.9454
11.5219	17.8947
11.4963	17.8684
11.4709	17.7704
11.4455	17.7871
11.4203	17.9078
11.3952	17.9491
11.3702	17.822
11.3454	17.8341
11.3206	17.7626
11.2959	17.7891
11.2714	17.8067
11.2469	17.8294
11.2226	17.8393
11.1983	17.7587
11.1742	17.589
11.1502	17.5234
11.1263	17.6049
11.1024	17.6235
11.0787	17.629
11.0551	17.6678
11.0316	17.6981
11.0081	17.6538
10.9848	17.5877
10.9616	17.6287
10.9385	17.6874
10.9154	17.776
10.8925	17.8544
10.8697	17.9141
10.8469	17.9839
10.8243	17.9982
10.8017	18.0075
10.7793	18.1718
10.7569	18.302
10.7346	18.3643
10.7125	18.4872
10.6904	18.4906
10.6684	18.4272
10.6465	18.3749
10.6247	18.3849
10.6029	18.3347
10.5813	18.2119
10.5597	18.1386
10.5383	17.9917
10.5169	17.9363
10.4956	17.8878
10.4744	17.6811
10.4533	17.5484
10.4323	17.4802
10.4113	17.4139
10.3904	17.3757
10.3697	17.3313
10.349	17.2536
10.3284	17.2546
10.3078	17.299
10.2874	17.3105
10.267	17.2609
10.2467	17.1932
10.2265	17.3969
10.2064	17.6261
10.1863	17.688
10.1663	17.8536
10.1464	18.335
10.1266	18.853
10.1069	19.2787
10.0872	19.8231
10.0676	20.441
10.0481	21.0177
10.0287	21.7107
10.0093	22.4986
9.99005	23.364
9.97084	24.4128
9.95169	25.458
9.93263	26.2993
9.91364	26.9589
9.89472	27.6605
9.87587	28.1935
9.8571	28.4349
9.83839	28.4336
9.81976	28.1943
9.80119	27.8034
9.78271	27.3029
9.76428	26.6391
9.74592	25.8489
9.72764	25.0077
9.70943	24.1009
9.69128	23.2118
9.6732	22.4465
9.65518	21.5324
9.63724	20.6843
9.61935	20.0127
9.60155	19.3084
9.5838	18.4725
9.56611	17.8961
9.5485	17.415
9.53094	16.8089
9.51345	16.444
9.49604	16.1633
9.47867	15.7211
9.46137	15.3624
9.44414	15.1071
9.42697	14.7997
9.40986	14.4376
9.39281	14.1701
9.37583	13.9816
9.35891	13.8155
9.34204	13.6838
9.32524	13.5156
9.3085	13.3391
9.29182	12.9949
9.27519	12.5419
9.25863	12.2673
9.24213	12.0616
9.22568	11.7001
9.2093	11.3279
9.19297	11.1045
9.17669	10.7973
9.16048	10.4068
9.14433	10.0339
9.12823	9.63789
9.11218	9.16154
9.0962	8.77504
9.08027	8.39678
9.06439	8.09926
9.04858	7.76757
9.03281	7.55465
9.0171	7.29947
9.00145	7.00811
8.98585	6.6499
8.9703	6.36137
8.9548	6.01935
8.93937	5.65751
8.92398	5.28899
8.90865	4.92244
8.89337	4.59528
8.87814	4.34228
8.86296	4.00933
8.84784	3.69878
8.83277	3.41647
8.81774	3.10274
8.80277	2.78065
8.78786	2.49855
8.77298	2.17817
8.75816	1.94688
8.7434	1.90126
8.72868	1.91738
8.714	1.75431
8.69938	1.70442
8.68481	1.70765
8.67029	1.74381
8.65581	1.89138
8.64139	1.92103
8.62701	1.84427
8.61268	1.97682
8.5984	2.15766
8.58416	2.39909
8.56997	2.54464
8.55583	2.78112
8.54174	3.14299
8.52769	3.41322
8.51368	3.60518
8.49973	3.92633
8.48582	4.28641
8.47195	4.59305
8.45813	4.88739
8.44436	5.25015
8.43062	5.52663
8.41693	5.76495
8.4033	6.1678
8.3897	6.7503
8.37614	7.08655
8.36264	7.34606
8.34917	7.64166
8.33574	7.98862
8.32236	8.41567
8.30903	8.91111
8.29573	9.34525
8.28248	9.67794
8.26927	9.91631
8.2561	10.1303
8.24298	10.5298
8.2299	11.056
8.21685	11.5335
8.20385	11.831
8.19089	11.9603
8.17797	12.2048
8.16509	12.5713
8.15225	12.9178
8.13946	13.2056
8.1267	13.4381
8.11398	13.769
8.10131	14.1491
8.08867	14.4076
8.07606	14.6378
8.0635	14.9157
8.05099	15.2054
8.0385	15.3828
8.02606	15.5825
8.01366	15.8692
8.00129	16.0952
7.98896	16.2638
7.97667	16.4014
7.96442	16.6781
7.9522	16.9401
7.94002	17.2012
7.92788	17.3835
7.91578	17.5587
7.90371	17.7393
7.89168	17.9721
7.87969	18.2446
7.86773	18.4007
7.85581	18.5529
7.84392	18.8353
7.83207	19.0493
7.82026	19.1387
7.80849	19.3249
7.79674	19.5189
7.78503	19.626
7.77337	19.7799
7.76173	19.9106
7.75012	20.0843
7.73856	20.2727
7.72703	20.3787
7.71553	20.5161
7.70406	20.7554
7.69263	20.9275
7.68123	21.0894
7.66987	21.2521
7.65855	21.2866
7.64725	21.4361
7.63598	21.6853
7.62475	21.9747
7.61356	22.2802
7.60239	22.4754
7.59126	22.6019
7.58017	22.7874
7.5691	22.9577
7.55806	23.0679
7.54707	23.2413
7.5361	23.5134
7.52516	23.7232
7.51425	23.9384
7.50338	24.1557
7.49253	24.3145
7.48172	24.4259
7.47094	24.6343
7.46019	24.8299
7.44947	24.9188
7.43879	25.095
7.42813	25.4041
7.4175	25.5957
7.4069	25.6682
7.39634	25.8586
7.3858	26.1002
7.37529	26.2588
7.36482	26.4002
7.35437	26.6083
7.34396	26.9007
7.33357	27.1683
7.32321	27.3276
7.31288	27.5013
7.30258	27.6948
7.29231	27.8812
7.28207	28.0724
7.27185	28.257
7.26167	28.4476
7.25152	28.7654
7.24139	28.9244
7.23129	29.0793
7.22122	29.2722
7.21117	29.6007
7.20116	29.8512
7.19117	29.9964
7.18121	30.2789
7.17128	30.5764
7.16137	30.7045
7.1515	30.9305
7.14164	31.1316
7.13182	31.2875
7.12203	31.5211
7.11225	31.6675
7.10251	31.8233
7.0928	32.0514
7.08311	32.2271
7.07344	32.3499
7.06381	32.5237
7.0542	32.9439
7.04461	33.3269
7.03506	33.2814
7.02552	33.3473
7.01601	33.5207
7.00653	33.6567
6.99708	33.8756
6.98765	34.0847
6.97824	34.2461
6.96886	34.6382
6.95951	35.0234
6.95018	34.8848
6.94087	34.8909
6.9316	35.0506
6.92234	35.171
6.91311	35.3142
6.90391	35.5606
6.89473	35.6632
6.88557	35.7656
6.87644	36.0492
6.86733	36.7673
6.85824	36.8692
6.84918	36.3605
6.84015	36.196
6.83114	36.4435
6.82215	36.517
6.81319	36.3824
6.80424	36.5885
6.79532	37.09
6.78643	37.357
6.77756	37.342
6.76871	37.3198
6.75989	37.3118
6.75109	37.4038
6.74231	37.4643
6.73355	37.6295
6.72482	37.8549
6.71611	37.9992
6.70742	37.9655
6.69875	37.8035
6.69011	38.0231
6.68149	38.356
6.67289	38.2704
6.66431	38.1069
6.65576	38.0801
6.64722	38.6343
6.63871	39.2469
6.63022	38.8168
6.62175	38.3471
6.61331	38.3273
6.60488	38.3119
6.59648	38.4647
6.5881	38.5483
6.57974	38.6937
6.5714	38.8554
6.56308	38.5239
6.55478	38.421
6.54651	38.2124
6.53825	38.0468
6.53001	38.1149
6.5218	38.2682
6.51361	38.0538
6.50544	38.1087
6.49729	38.7327
6.48915	38.7131
6.48104	38.2104
6.47295	37.8897
6.46488	37.5788
6.45683	37.4323
6.4488	37.336
6.44079	37.2639
6.4328	37.3686
6.42482	37.5281
6.41687	38.1197
6.40894	37.8261
6.40103	36.8618
6.39314	36.4579
6.38526	36.2878
6.37741	36.2912
6.36957	36.3033
6.36176	35.8936
6.35396	35.8339
6.34618	36.1694
6.33843	35.8016
6.33069	35.2237
6.32297	34.9957
6.31527	34.8674
6.30758	34.7359
6.29992	34.5703
6.29227	34.4717
6.28465	34.3424
6.27704	34.1851
6.26945	34.0274
6.26188	33.8102
6.25432	33.5581
6.24679	33.3909
6.23927	33.3389
6.23177	33.2897
6.22429	33.0862
6.21683	32.9003
6.20938	32.7674
6.20195	32.6346
6.19454	32.6283
6.18715	32.8032
6.17978	32.5309
6.17242	32.1539
6.16508	32.1389
6.15776	32.1881
6.15045	32.0847
6.14317	32.0121
6.1359	31.8832
6.12864	31.8071
6.12141	32.1458
6.11419	32.5605
6.10699	32.3403
6.0998	32.1387
6.09263	32.2373
6.08549	32.4365
6.07835	32.8608
6.07123	33.0657
6.06413	32.849
6.05705	33.2208
6.04998	34.1106
6.04293	33.7451
6.0359	33.1449
6.02888	33.0669
6.02187	33.2339
6.01489	33.4797
6.00792	33.4706
6.00096	33.5188
5.99403	33.899
5.98711	34.0606
5.9802	33.9492
5.97331	34.0492
5.96644	34.1624
5.95958	33.9634
5.95274	33.9675
5.94591	34.2225
5.9391	34.9152
5.9323	34.7673
5.92552	34.2319
5.91876	34.1223
5.91201	34.0721
5.90528	34.2077
5.89856	34.6279
5.89186	34.5386
5.88517	34.7044
5.8785	34.7961
5.87184	34.2928
5.8652	34.2436
5.85857	34.1549
5.85196	34.093
5.84536	34.0939
5.83878	34.2067
5.83221	34.4728
5.82566	34.9949
5.81912	35.0834
5.81259	34.6403
5.80608	34.5106
5.79959	34.6025
5.79311	34.6658
5.78665	34.8188
5.78019	34.9798
5.77376	35.2866
5.76734	35.8151
5.76093	35.5804
5.75453	35.327
5.74815	35.4948
5.74179	35.4766
5.73543	35.4973
5.7291	35.6043
5.72277	35.8139
5.71646	36.0492
5.71017	36.2406
5.70389	36.1235
5.69762	36.1397
5.69136	36.2762
5.68513	36.3516
5.6789	36.6072
5.67268	36.7607
5.66648	36.7508
5.6603	36.8768
5.65413	37.0389
5.64797	37.2796
5.64182	37.5769
5.63569	37.452
5.62957	37.4004
5.62347	37.5191
5.61737	37.6466
5.61129	37.7095
5.60522	37.819
5.59917	37.9599
5.59313	38.0392
5.5871	38.2723
5.58109	38.5973
5.57509	38.6245
5.5691	38.5559
5.56312	38.6681
5.55716	38.8353
5.55121	38.9443
5.54528	38.972
5.53935	39.0652
5.53344	39.1852
5.52754	39.3643
5.52166	39.5459
5.51578	39.6915
5.50992	39.7536
5.50407	39.9398
5.49823	40.1279
5.49241	40.3197
5.4866	40.6097
5.4808	40.8986
5.47501	40.9552
5.46923	41.2074
5.46347	41.5075
5.45772	41.5911
5.45198	41.7975
5.44625	42.0436
5.44054	42.2934
5.43484	42.5543
5.42914	42.8735
5.42347	43.3751
5.4178	43.526
5.41214	43.6665
5.4065	43.8604
5.40087	44.0976
5.39525	44.3854
5.38964	44.6544
5.38404	44.9889
5.37846	45.2047
5.37288	45.4061
5.36732	45.7038
5.36177	46.0188
5.35623	46.3303
5.35071	46.6593
5.34519	46.8305
5.33968	46.9659
5.33419	47.1527
5.32871	47.4016
5.32324	47.6606
5.31778	47.8743
5.31233	48.0676
5.30689	48.2798
5.30147	48.4418
5.29605	48.5804
5.29065	48.7249
5.28525	48.8589
5.27987	48.9907
5.2745	49.0895
5.26914	49.1622
5.26379	49.2258
5.25845	49.3973
5.25312	49.4535
5.24781	49.4794
5.2425	49.5508
5.23721	49.6354
5.23192	49.6893
5.22665	49.7364
5.22138	49.8196
5.21613	49.966
5.21089	49.9906
5.20566	49.9632
5.20044	49.9372
5.19522	49.9592
5.19002	49.9438
5.18483	49.9132
5.17965	49.9125
5.17448	49.8832
5.16933	49.8685
5.16418	49.8504
5.15904	49.8451
5.15391	49.8396
5.14879	49.8408
5.14368	49.8037
5.13859	49.7066
5.1335	49.617
5.12842	49.5163
5.12335	49.4859
5.1183	49.5235
5.11325	49.5048
5.10821	49.4461
5.10318	49.3909
5.09817	49.2973
5.09316	49.2714
5.08816	49.1949
5.08317	49.0993
5.07819	49.0325
5.07322	49.0012
5.06826	49.0057
5.06331	48.9917
5.05837	48.958
5.05344	48.9914
5.04852	48.9967
5.04361	49.0059
5.03871	49.0214
5.03382	49.0755
5.02894	49.0785
5.02406	49.1443
5.0192	49.226
5.01435	49.2354
5.0095	49.2268
5.00467	49.2623
4.99984	49.3032
4.99502	49.3014
4.99021	49.3557
4.98542	49.4396
4.98063	49.4935
4.97585	49.531
4.97108	49.4273
4.96632	49.4199
4.96156	49.5626
4.95682	49.5856
4.95209	49.5276
4.94736	49.5032
4.94264	49.4711
4.93794	49.4095
4.93324	49.4109
4.92855	49.4513
4.92387	49.4058
4.9192	49.3912
4.91453	49.3803
4.90988	49.4105
4.90524	49.4994
4.9006	49.5305
4.89597	49.5713
4.89135	49.6311
4.88674	49.6461
4.88214	49.6604
4.87755	49.6763
4.87296	49.6744
4.86839	49.7295
4.86382	49.8805
4.85926	49.9601
4.85471	50.0331
4.85017	50.1104
4.84564	50.1586
4.84111	50.2056
4.8366	50.3487
4.83209	50.5299
4.82759	50.632
4.8231	50.6644
4.81862	50.744
4.81415	50.862
4.80968	51.0625
4.80522	51.2147
4.80077	51.36
4.79633	51.5454
4.7919	51.6736
4.78747	51.7649
4.78306	51.977
4.77865	52.1917
4.77425	52.3941
4.76986	52.5584
4.76547	52.6928
4.7611	52.8604
4.75673	53.0834
4.75237	53.287
4.74802	53.3536
4.74367	53.41
4.73934	53.6141
4.73501	53.8179
4.73069	53.9179
4.72638	53.9999
4.72207	54.1465
4.71777	54.283
4.71348	54.4732
4.7092	54.63
4.70493	54.6881
4.70066	54.7888
4.69641	54.9783
4.69216	55.1015
4.68791	55.2072
4.68368	55.37
4.67945	55.5047
4.67523	55.6291
4.67102	55.7256
4.66682	55.8176
4.66262	55.9512
4.65843	56.0561
4.65425	56.1937
4.65007	56.3798
4.64591	56.5481
4.64175	56.6875
4.6376	56.7857
4.63345	56.8858
4.62932	57.0571
4.62519	57.217
4.62106	57.3115
4.61695	57.4386
4.61284	57.5337
4.60874	57.662
4.60465	57.8418
4.60056	57.968
4.59648	58.0769
4.59241	58.2
4.58835	58.2695
4.58429	58.3474
4.58024	58.4059
4.5762	58.5891
4.57216	58.7211
4.56814	58.7704
4.56411	58.8184
4.5601	58.9371
4.55609	59.1048
4.55209	59.1713
4.5481	59.2487
4.54411	59.2932
4.54013	59.3192
4.53616	59.3691
4.5322	59.486
4.52824	59.6018
4.52429	59.6621
4.52034	59.6696
4.51641	59.7486
4.51247	59.8223
4.50855	59.8449
4.50463	59.8408
4.50072	59.878
4.49682	59.9809
4.49292	60.026
4.48903	60.0002
4.48515	59.9948
4.48127	60.0384
4.4774	60.1128
4.47354	60.1324
4.46968	60.1058
4.46584	60.1341
4.46199	60.1991
4.45815	60.1931
4.45432	60.1919
4.4505	60.2078
4.44668	60.2782
4.44287	60.2987
4.43907	60.3627
4.43527	60.4446
4.43148	60.4657
4.4277	60.4385
4.42392	60.4104
4.42015	60.4789
4.41638	60.5485
4.41262	60.5027
4.40887	60.5025
4.40513	60.5039
4.40139	60.5499
4.39765	60.5928
4.39393	60.6241
4.39021	60.6851
4.38649	60.778
4.38278	60.7456
4.37908	60.6757
4.37539	60.7005
4.3717	60.7285
4.36801	60.7599
4.36434	60.7956
4.36067	60.737
4.357	60.7139
4.35335	60.7784
4.34969	60.8063
4.34605	60.8093
4.34241	60.782
4.33877	60.7878
4.33514	60.8806
4.33152	60.9263
4.32791	60.919
4.3243	60.915
4.32069	60.9357
4.3171	60.9318
4.31351	60.923
4.30992	60.9884
4.30634	60.9134
4.30277	60.8635
4.2992	60.9634
4.29564	61.0425
4.29208	61.0726
4.28853	61.0695
4.28499	61.0433
4.28145	61.0204
4.27792	61.0123
4.27439	61.0673
4.27087	61.1131
4.26735	61.0654
4.26384	61.0049
4.26034	61.0424
4.25684	61.1463
4.25335	61.2306
4.24986	61.2475
4.24638	61.1735
4.24291	61.1128
4.23944	61.1575
4.23598	61.221
4.23252	61.2267
4.22906	61.2576
4.22562	61.3256
4.22218	61.3202
4.21874	61.3098
4.21531	61.317
4.21189	61.3602
4.20847	61.3851
4.20506	61.4121
4.20165	61.4527
4.19825	61.4703
4.19485	61.4714
4.19146	61.4914
4.18807	61.5231
4.18469	61.5833
4.18132	61.5843
4.17795	61.5696
4.17458	61.5497
4.17123	61.4966
4.16787	61.4857
4.16453	61.5792
4.16118	61.6961
4.15785	61.7364
4.15451	61.6774
4.15119	61.6827
4.14787	61.7176
4.14455	61.7115
4.14124	61.7454
4.13794	61.7914
4.13464	61.7684
4.13134	61.7195
4.12805	61.6884
4.12477	61.7209
4.12149	61.7612
4.11822	61.7967
4.11495	61.8507
4.11168	61.9242
4.10843	61.978
4.10517	61.8761
4.10192	61.8117
4.09868	61.8264
4.09545	61.9261
4.09221	61.9501
4.08899	61.8791
4.08576	61.8491
4.08255	61.8687
4.07933	61.8537
4.07613	61.9319
4.07292	62.0665
4.06973	62.0603
4.06654	62.0215
4.06335	62.0737
4.06017	62.1089
4.05699	62.0283
4.05382	62.0233
4.05065	62.1339
4.04749	62.1854
4.04433	62.1451
4.04118	62.1328
4.03803	62.1741
4.03489	62.1758
4.03175	62.139
4.02862	62.2218
4.02549	62.256
4.02237	62.2813
4.01925	62.3905
4.01614	62.4357
4.01303	62.443
4.00993	62.4149
4.00683	62.4277
4.00373	62.3667
4.00064	62.3766
3.99756	62.4347
3.99448	62.4828
3.9914	62.582
3.98833	62.5592
3.98527	62.5123
3.98221	62.4714
3.97915	62.5217
3.9761	62.6673
3.97305	62.7333
3.97001	62.714
3.96697	62.727
3.96394	62.7905
3.96091	62.8741
3.95789	62.9088
3.95487	62.8936
3.95186	62.9052
3.94885	62.9486
3.94584	62.9426
3.94284	62.8566
3.93984	62.9122
3.93685	63.0287
3.93386	63.0747
3.93088	63.0922
3.9279	63.1455
3.92493	63.1074
3.92196	63.0964
3.919	63.157
3.91604	63.1828
3.91308	63.258
3.91013	63.3191
3.90718	63.3283
3.90424	63.2849
3.9013	63.2445
3.89837	63.2266
3.89544	63.1963
3.89252	63.2245
3.8896	63.2604
3.88668	63.2387
3.88377	63.2851
3.88086	63.3477
3.87796	63.3499
3.87506	63.2526
3.87217	63.2492
3.86928	63.3274
3.86639	63.3413
3.86351	63.3618
3.86064	63.4258
3.85776	63.3862
3.8549	63.3735
3.85203	63.3944
3.84917	63.359
3.84631	63.3286
3.84346	63.398
3.84062	63.4325
3.83777	63.3652
3.83494	63.3538
3.8321	63.3193
3.82927	63.3189
3.82644	63.3499
3.82362	63.3468
3.82081	63.3692
3.81799	63.3318
3.81518	63.3081
3.81238	63.3013
3.80958	63.3573
3.80678	63.3446
3.80399	63.2973
3.8012	63.312
3.79841	63.3092
3.79563	63.3162
3.79286	63.3133
3.79008	63.3709
3.78731	63.397
3.78455	63.3224
3.78179	63.254
3.77903	63.2899
3.77628	63.2892
3.77353	63.2777
3.77079	63.3016
3.76805	63.3063
3.76531	63.3261
3.76258	63.3583
3.75985	63.3524
3.75713	63.3434
3.7544	63.2941
3.75169	63.2269
3.74898	63.1925
3.74627	63.2126
3.74356	63.2376
3.74086	63.2699
3.73816	63.2301
3.73547	63.2545
3.73278	63.2827
3.7301	63.2555
3.72741	63.1857
3.72474	63.1994
3.72206	63.274
3.71939	63.2729
3.71673	63.2748
3.71406	63.2412
3.71141	63.1814
3.70875	63.1586
3.7061	63.1473
3.70345	63.0869
3.70081	63.0291
3.69817	63.0795
3.69553	63.1181
3.6929	63.0741
3.69027	62.9814
3.68765	62.993
3.68503	63.0208
3.68241	62.9725
3.6798	62.9441
3.67719	63.0079
3.67458	63.0825
3.67198	62.966
3.66938	62.8508
3.66678	62.8407
3.66419	62.8936
3.66161	62.9604
3.65902	62.9107
3.65644	62.8474
3.65387	62.8899
3.65129	62.9401
3.64872	62.8797
3.64616	62.8198
3.64359	62.8176
3.64103	62.9084
3.63848	62.9631
3.63593	62.8838
3.63338	62.7806
3.63084	62.6662
3.6283	62.6883
3.62576	62.765
3.62322	62.7755
3.62069	62.815
3.61817	62.7892
3.61564	62.7293
3.61312	62.7016
3.61061	62.69
3.6081	62.6306
3.60559	62.6273
3.60308	62.6205
3.60058	62.5964
3.59808	62.6112
3.59558	62.5728
3.59309	62.4982
3.59061	62.4539
3.58812	62.4188
3.58564	62.3836
3.58316	62.3359
3.58069	62.3576
3.57822	62.4064
3.57575	62.3921
3.57328	62.2757
3.57082	62.2563
3.56836	62.2771
3.56591	62.1605
3.56346	62.1027
3.56101	62.0789
3.55857	62.0088
3.55613	61.9512
3.55369	61.8735
3.55126	61.8913
3.54883	61.9366
3.5464	61.9063
3.54397	61.8359
3.54155	61.7247
3.53914	61.5659
3.53672	61.4926
3.53431	61.4795
3.5319	61.3794
3.5295	61.1886
3.5271	61.0316
3.5247	60.782
3.52231	60.5328
3.51991	60.1632
3.51753	59.531
3.51514	58.4824
3.51276	57.0998
3.51038	55.8698
3.50801	55.8564
3.50563	56.7305
3.50327	57.4583
3.5009	57.9584
3.49854	58.4242
3.49618	58.8308
3.49382	59.1927
3.49147	59.5087
3.48912	59.6605
3.48677	59.6369
3.48443	59.6569
3.48209	59.6827
3.47975	59.6629
3.47742	59.6442
3.47509	59.6485
3.47276	59.6379
3.47044	59.5832
3.46812	59.4914
3.4658	59.4238
3.46348	59.3686
3.46117	59.3193
3.45886	59.1479
3.45656	58.9105
3.45425	58.7645
3.45195	58.6815
3.44966	58.6005
3.44736	58.4208
3.44507	58.2079
3.44279	58.0491
3.4405	57.8357
3.43822	57.3918
3.43594	56.7493
3.43367	55.8884
3.43139	54.7517
3.42912	53.7271
3.42686	53.3782
3.42459	53.617
3.42233	54.1188
3.42007	54.6305
3.41782	55.0786
3.41557	55.3924
3.41332	55.7207
3.41108	56.1487
3.40883	56.5591
3.40659	56.92
3.40435	57.2545
3.40212	57.6362
3.39989	57.93
3.39766	58.1147
3.39544	58.2547
3.39322	58.3838
3.391	58.4002
3.38878	58.2921
3.38657	58.1958
3.38436	58.102
3.38215	58.0199
3.37994	57.986
3.37774	58.0354
3.37554	58.2015
3.37335	58.3793
3.37115	58.4993
3.36896	58.615
3.36678	58.7028
3.36459	58.828
3.36241	58.9786
3.36023	59.036
3.35805	59.0548
3.35588	59.116
3.35371	59.2174
3.35154	59.1747
3.34938	59.1274
3.34721	59.1392
3.34505	59.1481
3.3429	59.117
3.34074	59.1135
3.33859	59.1283
3.33644	59.092
3.3343	59.1075
3.33215	59.1512
3.33001	59.1443
3.32788	59.1535
3.32574	59.0831
3.32361	59.0247
3.32148	58.9758
3.31936	58.9987
3.31723	58.9935
3.31511	58.8799
3.31299	58.7978
3.31088	58.7397
3.30876	58.68
3.30665	58.6546
3.30455	58.6448
3.30244	58.5979
3.30034	58.4785
3.29824	58.426
3.29614	58.3653
3.29405	58.2612
3.29196	58.2497
3.28987	58.2757
3.28778	58.1426
3.2857	57.9416
3.28362	57.7876
3.28154	57.7727
3.27946	57.7392
3.27739	57.6622
3.27532	57.6824
3.27325	57.606
3.27119	57.4478
3.26913	57.3884
3.26707	57.3284
3.26501	57.3213
3.26295	57.2716
3.2609	57.1624
3.25885	57.0117
3.2568	57.009
3.25476	57.0149
3.25272	57.0083
3.25068	56.8662
3.24864	56.7517
3.24661	56.7236
3.24458	56.6684
3.24255	56.5275
3.24052	56.4503
3.2385	56.4887
3.23648	56.4591
3.23446	56.4484
3.23244	56.4659
3.23043	56.4002
3.22841	56.3469
3.2264	56.326
3.2244	56.2324
3.22239	56.1608
3.22039	56.0754
3.21839	56.1367
3.2164	56.1547
3.2144	56.138
3.21241	56.1164
3.21042	56.0426
3.20844	55.9975
3.20645	55.9595
3.20447	55.9647
3.20249	56.037
3.20051	56.0527
3.19854	55.9921
3.19657	55.8909
3.1946	55.8525
3.19263	55.9683
3.19067	56.033
3.1887	55.8447
3.18674	55.7077
3.18479	55.69
3.18283	55.7696
3.18088	55.7782
3.17893	55.7033
3.17698	55.5773
3.17504	55.5128
3.17309	55.5036
3.17115	55.414
3.16921	55.3949
3.16728	55.3505
3.16534	55.2405
3.16341	55.1417
3.16148	55.0661
3.15956	55.0413
3.15763	55.0055
3.15571	54.9255
3.15379	54.9278
3.15187	54.8665
3.14996	54.7132
3.14805	54.604
3.14614	54.5537
3.14423	54.5879
3.14232	54.5879
3.14042	54.3976
3.13852	54.2383
3.13662	54.2412
3.13472	54.2706
3.13283	54.2773
3.13094	54.185
3.12905	54.034
3.12716	53.939
3.12528	53.9355
3.12339	53.8181
3.12151	53.6833
3.11964	53.6229
3.11776	53.5546
3.11589	53.5129
3.11401	53.5594
3.11214	53.602
3.11028	53.5986
3.10841	53.4528
3.10655	53.3226
3.10469	53.2839
3.10283	53.2476
3.10098	53.2305
3.09912	53.1973
3.09727	53.0957
3.09542	53.0799
3.09358	53.1028
3.09173	53.0898
3.08989	53.0641
3.08805	53.1132
3.08621	53.0383
3.08437	52.9655
3.08254	52.9145
3.08071	52.8663
3.07888	52.8291
3.07705	52.832
3.07523	52.866
3.0734	52.8056
3.07158	52.7159
3.06977	52.771
3.06795	52.8424
3.06613	52.7669
3.06432	52.6335
3.06251	52.5878
3.0607	52.5885
3.0589	52.4026
3.0571	52.3674
3.05529	52.4646
3.05349	52.5052
3.0517	52.3922
3.0499	52.2162
3.04811	52.1248
3.04632	52.2497
3.04453	52.3172
3.04274	52.1608
3.04096	52.0791
3.03918	52.1298
3.0374	52.0993
3.03562	52.0755
3.03384	52.065
3.03207	51.9756
3.03029	51.8843
3.02852	51.8483
3.02676	51.8576
3.02499	51.8246
3.02323	51.8284
3.02146	51.8299
3.0197	51.6851
3.01795	51.6576
3.01619	51.631
3.01444	51.5952
3.01269	51.6247
3.01094	51.5642
3.00919	51.5105
3.00744	51.5038
3.0057	51.4357
3.00396	51.4099
3.00222	51.3351
3.00048	51.1715
2.99875	51.1773
2.99701	51.1392
2.99528	51.0474
2.99355	51.0387
2.99183	51.0666
2.9901	51.0398
2.98838	50.9992
2.98666	50.9644
2.98494	50.831
2.98322	50.7675
2.9815	50.6817
2.97979	50.6627
2.97808	50.6446
2.97637	50.419
2.97466	50.3229
2.97295	50.3567
2.97125	50.3347
2.96955	50.3571
2.96785	50.2802
2.96615	50.2079
2.96446	50.1743
2.96276	50.0336
2.96107	49.9214
2.95938	49.9905
2.95769	49.9738
2.95601	49.938
2.95432	49.9008
2.95264	49.8593
2.95096	49.7805
2.94928	49.683
2.9476	49.6424
2.94593	49.568
2.94425	49.5374
2.94258	49.6016
2.94092	49.5735
2.93925	49.4282
2.93758	49.3165
2.93592	49.3258
2.93426	49.2726
2.9326	49.1832
2.93094	49.1677
2.92928	49.2625
2.92763	49.2283
2.92598	49.0748
2.92433	49.1547
2.92268	49.115
2.92103	48.9112
2.91939	48.8862
2.91775	48.8837
2.9161	48.9008
2.91447	48.9023
2.91283	48.8061
2.91119	48.7112
2.90956	48.7121
2.90793	48.6523
2.9063	48.5946
2.90467	48.6524
2.90304	48.5212
2.90142	48.4134
2.89979	48.3431
2.89817	48.2574
2.89656	48.2606
2.89494	48.1979
2.89332	48.1594
2.89171	48.0552
2.8901	47.8649
2.88849	47.8073
2.88688	47.7898
2.88527	47.6679
2.88367	47.5143
2.88206	47.4725
2.88046	47.3089
2.87886	47.0295
2.87727	46.8744
2.87567	46.8061
2.87408	46.7132
2.87248	46.5138
2.87089	46.2641
2.8693	45.9929
2.86772	45.7578
2.86613	45.4964
2.86455	45.1789
2.86297	44.9834
2.86139	44.6977
2.85981	44.368
2.85823	43.9203
2.85666	43.4688
2.85508	43.1631
2.85351	42.814
2.85194	42.2946
2.85038	41.8851
2.84881	41.5025
2.84724	40.9672
2.84568	40.5344
2.84412	40.2353
2.84256	39.8336
2.841	39.2753
2.83945	38.6753
2.83789	38.0728
2.83634	37.6183
2.83479	37.2211
2.83324	36.6987
2.83169	36.1932
2.83015	35.4271
2.82861	34.6434
2.82706	34.137
2.82552	33.7045
2.82398	33.1097
2.82245	32.5523
2.82091	32.1767
2.81938	31.7202
2.81784	31.1601
2.81631	30.7928
2.81479	30.4907
2.81326	30.2894
2.81173	30.1386
2.81021	29.9627
2.80869	29.901
2.80716	29.9339
2.80565	30.1543
2.80413	30.4107
2.80261	30.4124
2.8011	30.2918
2.79959	30.2424
2.79808	30.2659
2.79657	30.2072
2.79506	30.0461
2.79355	29.8736
2.79205	29.5407
2.79055	29.3128
2.78904	29.2141
2.78754	29.1905
2.78605	29.1533
2.78455	29.0417
2.78306	29.0122
2.78156	29.2431
2.78007	29.7752
2.77858	30.2224
2.77709	30.4837
2.77561	30.8515
2.77412	31.239
2.77264	31.6072
2.77116	32.0177
2.76968	32.3186
2.7682	32.6648
2.76672	32.8584
2.76524	33.0253
2.76377	33.3618
2.7623	33.7019
2.76083	33.8756
2.75936	34.2319
2.75789	34.9154
2.75642	35.7752
2.75496	36.2148
2.7535	36.433
2.75203	36.9354
2.75057	37.22
2.74912	37.4061
2.74766	37.4941
2.7462	37.5554
2.74475	37.6203
2.7433	37.5938
2.74185	37.7979
2.7404	38.0509
2.73895	37.7406
2.7375	37.2138
2.73606	37.0584
2.73462	37.0014
2.73318	36.5368
2.73174	36.2939
2.7303	36.2247
2.72886	36.1223
2.72742	36.029
2.72599	36.1461
2.72456	36.3423
2.72313	36.0682
2.7217	36.0572
2.72027	36.3181
2.71884	35.8661
2.71742	35.6927
2.71599	35.7943
2.71457	36.0261
2.71315	36.2803
2.71173	36.9335
2.71032	37.2905
2.7089	37.2707
2.70748	37.4329
2.70607	37.718
2.70466	38.1913
2.70325	38.7817
2.70184	39.4844
2.70043	40.0417
2.69903	40.4246
2.69762	41.1409
2.69622	42.2664
2.69482	43.5857
2.69342	44.5178
2.69202	45.0286
2.69062	46.0239
2.68923	47.5138
2.68783	49.1957
2.68644	51.1411
2.68505	53.214
2.68366	54.9154
2.68227	56.1017
2.68089	57.1785
2.6795	58.3025
2.67812	58.7865
2.67673	59.1775
2.67535	59.0482
2.67397	58.783
2.6726	59.0109
2.67122	59.8985
2.66984	59.9502
2.66847	59.3148
2.6671	59.7498
2.66572	60.0458
2.66435	59.5154
2.66299	58.7397
2.66162	58.771
2.66025	58.8354
2.65889	58.7271
2.65753	58.6213
2.65616	58.7993
2.65481	58.7028
2.65345	58.6945
2.65209	58.7452
2.65073	58.5251
2.64938	58.4297
2.64803	58.4759
2.64667	58.6947
2.64532	58.8087
2.64397	58.5569
2.64263	58.4713
2.64128	58.4416
2.63994	58.4446
2.63859	58.4339
2.63725	58.4885
2.63591	58.5508
2.63457	58.7301
2.63323	58.7575
2.6319	58.9332
2.63056	59.4506
2.62923	59.2335
2.62789	59.0949
2.62656	59.2444
2.62523	58.8316
2.6239	58.7485
2.62258	58.9619
2.62125	59.4226
2.61993	59.4524
2.6186	59.1544
2.61728	59.5169
2.61596	59.591
2.61464	59.3039
2.61332	59.2881
2.61201	59.2847
2.61069	59.3885
2.60938	59.5024
2.60807	59.6314
2.60675	59.9623
2.60544	60.1603
2.60414	59.7638
2.60283	59.6291
2.60152	59.6423
2.60022	59.5001
2.59891	59.344
2.59761	59.4857
2.59631	60.2014
2.59501	61.0593
2.59371	60.4631
2.59242	59.4537
2.59112	59.2782
2.58983	59.4558
2.58853	59.4755
2.58724	59.4796
2.58595	59.3089
2.58466	59.6167
2.58338	59.7857
2.58209	59.5264
2.5808	59.4091
2.57952	59.1746
2.57824	59.2411
2.57695	59.4589
2.57567	59.3826
2.5744	59.4727
2.57312	59.6792
2.57184	59.376
2.57057	59.3735
2.56929	59.3493
2.56802	59.0642
2.56675	58.9709
2.56548	59.2214
2.56421	59.4636
2.56294	59.5662
2.56168	59.5849
2.56041	59.3858
2.55915	59.1267
2.55789	58.9689
2.55662	58.9161
2.55536	58.9157
2.5541	58.9383
2.55285	59.0513
2.55159	59.1028
2.55034	58.9919
2.54908	58.9191
2.54783	58.9615
2.54658	58.9258
2.54533	58.8108
2.54408	58.8259
2.54283	58.7916
2.54159	58.6667
2.54034	58.5705
2.5391	58.5027
2.53785	58.5335
2.53661	58.632
2.53537	58.5889
2.53413	58.6487
2.53289	58.5733
2.53166	58.3849
2.53042	58.3145
2.52919	58.3398
2.52795	58.3691
2.52672	58.4181
2.52549	58.3875
2.52426	58.3185
2.52303	58.1981
2.52181	58.1321
2.52058	58.18
2.51936	58.1077
2.51813	58.0541
2.51691	58.0253
2.51569	57.956
2.51447	57.9598
2.51325	57.9963
2.51203	58.0288
2.51082	58.0862
2.5096	58.0851
2.50839	58.0115
2.50717	57.9881
2.50596	57.9881
2.50475	57.8446
2.50354	57.8052
2.50233	57.9271
2.50113	57.9806
2.49992	57.8502
2.49872	57.7593
2.49751	57.7646
2.49631	57.7339
2.49511	57.6383
2.49391	57.5269
2.49271	57.5179
2.49151	57.6945
2.49031	57.688
2.48912	57.4557
2.48792	57.3732
2.48673	57.5117
2.48554	57.6439
2.48435	57.4786
2.48316	57.4395
2.48197	57.4253
2.48078	57.2743
2.4796	57.1582
2.47841	57.1431
2.47723	57.2124
2.47604	57.1343
2.47486	57.1415
2.47368	57.252
2.4725	57.1649
2.47132	57.0312
2.47014	57.0344
2.46897	57.0095
2.46779	56.965
2.46662	56.9396
2.46545	56.9707
2.46427	56.8809
2.4631	56.8112
2.46193	56.8556
2.46077	56.8421
2.4596	56.833
2.45843	56.7915
2.45727	56.6807
2.4561	56.4761
2.45494	56.4645
2.45378	56.4232
2.45262	56.3383
2.45146	56.3134
2.4503	56.3311
2.44914	56.4576
2.44799	56.4636
2.44683	56.4155
2.44568	56.4016
2.44452	56.371
2.44337	56.2759
2.44222	56.1504
2.44107	56.1637
2.43992	56.1563
2.43877	56.0277
2.43763	55.8711
2.43648	55.9272
2.43534	55.9557
2.43419	55.8324
2.43305	55.752
2.43191	55.7216
2.43077	55.7761
2.42963	55.7327
2.42849	55.6375
2.42736	55.6541
2.42622	55.6569
2.42509	55.5178
2.42395	55.4064
2.42282	55.3094
2.42169	55.2053
2.42056	55.0951
2.41943	54.9327
2.4183	54.8687
2.41717	54.8912
2.41605	54.8993
2.41492	54.7496
2.4138	54.6092
2.41267	54.722
2.41155	54.7333
2.41043	54.5957
2.40931	54.486
2.40819	54.4803
2.40707	54.4066
2.40595	54.3016
2.40484	54.2509
2.40372	54.226
2.40261	54.1093
2.4015	54.086
2.40039	53.9683
2.39928	53.8874
2.39817	53.9195
2.39706	53.8852
2.39595	53.8689
2.39484	53.7457
2.39374	53.7633
2.39263	53.8547
2.39153	53.8864
2.39043	53.8674
2.38932	53.8709
2.38822	53.9032
2.38712	53.85
2.38603	53.8874
2.38493	53.8983
2.38383	53.8025
2.38274	53.7715
2.38164	53.7522
2.38055	53.7179
2.37946	53.8446
2.37836	53.9783
2.37727	54.0049
2.37618	54.0578
2.3751	54.1008
2.37401	53.9986
2.37292	54.0006
2.37184	54.0093
2.37075	54.0135
2.36967	54.0284
2.36859	53.8783
2.3675	53.8794
2.36642	53.8833
2.36534	53.7438
2.36427	53.6883
2.36319	53.7508
2.36211	53.6246
2.36104	53.514
2.35996	53.5588
2.35889	53.5796
2.35781	53.4888
2.35674	53.3323
2.35567	53.2246
2.3546	53.0805
2.35353	52.9305
2.35247	52.8652
2.3514	52.8034
2.35033	52.7471
2.34927	52.7542
2.3482	52.8071
2.34714	52.6331
2.34608	52.426
2.34502	52.1949
2.34396	52.1493
2.3429	52.2797
2.34184	52.2485
2.34078	52.2134
2.33973	52.229
2.33867	52.1386
2.33762	52.0913
2.33656	51.9807
2.33551	51.9866
2.33446	52.1024
2.33341	52.1898
2.33236	52.1602
2.33131	52.1666
2.33026	52.2711
2.32922	52.3607
2.32817	52.3152
2.32712	52.4025
2.32608	52.5288
2.32504	52.5065
2.324	52.5309
2.32295	52.6059
2.32191	52.7153
2.32087	52.7684
2.31984	52.9009
2.3188	53.0943
2.31776	53.0962
2.31673	53.169
2.31569	53.2982
2.31466	53.3547
2.31362	53.3611
2.31259	53.5105
2.31156	53.5671
2.31053	53.5163
2.3095	53.6791
2.30847	53.8116
2.30745	53.7205
2.30642	53.7357
2.3054	53.7833
2.30437	53.7924
2.30335	53.9134
2.30232	54.0582
2.3013	54.0779
2.30028	53.9746
2.29926	53.9349
2.29824	54.0772
2.29722	54.2862
2.29621	54.2681
2.29519	54.2521
2.29417	54.2564
2.29316	54.2823
2.29215	54.4201
2.29113	54.49
2.29012	54.3745
2.28911	54.4591
2.2881	54.4807
2.28709	54.3997
2.28608	54.455
2.28507	54.4873
2.28407	54.4905
2.28306	54.4615
2.28206	54.4454
2.28105	54.4529
2.28005	54.5177
2.27905	54.4825
2.27805	54.411
2.27705	54.3784
2.27605	54.2686
2.27505	54.2213
2.27405	54.2472
2.27305	54.245
2.27206	54.1753
2.27106	54.0711
2.27007	53.9103
2.26907	53.8307
2.26808	53.8741
2.26709	53.969
2.2661	53.9754
2.26511	53.8426
2.26412	53.7723
2.26313	53.7489
2.26214	53.6453
2.26116	53.5412
2.26017	53.5044
2.25919	53.4169
2.2582	53.4199
2.25722	53.4691
2.25624	53.3667
2.25526	53.209
2.25428	53.069
2.2533	52.8746
2.25232	52.8742
2.25134	53.0368
2.25036	53.341
2.24939	53.4378
2.24841	53.317
2.24744	53.3214
2.24646	53.366
2.24549	53.364
2.24452	53.3292
2.24355	53.3001
2.24257	53.402
2.24161	53.5093
2.24064	53.6259
2.23967	53.776
2.2387	53.7382
2.23774	53.6991
2.23677	53.8731
2.23581	53.9056
2.23484	53.8664
2.23388	53.9006
2.23292	53.9143
2.23196	53.8587
2.231	53.777
2.23004	53.8693
2.22908	54.0082
2.22812	53.986
2.22716	53.7787
2.22621	53.7697
2.22525	53.9444
2.2243	53.8391
2.22334	53.6891
2.22239	53.6888
2.22144	53.8518
2.22049	53.9144
2.21953	53.7877
2.21859	53.6557
2.21764	53.4905
2.21669	53.4807
2.21574	53.5331
2.21479	53.5047
2.21385	53.5765
2.2129	53.7229
2.21196	53.5727
2.21102	53.3621
2.21007	53.5125
2.20913	53.5016
2.20819	53.4795
2.20725	53.6053
2.20631	53.5731
2.20537	53.4645
2.20444	53.3699
2.2035	53.3787
2.20256	53.3497
2.20163	53.2917
2.20069	53.3305
2.19976	53.3072
2.19883	53.2155
2.19789	53.0897
2.19696	53.0288
2.19603	53.1371
2.1951	53.0974
2.19417	52.9275
2.19325	53.0117
2.19232	53.0775
2.19139	52.9375
2.19047	52.7999
2.18954	52.9039
2.18862	52.9291
2.18769	52.8336
2.18677	52.8827
2.18585	52.8678
2.18493	52.6818
2.18401	52.5
2.18309	52.4873
2.18217	52.4912
2.18125	52.4865
2.18033	52.5406
2.17942	52.6896
2.1785	52.689
2.17759	52.6468
2.17667	52.5683
2.17576	52.4196
2.17485	52.2822
2.17393	52.24
2.17302	52.3672
2.17211	52.3289
2.1712	52.1528
2.17029	52.0559
2.16939	52.1827
2.16848	52.2957
2.16757	52.1482
2.16667	52.0232
2.16576	52.0405
2.16486	52.0624
2.16395	51.9102
2.16305	51.976
2.16215	52.0769
2.16125	51.9601
2.16035	51.952
2.15945	51.9454
2.15855	51.9994
2.15765	51.9766
2.15675	51.7737
2.15586	51.5585
2.15496	51.5154
2.15406	51.6967
2.15317	51.7778
2.15228	51.5946
2.15138	51.5511
2.15049	51.6137
2.1496	51.6748
2.14871	51.6377
2.14782	51.5834
2.14693	51.7182
2.14604	51.6917
2.14515	51.5633
2.14427	51.4641
2.14338	51.3181
2.14249	51.2587
2.14161	51.4595
2.14072	51.5153
2.13984	51.4821
2.13896	51.3312
2.13808	51.099
2.13719	51.0961
2.13631	51.1084
2.13543	51.0498
2.13455	51.1673
2.13368	51.1775
2.1328	51.1418
2.13192	51.1034
2.13105	50.9706
2.13017	51.0085
2.1293	51.0222
2.12842	50.896
2.12755	50.7874
2.12668	50.7577
2.1258	50.9577
2.12493	50.8853
2.12406	50.8109
2.12319	50.8275
2.12232	50.8397
2.12145	50.7353
2.12059	50.6355
2.11972	50.5899
2.11885	50.5349
2.11799	50.564
2.11712	50.4913
2.11626	50.3475
2.1154	50.2757
2.11453	50.4279
2.11367	50.6217
2.11281	50.5025
2.11195	50.2863
2.11109	50.058
2.11023	50.1474
2.10937	50.3783
2.10851	50.1822
2.10766	50.1003
2.1068	50.2047
2.10594	50.223
2.10509	50.3337
2.10423	50.3238
2.10338	50.1701
2.10253	50.2017
2.10168	50.2087
2.10082	50.0466
2.09997	49.7017
2.09912	49.5329
2.09827	49.5845
2.09742	49.7856
2.09658	49.8755
2.09573	49.6381
2.09488	49.5178
2.09404	49.8674
2.09319	50.0769
2.09235	49.756
2.0915	49.563
2.09066	49.9393
2.08982	49.9387
2.08897	49.6221
2.08813	49.5577
2.08729	49.4038
2.08645	49.2878
2.08561	49.3657
2.08477	49.5219
2.08394	49.3907
2.0831	49.4103
2.08226	49.5518
2.08143	49.4646
2.08059	49.3687
2.07976	49.5004
2.07892	49.5691
2.07809	49.2794
2.07726	49.1357
2.07643	49.2151
2.07559	49.291
2.07476	49.1532
2.07393	49.469
2.0731	49.621
2.07228	49.6805
2.07145	49.3771
2.07062	49.268
2.06979	49.0845
2.06897	48.8
2.06814	49.0466
2.06732	49.0099
2.06649	49.1087
2.06567	49.3162
2.06485	49.2369
2.06403	48.5601
2.0632	48.6828
2.06238	48.9062
2.06156	48.6142
2.06074	48.767
2.05993	48.6639
2.05911	48.6253
2.05829	48.6798
2.05747	48.6478
2.05666	48.7014
2.05584	48.6137
2.05503	48.6127
2.05421	48.7521
2.0534	48.741
2.05259	48.3872
2.05177	48.1437
2.05096	48.1249
2.05015	48.3212
2.04934	48.4462
2.04853	48.3806
2.04772	48.3817
2.04691	48.4365
2.04611	48.143
2.0453	48.1017
2.04449	48.124
2.04369	48.1016
2.04288	48.0048
2.04208	48.0784
2.04127	48.0927
2.04047	47.9945
2.03967	48.0056
2.03886	47.9744
2.03806	47.9386
2.03726	47.8385
2.03646	47.7434
2.03566	47.8
2.03486	47.8552
2.03407	47.5901
2.03327	47.617
2.03247	47.8527
2.03167	47.7252
2.03088	47.8084
2.03008	47.8236
2.02929	47.679
2.0285	47.6364
2.0277	47.5995
2.02691	47.5159
2.02612	47.4707
2.02533	47.5178
2.02453	47.725
2.02374	47.7878
2.02295	47.4864
2.02217	47.1895
2.02138	47.1215
2.02059	47.0982
2.0198	47.0793
2.01902	47.2701
2.01823	47.3361
2.01744	47.2322
2.01666	47.3078
2.01588	47.4617
2.01509	47.3479
2.01431	47.3061
2.01353	47.3334
2.01275	47.2141
2.01196	47.2774
2.01118	47.1872
2.0104	46.9752
2.00963	46.8514
2.00885	46.9251
2.00807	47.0525
2.00729	47.0718
2.00651	46.917
2.00574	46.7144
2.00496	46.7644
2.00419	46.7843
2.00341	46.74
2.00264	46.5716
2.00187	46.5969
2.00109	46.5954
2.00032	46.4204
