Name: Talc Mg_3Si_4O_10(OH)_2
Type: Mineral
Class: Silicates
Subclass: Phyllosilicates
Particle Size: 0-45um
Sample No.: PS-14A
Owner: JPL
Wavelength range: IR
Origin: USA, Georgia, Cherokee County, Holly Springs
Collected by Burminco
Description: 





Measurement: Hemispherical reflectance
First Column: X
Second Column: Y
X Units:  Wavelength (micrometers)
Y Units:  Reflectance (percent)
First X Value: 15.3853
Last X Value: 2.00032
Number of X Values: 2256
Additional information: ps14aa.txt
 
15.3853	6.7554
15.3397	7.11848
15.2945	6.90156
15.2495	6.5971
15.2048	6.4804
15.1603	6.30533
15.1161	5.8403
15.0722	5.75803
15.0285	5.79173
14.9851	6.16365
14.9419	7.20651
14.8989	8.30455
14.8563	8.89076
14.8138	9.16265
14.7716	8.9979
14.7296	8.72784
14.6879	8.28767
14.6464	7.58077
14.6052	6.7917
14.5641	5.8291
14.5233	4.81822
14.4828	3.79273
14.4424	2.813
14.4023	2.17884
14.3624	1.63879
14.3227	1.22194
14.2833	0.906654
14.244	0.453903
14.205	0.14167
14.1662	0.245475
14.1276	0.540295
14.0892	0.786525
14.051	0.798676
14.0131	1.03179
13.9753	1.55925
13.9377	1.97044
13.9004	2.19244
13.8632	2.6408
13.8262	3.15774
13.7895	3.60647
13.7529	4.0375
13.7165	4.64919
13.6803	5.20705
13.6443	5.82573
13.6085	6.31502
13.5729	6.82743
13.5374	7.37722
13.5022	7.73233
13.4671	8.09037
13.4322	8.61896
13.3975	9.05886
13.363	9.49385
13.3286	9.85834
13.2944	10.2316
13.2604	10.651
13.2266	10.7422
13.193	10.8309
13.1595	11.1021
13.1262	11.3047
13.093	11.5496
13.06	11.7535
13.0272	11.6392
12.9946	11.4953
12.9621	11.5409
12.9298	11.519
12.8976	11.1691
12.8656	10.4024
12.8337	9.6174
12.8021	9.42702
12.7705	9.98631
12.7391	10.641
12.7079	10.8741
12.6769	11.1922
12.6459	11.9063
12.6152	12.6652
12.5845	13.3985
12.5541	13.8614
12.5238	14.2056
12.4936	14.5674
12.4635	14.994
12.4337	15.3546
12.4039	15.6485
12.3743	15.9653
12.3448	16.2999
12.3155	16.6413
12.2863	17.0741
12.2573	17.4557
12.2284	17.5725
12.1996	17.6543
12.171	18.0398
12.1425	18.4451
12.1141	18.7846
12.0859	19.0398
12.0578	19.2781
12.0298	19.5917
12.0019	19.6742
11.9742	19.7679
11.9466	20.1221
11.9192	20.2991
11.8918	20.3088
11.8646	20.2917
11.8375	20.04
11.8106	19.7619
11.7837	19.6171
11.757	19.5425
11.7304	19.3773
11.7039	19.2209
11.6776	19.0578
11.6513	18.9297
11.6252	18.7767
11.5992	18.6295
11.5733	18.4568
11.5475	18.2764
11.5219	18.1728
11.4963	18.0412
11.4709	17.946
11.4455	17.8616
11.4203	17.7229
11.3952	17.593
11.3702	17.6242
11.3454	17.6529
11.3206	17.5246
11.2959	17.4066
11.2714	17.3311
11.2469	17.2388
11.2226	17.1142
11.1983	17.0288
11.1742	16.8661
11.1502	16.7681
11.1263	16.685
11.1024	16.474
11.0787	16.313
11.0551	16.1463
11.0316	16.1073
11.0081	16.1395
10.9848	16.1547
10.9616	16.2168
10.9385	16.1267
10.9154	16.0641
10.8925	16.1902
10.8697	16.1792
10.8469	15.9271
10.8243	15.8021
10.8017	15.8851
10.7793	15.9062
10.7569	15.7491
10.7346	15.5066
10.7125	15.298
10.6904	15.017
10.6684	14.7166
10.6465	14.4069
10.6247	14.1122
10.6029	13.8833
10.5813	13.6796
10.5597	13.411
10.5383	13.1141
10.5169	12.8804
10.4956	12.6019
10.4744	12.3799
10.4533	12.2434
10.4323	12.0707
10.4113	11.85
10.3904	11.5886
10.3697	11.5148
10.349	11.4361
10.3284	11.264
10.3078	11.1164
10.2874	10.9458
10.267	10.7852
10.2467	10.7078
10.2265	10.6553
10.2064	10.555
10.1863	10.3805
10.1663	10.173
10.1464	10.1377
10.1266	10.1908
10.1069	10.0345
10.0872	9.87347
10.0676	9.87542
10.0481	9.99871
10.0287	10.1373
10.0093	10.2634
9.99005	10.2955
9.97084	10.5459
9.95169	10.9998
9.93263	11.6174
9.91364	12.313
9.89472	13.2272
9.87587	14.3102
9.8571	15.5272
9.83839	16.8276
9.81976	17.8736
9.80119	18.571
9.78271	19.0843
9.76428	19.4821
9.74592	19.7504
9.72764	19.8214
9.70943	19.9032
9.69128	19.978
9.6732	19.9904
9.65518	19.9715
9.63724	19.883
9.61935	19.7019
9.60155	19.6074
9.5838	19.2879
9.56611	18.9302
9.5485	18.4788
9.53094	17.7489
9.51345	17.1449
9.49604	16.9069
9.47867	17.0026
9.46137	17.5161
9.44414	18.1679
9.42697	18.8716
9.40986	19.483
9.39281	20.0694
9.37583	20.7219
9.35891	21.1519
9.34204	21.3473
9.32524	21.6486
9.3085	22.0754
9.29182	22.3502
9.27519	22.4651
9.25863	22.6136
9.24213	22.7467
9.22568	22.8183
9.2093	22.8429
9.19297	22.9164
9.17669	22.9586
9.16048	22.7451
9.14433	22.7742
9.12823	23.0357
9.11218	23.1395
9.0962	23.0863
9.08027	23.1096
9.06439	23.1146
9.04858	22.9549
9.03281	22.9253
9.0171	23.0065
9.00145	22.7878
8.98585	22.4106
8.9703	22.153
8.9548	21.9337
8.93937	21.6946
8.92398	21.5177
8.90865	21.2953
8.89337	20.9726
8.87814	20.8027
8.86296	20.7398
8.84784	20.5428
8.83277	20.2838
8.81774	20.1115
8.80277	20.0619
8.78786	20.0015
8.77298	19.9036
8.75816	19.7815
8.7434	19.7288
8.72868	19.5486
8.714	19.2416
8.69938	18.8671
8.68481	18.4023
8.67029	18.0413
8.65581	17.6329
8.64139	17.2914
8.62701	16.8035
8.61268	16.2512
8.5984	15.9625
8.58416	15.6784
8.56997	15.2935
8.55583	14.8115
8.54174	14.301
8.52769	13.8289
8.51368	13.2249
8.49973	12.5407
8.48582	11.9148
8.47195	11.3785
8.45813	10.8847
8.44436	10.3989
8.43062	9.90491
8.41693	9.40864
8.4033	8.95663
8.3897	8.47078
8.37614	8.18229
8.36264	7.63863
8.34917	7.0692
8.33574	6.71438
8.32236	6.23113
8.30903	5.91108
8.29573	5.72031
8.28248	5.45356
8.26927	5.14669
8.2561	4.84948
8.24298	4.66374
8.2299	4.60171
8.21685	4.41852
8.20385	4.31574
8.19089	4.33145
8.17797	4.4539
8.16509	4.43383
8.15225	4.27953
8.13946	4.15244
8.1267	4.19728
8.11398	4.19043
8.10131	4.17375
8.08867	4.14666
8.07606	4.14938
8.0635	4.21096
8.05099	4.32995
8.0385	4.46436
8.02606	4.56426
8.01366	4.54552
8.00129	4.57197
7.98896	4.68985
7.97667	4.83854
7.96442	5.00983
7.9522	5.19596
7.94002	5.46664
7.92788	5.78356
7.91578	6.12286
7.90371	6.38388
7.89168	6.50999
7.87969	6.58404
7.86773	6.55604
7.85581	6.54704
7.84392	6.52127
7.83207	6.5329
7.82026	6.58473
7.80849	6.46726
7.79674	6.32818
7.78503	6.34042
7.77337	6.24628
7.76173	6.0482
7.75012	5.94718
7.73856	5.87184
7.72703	5.79962
7.71553	5.76572
7.70406	5.78211
7.69263	5.87057
7.68123	5.90884
7.66987	5.85687
7.65855	5.7959
7.64725	5.92412
7.63598	6.06414
7.62475	6.13674
7.61356	6.25732
7.60239	6.49344
7.59126	6.68411
7.58017	6.98737
7.5691	7.39996
7.55806	7.76798
7.54707	8.05896
7.5361	8.44088
7.52516	8.8458
7.51425	9.13224
7.50338	9.346
7.49253	9.5994
7.48172	9.82903
7.47094	10.0205
7.46019	10.1859
7.44947	10.2557
7.43879	10.2782
7.42813	10.3227
7.4175	10.4154
7.4069	10.4481
7.39634	10.4866
7.3858	10.6195
7.37529	10.7419
7.36482	10.9421
7.35437	11.2029
7.34396	11.4118
7.33357	11.6064
7.32321	11.8439
7.31288	12.0672
7.30258	12.29
7.29231	12.4831
7.28207	12.6275
7.27185	12.6922
7.26167	12.8124
7.25152	12.8754
7.24139	12.7742
7.23129	12.6547
7.22122	12.5876
7.21117	12.6202
7.20116	12.6698
7.19117	12.605
7.18121	12.6918
7.17128	12.9327
7.16137	13.1828
7.1515	13.4489
7.14164	13.6891
7.13182	13.8707
7.12203	14.1658
7.11225	14.4576
7.10251	14.6841
7.0928	14.8664
7.08311	15.0416
7.07344	15.2071
7.06381	15.4597
7.0542	15.7862
7.04461	16.1303
7.03506	16.486
7.02552	16.8897
7.01601	17.2012
7.00653	17.4808
6.99708	17.7735
6.98765	18.0863
6.97824	18.4736
6.96886	18.9043
6.95951	19.2926
6.95018	19.5662
6.94087	20.0295
6.9316	20.6776
6.92234	21.261
6.91311	21.689
6.90391	22.0116
6.89473	22.2346
6.88557	22.5101
6.87644	22.7953
6.86733	23.1455
6.85824	23.3005
6.84918	23.2917
6.84015	23.5947
6.83114	24.1544
6.82215	24.7702
6.81319	25.3608
6.80424	26.1029
6.79532	27.0312
6.78643	27.7935
6.77756	28.2561
6.76871	28.7861
6.75989	29.3072
6.75109	29.8963
6.74231	30.5266
6.73355	31.2309
6.72482	31.905
6.71611	32.4542
6.70742	32.8386
6.69875	33.082
6.69011	33.4457
6.68149	33.7968
6.67289	33.8851
6.66431	33.8785
6.65576	33.8041
6.64722	33.9236
6.63871	34.0287
6.63022	33.6058
6.62175	33.1533
6.61331	32.8646
6.60488	32.544
6.59648	32.2883
6.5881	32.0092
6.57974	31.8113
6.5714	31.7447
6.56308	31.6426
6.55478	31.7166
6.54651	31.8276
6.53825	31.8686
6.53001	32.0602
6.5218	32.4237
6.51361	32.6947
6.50544	33.1996
6.49729	34.1747
6.48915	34.74
6.48104	34.9563
6.47295	35.2021
6.46488	35.3885
6.45683	35.5431
6.4488	35.6197
6.44079	35.6702
6.4328	35.7663
6.42482	35.9635
6.41687	36.425
6.40894	36.4489
6.40103	36.0202
6.39314	35.986
6.38526	36.166
6.37741	36.335
6.36957	36.4628
6.36176	36.3416
6.35396	36.3308
6.34618	36.5576
6.33843	36.3162
6.33069	35.9141
6.32297	35.8004
6.31527	35.8554
6.30758	36.0299
6.29992	36.1851
6.29227	36.3824
6.28465	36.6318
6.27704	36.717
6.26945	36.7446
6.26188	36.6552
6.25432	36.3629
6.24679	36.059
6.23927	35.7249
6.23177	35.2418
6.22429	34.7269
6.21683	34.1823
6.20938	33.7329
6.20195	33.3277
6.19454	32.9752
6.18715	32.7522
6.17978	32.1402
6.17242	31.392
6.16508	30.8819
6.15776	30.4318
6.15045	29.7247
6.14317	28.7439
6.1359	27.5735
6.12864	26.2264
6.12141	24.8402
6.11419	23.3319
6.10699	21.5856
6.0998	20.1951
6.09263	19.2259
6.08549	18.5312
6.07835	18.2766
6.07123	18.2219
6.06413	18.118
6.05705	18.1912
6.04998	18.4252
6.04293	18.1865
6.0359	17.7673
6.02888	17.4202
6.02187	17.0552
6.01489	16.6159
6.00792	16.0419
6.00096	15.5427
5.99403	15.0861
5.98711	14.8608
5.9802	14.8547
5.97331	15.1975
5.96644	15.8133
5.95958	16.6685
5.95274	17.9668
5.94591	19.439
5.9391	21.1952
5.9323	22.7064
5.92552	23.6357
5.91876	24.4845
5.91201	24.942
5.90528	24.9827
5.89856	24.7706
5.89186	23.9485
5.88517	23.0789
5.8785	21.9983
5.87184	20.7429
5.8652	19.9082
5.85857	19.4007
5.85196	19.2579
5.84536	19.5711
5.83878	20.2784
5.83221	21.349
5.82566	22.6216
5.81912	23.8576
5.81259	24.7612
5.80608	25.5516
5.79959	26.238
5.79311	26.7322
5.78665	27.1275
5.78019	27.4232
5.77376	27.7009
5.76734	28.1217
5.76093	28.0619
5.75453	27.8366
5.74815	27.7849
5.74179	27.6193
5.73543	27.34
5.7291	26.9633
5.72277	26.614
5.71646	26.2528
5.71017	25.8506
5.70389	25.3218
5.69762	24.7534
5.69136	24.2458
5.68513	23.88
5.6789	23.7017
5.67268	23.6536
5.66648	23.6883
5.6603	23.9845
5.65413	24.3518
5.64797	24.7568
5.64182	25.2623
5.63569	25.5213
5.62957	25.5675
5.62347	25.5207
5.61737	25.4462
5.61129	25.2094
5.60522	24.8246
5.59917	24.3024
5.59313	23.6899
5.5871	23.1713
5.58109	22.6832
5.57509	22.0956
5.5691	21.4756
5.56312	21.0962
5.55716	20.824
5.55121	20.5063
5.54528	20.2373
5.53935	20.1452
5.53344	20.0774
5.52754	20.0053
5.52166	19.8853
5.51578	19.7299
5.50992	19.5832
5.50407	19.4574
5.49823	19.3395
5.49241	19.2905
5.4866	19.3555
5.4808	19.5682
5.47501	19.9144
5.46923	20.4664
5.46347	21.1862
5.45772	21.9821
5.45198	22.9847
5.44625	24.057
5.44054	25.0697
5.43484	25.9016
5.42914	26.6398
5.42347	27.2561
5.4178	27.4623
5.41214	27.3355
5.4065	27.1062
5.40087	26.8521
5.39525	26.512
5.38964	26.147
5.38404	25.886
5.37846	25.7012
5.37288	25.6221
5.36732	25.5731
5.36177	25.5475
5.35623	25.6277
5.35071	25.8397
5.34519	26.0738
5.33968	26.3831
5.33419	26.8007
5.32871	27.3944
5.32324	28.0477
5.31778	28.6691
5.31233	29.2574
5.30689	29.6829
5.30147	29.9388
5.29605	30.1782
5.29065	30.2082
5.28525	30.1476
5.27987	30.1094
5.2745	29.9746
5.26914	29.7047
5.26379	29.4252
5.25845	29.0248
5.25312	28.6423
5.24781	28.2137
5.2425	27.6259
5.23721	27.0724
5.23192	26.5029
5.22665	25.9584
5.22138	25.5306
5.21613	25.3482
5.21089	25.3929
5.20566	25.5782
5.20044	25.9788
5.19522	26.6401
5.19002	27.4392
5.18483	28.1932
5.17965	28.898
5.17448	29.5415
5.16933	30.0067
5.16418	30.4285
5.15904	30.7656
5.15391	30.9711
5.14879	31.068
5.14368	31.0678
5.13859	31.1655
5.1335	31.4201
5.12842	31.7595
5.12335	32.3566
5.1183	33.1901
5.11325	34.2578
5.10821	35.6623
5.10318	37.3563
5.09817	39.2597
5.09316	41.3392
5.08816	43.3849
5.08317	45.3342
5.07819	47.0642
5.07322	48.6134
5.06826	49.9257
5.06331	51.1001
5.05837	52.2216
5.05344	53.1615
5.04852	53.833
5.04361	54.4284
5.03871	54.9175
5.03382	55.2367
5.02894	55.4164
5.02406	55.5287
5.0192	55.6468
5.01435	55.6751
5.0095	55.6653
5.00467	55.7129
4.99984	55.7327
4.99502	55.7432
4.99021	55.7866
4.98542	55.842
4.98063	55.9141
4.97585	55.8984
4.97108	55.7509
4.96632	55.5792
4.96156	55.2622
4.95682	54.8606
4.95209	54.3173
4.94736	53.7758
4.94264	53.4787
4.93794	53.6422
4.93324	54.1633
4.92855	54.8892
4.92387	55.575
4.9192	56.2931
4.91453	57.0354
4.90988	57.7016
4.90524	58.3797
4.9006	59.0754
4.89597	59.6879
4.89135	60.2932
4.88674	60.9249
4.88214	61.4698
4.87755	61.8779
4.87296	62.2863
4.86839	62.6461
4.86382	62.9139
4.85926	63.0429
4.85471	63.1492
4.85017	63.2032
4.84564	63.1547
4.84111	63.1773
4.8366	63.3004
4.83209	63.3646
4.82759	63.4851
4.8231	63.6398
4.81862	63.8529
4.81415	63.999
4.80968	64.1659
4.80522	64.3349
4.80077	64.5306
4.79633	64.7795
4.7919	64.9848
4.78747	65.1504
4.78306	65.4123
4.77865	65.7795
4.77425	66.2673
4.76986	66.8335
4.76547	67.4215
4.7611	67.9818
4.75673	68.5009
4.75237	68.9091
4.74802	69.0884
4.74367	69.0306
4.73934	68.8538
4.73501	68.5529
4.73069	68.2146
4.72638	67.8573
4.72207	67.4038
4.71777	67.0206
4.71348	66.7758
4.7092	66.5656
4.70493	66.5483
4.70066	66.6292
4.69641	66.857
4.69216	67.1735
4.68791	67.4535
4.68368	67.7035
4.67945	67.9274
4.67523	68.0366
4.67102	67.9796
4.66682	67.9506
4.66262	67.8704
4.65843	67.6983
4.65425	67.6148
4.65007	67.6952
4.64591	67.9693
4.64175	68.4379
4.6376	69.1015
4.63345	69.914
4.62932	70.8402
4.62519	71.7936
4.62106	72.703
4.61695	73.5784
4.61284	74.3763
4.60874	75.1208
4.60465	75.8362
4.60056	76.428
4.59648	76.8702
4.59241	77.2207
4.58835	77.5813
4.58429	77.8563
4.58024	78.073
4.5762	78.2823
4.57216	78.4834
4.56814	78.619
4.56411	78.763
4.5601	78.9033
4.55609	79.0016
4.55209	79.1166
4.5481	79.2732
4.54411	79.4146
4.54013	79.4563
4.53616	79.4327
4.5322	79.485
4.52824	79.5576
4.52429	79.5583
4.52034	79.499
4.51641	79.4802
4.51247	79.408
4.50855	79.3438
4.50463	79.261
4.50072	79.2846
4.49682	79.341
4.49292	79.3875
4.48903	79.3741
4.48515	79.3746
4.48127	79.3981
4.4774	79.4705
4.47354	79.5137
4.46968	79.5015
4.46584	79.4355
4.46199	79.3684
4.45815	79.3569
4.45432	79.471
4.4505	79.6156
4.44668	79.819
4.44287	80.0819
4.43907	80.4114
4.43527	80.7305
4.43148	81.0061
4.4277	81.2704
4.42392	81.5386
4.42015	81.7899
4.41638	81.9092
4.41262	81.9458
4.40887	82.0753
4.40513	82.23
4.40139	82.432
4.39765	82.6546
4.39393	82.8875
4.39021	83.0293
4.38649	83.2041
4.38278	83.3152
4.37908	83.3978
4.37539	83.5408
4.3717	83.6351
4.36801	83.6716
4.36434	83.6655
4.36067	83.6452
4.357	83.7144
4.35335	83.7802
4.34969	83.7259
4.34605	83.6273
4.34241	83.6583
4.33877	83.717
4.33514	83.7839
4.33152	83.8526
4.32791	83.8165
4.3243	83.7787
4.32069	83.7919
4.3171	83.8075
4.31351	83.8678
4.30992	83.8439
4.30634	83.7599
4.30277	83.724
4.2992	83.7163
4.29564	83.7465
4.29208	83.8152
4.28853	83.8513
4.28499	83.8776
4.28145	83.9135
4.27792	83.925
4.27439	83.9532
4.27087	83.9917
4.26735	84.0848
4.26384	84.1075
4.26034	84.118
4.25684	84.2099
4.25335	84.2674
4.24986	84.2401
4.24638	84.2301
4.24291	84.2151
4.23944	84.195
4.23598	84.1824
4.23252	84.1337
4.22906	84.1225
4.22562	84.1564
4.22218	84.139
4.21874	84.1367
4.21531	84.2002
4.21189	84.2414
4.20847	84.2962
4.20506	84.37
4.20165	84.3796
4.19825	84.3081
4.19485	84.2632
4.19146	84.251
4.18807	84.2078
4.18469	84.1951
4.18132	84.2892
4.17795	84.2947
4.17458	84.1773
4.17123	84.1776
4.16787	84.2329
4.16453	84.2563
4.16118	84.2437
4.15785	84.2353
4.15451	84.2366
4.15119	84.2421
4.14787	84.2689
4.14455	84.3093
4.14124	84.3167
4.13794	84.3147
4.13464	84.3494
4.13134	84.3324
4.12805	84.2319
4.12477	84.2066
4.12149	84.2057
4.11822	84.2369
4.11495	84.2782
4.11168	84.3409
4.10843	84.3514
4.10517	84.2646
4.10192	84.213
4.09868	84.2142
4.09545	84.251
4.09221	84.1171
4.08899	84.0376
4.08576	84.0068
4.08255	83.9833
4.07933	83.9465
4.07613	83.9202
4.07292	83.9933
4.06973	84.0824
4.06654	84.0219
4.06335	83.9774
4.06017	84.0184
4.05699	84.0369
4.05382	84.0076
4.05065	84.0359
4.04749	84.0872
4.04433	84.0815
4.04118	83.9979
4.03803	84.0734
4.03489	84.1984
4.03175	84.2321
4.02862	84.2157
4.02549	84.2917
4.02237	84.4071
4.01925	84.489
4.01614	84.57
4.01303	84.6598
4.00993	84.6934
4.00683	84.7572
4.00373	84.7897
4.00064	84.781
3.99756	84.7401
3.99448	84.7909
3.9914	84.8699
3.98833	84.8824
3.98527	84.9071
3.98221	84.8332
3.97915	84.7708
3.9761	84.8436
3.97305	84.8964
3.97001	84.8683
3.96697	84.8467
3.96394	84.8529
3.96091	84.8527
3.95789	84.8368
3.95487	84.8419
3.95186	84.8545
3.94885	84.8214
3.94584	84.7566
3.94284	84.6862
3.93984	84.7316
3.93685	84.8122
3.93386	84.7916
3.93088	84.7305
3.9279	84.7277
3.92493	84.6953
3.92196	84.6738
3.919	84.6668
3.91604	84.6194
3.91308	84.6254
3.91013	84.6344
3.90718	84.6182
3.90424	84.6732
3.9013	84.7071
3.89837	84.6821
3.89544	84.6212
3.89252	84.6158
3.8896	84.7129
3.88668	84.8431
3.88377	84.8999
3.88086	84.879
3.87796	84.8538
3.87506	84.8667
3.87217	84.9152
3.86928	84.9144
3.86639	84.9676
3.86351	85.0462
3.86064	85.1471
3.85776	85.1666
3.8549	85.0792
3.85203	85.0557
3.84917	85.0449
3.84631	85.0775
3.84346	85.2095
3.84062	85.1865
3.83777	85.0832
3.83494	85.1706
3.8321	85.2328
3.82927	85.2087
3.82644	85.2038
3.82362	85.1904
3.82081	85.2285
3.81799	85.3365
3.81518	85.4104
3.81238	85.3709
3.80958	85.3267
3.80678	85.3723
3.80399	85.4346
3.8012	85.4913
3.79841	85.5641
3.79563	85.5634
3.79286	85.55
3.79008	85.6298
3.78731	85.7542
3.78455	85.785
3.78179	85.7497
3.77903	85.7865
3.77628	85.828
3.77353	85.8314
3.77079	85.8794
3.76805	85.9375
3.76531	85.9056
3.76258	85.9052
3.75985	85.9605
3.75713	86.0213
3.7544	86.0278
3.75169	85.9769
3.74898	85.9632
3.74627	85.9632
3.74356	85.9129
3.74086	85.9603
3.73816	85.9554
3.73547	86.0008
3.73278	85.9925
3.7301	85.9239
3.72741	85.9031
3.72474	85.9116
3.72206	85.9056
3.71939	85.9805
3.71673	85.9772
3.71406	85.9652
3.71141	85.9955
3.70875	85.9787
3.7061	85.8061
3.70345	85.6358
3.70081	85.6552
3.69817	85.7592
3.69553	85.6808
3.6929	85.356
3.69027	84.0644
3.68765	84.0179
3.68503	85.2471
3.68241	85.52
3.6798	85.5234
3.67719	85.5069
3.67458	85.513
3.67198	85.4395
3.66938	85.4686
3.66678	85.4307
3.66419	85.3264
3.66161	85.3013
3.65902	85.3451
3.65644	85.3236
3.65387	85.3062
3.65129	85.3109
3.64872	85.2951
3.64616	85.1634
3.64359	85.0975
3.64103	85.1177
3.63848	85.1376
3.63593	85.0937
3.63338	85.1284
3.63084	85.0916
3.6283	85.0499
3.62576	85.0745
3.62322	85.1584
3.62069	85.2003
3.61817	85.2006
3.61564	85.216
3.61312	85.1577
3.61061	85.0947
3.6081	85.0638
3.60559	85.1419
3.60308	85.2309
3.60058	85.1955
3.59808	85.1077
3.59558	85.0257
3.59309	84.9768
3.59061	84.9807
3.58812	84.9881
3.58564	85.0453
3.58316	85.0697
3.58069	85.0216
3.57822	84.9994
3.57575	84.9169
3.57328	84.8398
3.57082	84.8197
3.56836	84.798
3.56591	84.7049
3.56346	84.6647
3.56101	84.6126
3.55857	84.549
3.55613	84.4511
3.55369	84.4106
3.55126	84.3667
3.54883	84.2955
3.5464	84.2101
3.54397	84.0784
3.54155	83.8968
3.53914	83.7643
3.53672	83.6394
3.53431	83.5008
3.5319	83.3425
3.5295	83.0786
3.5271	82.7656
3.5247	82.4256
3.52231	81.9936
3.51991	81.4512
3.51753	80.8281
3.51514	80.0874
3.51276	79.2033
3.51038	78.2559
3.50801	77.3628
3.50563	76.6461
3.50327	76.402
3.5009	76.4449
3.49854	76.5819
3.49618	76.8254
3.49382	77.1731
3.49147	77.4098
3.48912	77.5099
3.48677	77.5609
3.48443	77.4958
3.48209	77.5125
3.47975	77.7124
3.47742	77.8639
3.47509	78.1105
3.47276	78.459
3.47044	78.7342
3.46812	78.821
3.4658	78.8567
3.46348	78.8634
3.46117	78.7646
3.45886	78.5265
3.45656	78.2443
3.45425	78.0091
3.45195	77.7276
3.44966	77.372
3.44736	76.9951
3.44507	76.6245
3.44279	76.3252
3.4405	75.9568
3.43822	75.4691
3.43594	74.8599
3.43367	74.2894
3.43139	73.6382
3.42912	72.7633
3.42686	71.8768
3.42459	71.0505
3.42233	70.42
3.42007	70.0377
3.41782	69.8103
3.41557	69.8336
3.41332	70.0705
3.41108	70.3843
3.40883	70.8657
3.40659	71.3895
3.40435	71.8177
3.40212	72.24
3.39989	72.6579
3.39766	72.9083
3.39544	73.0778
3.39322	73.0911
3.391	72.8771
3.38878	72.4958
3.38657	72.0873
3.38436	71.6249
3.38215	71.173
3.37994	70.8935
3.37774	70.6725
3.37554	70.4926
3.37335	70.3526
3.37115	70.2119
3.36896	70.0488
3.36678	69.8952
3.36459	69.5328
3.36241	68.848
3.36023	67.9089
3.35805	67.0918
3.35588	66.7253
3.35371	67.145
3.35154	68.1067
3.34938	69.3696
3.34721	70.9018
3.34505	72.4386
3.3429	73.7075
3.34074	74.5695
3.33859	74.9991
3.33644	75.0744
3.3343	74.8552
3.33215	74.3509
3.33001	73.5363
3.32788	72.4149
3.32574	71.2072
3.32361	70.044
3.32148	68.9479
3.31936	67.9002
3.31723	66.9541
3.31511	66.1559
3.31299	65.6616
3.31088	65.5182
3.30876	65.8388
3.30665	66.6768
3.30455	67.8843
3.30244	69.3894
3.30034	71.168
3.29824	73.0292
3.29614	74.5192
3.29405	75.5114
3.29196	76.1386
3.28987	76.4507
3.28778	76.5871
3.2857	76.6874
3.28362	76.6681
3.28154	76.6569
3.27946	76.8415
3.27739	77.1393
3.27532	77.6848
3.27325	78.2853
3.27119	78.674
3.26913	78.9253
3.26707	79.0582
3.26501	79.1493
3.26295	79.3066
3.2609	79.338
3.25885	79.2938
3.2568	79.3235
3.25476	79.313
3.25272	79.2651
3.25068	79.1964
3.24864	79.1377
3.24661	79.1216
3.24458	79.0238
3.24255	78.9288
3.24052	78.9203
3.2385	78.8454
3.23648	78.7294
3.23446	78.6062
3.23244	78.5272
3.23043	78.4937
3.22841	78.3053
3.2264	78.1565
3.2244	78.0091
3.22239	77.8932
3.22039	77.9048
3.21839	77.7545
3.2164	77.5355
3.2144	77.4788
3.21241	77.4873
3.21042	77.4495
3.20844	77.3721
3.20645	77.175
3.20447	76.9922
3.20249	76.8096
3.20051	76.6348
3.19854	76.4606
3.19657	76.2212
3.1946	75.9405
3.19263	75.8322
3.19067	75.6803
3.1887	75.2302
3.18674	74.801
3.18479	74.6278
3.18283	74.5961
3.18088	74.5717
3.17893	74.3908
3.17698	74.1518
3.17504	73.9082
3.17309	73.6456
3.17115	73.348
3.16921	73.1544
3.16728	73.0925
3.16534	73.0432
3.16341	72.9476
3.16148	72.7492
3.15956	72.4811
3.15763	72.0302
3.15571	71.8955
3.15379	72.2683
3.15187	72.7406
3.14996	72.924
3.14805	72.7995
3.14614	72.7187
3.14423	72.9704
3.14232	73.4484
3.14042	73.8317
3.13852	74.0788
3.13662	74.2714
3.13472	74.4292
3.13283	74.6102
3.13094	74.6223
3.12905	74.5576
3.12716	74.6038
3.12528	74.6195
3.12339	74.5044
3.12151	74.39
3.11964	74.2658
3.11776	74.1626
3.11589	74.0672
3.11401	73.9379
3.11214	73.8301
3.11028	73.772
3.10841	73.5825
3.10655	73.3989
3.10469	73.2707
3.10283	73.0975
3.10098	72.8558
3.09912	72.5518
3.09727	72.3042
3.09542	72.1982
3.09358	72.195
3.09173	72.3907
3.08989	72.5697
3.08805	72.5621
3.08621	72.4211
3.08437	72.21
3.08254	71.9954
3.08071	71.892
3.07888	71.7917
3.07705	71.7223
3.07523	71.6786
3.0734	71.7153
3.07158	71.823
3.06977	71.9267
3.06795	71.8366
3.06613	71.6124
3.06432	71.3417
3.06251	71.3067
3.0607	71.3672
3.0589	71.2985
3.0571	71.2228
3.05529	71.1484
3.05349	71.1005
3.0517	71.0071
3.0499	70.8105
3.04811	70.7592
3.04632	70.8246
3.04453	70.8267
3.04274	70.7105
3.04096	70.447
3.03918	70.2311
3.0374	70.0922
3.03562	69.9944
3.03384	69.9685
3.03207	69.8878
3.03029	69.8669
3.02852	69.9895
3.02676	70.1674
3.02499	70.4185
3.02323	70.5421
3.02146	70.5515
3.0197	70.5159
3.01795	70.4433
3.01619	70.3879
3.01444	70.357
3.01269	70.3466
3.01094	70.2415
3.00919	70.0625
3.00744	69.8644
3.0057	69.7022
3.00396	69.5887
3.00222	69.4322
3.00048	69.2104
2.99875	69.0333
2.99701	68.9245
2.99528	68.8781
2.99355	68.874
2.99183	68.7713
2.9901	68.7256
2.98838	68.6471
2.98666	68.5921
2.98494	68.5364
2.98322	68.5463
2.9815	68.7051
2.97979	68.8181
2.97808	68.8718
2.97637	68.7647
2.97466	68.6749
2.97295	68.6562
2.97125	68.5301
2.96955	68.3756
2.96785	68.392
2.96615	68.2991
2.96446	68.1846
2.96276	68.1583
2.96107	68.1275
2.95938	68.0175
2.95769	67.8956
2.95601	67.8378
2.95432	67.8255
2.95264	67.857
2.95096	67.9345
2.94928	67.8603
2.9476	67.7326
2.94593	67.6427
2.94425	67.6079
2.94258	67.6284
2.94092	67.6887
2.93925	67.7063
2.93758	67.6806
2.93592	67.7017
2.93426	67.7476
2.9326	67.7269
2.93094	67.5902
2.92928	67.53
2.92763	67.571
2.92598	67.6139
2.92433	67.7669
2.92268	67.8143
2.92103	67.7868
2.91939	67.7318
2.91775	67.5608
2.9161	67.493
2.91447	67.5579
2.91283	67.399
2.91119	67.0997
2.90956	67.1027
2.90793	67.2028
2.9063	67.3174
2.90467	67.3316
2.90304	67.3197
2.90142	67.3097
2.89979	67.2325
2.89817	67.1809
2.89656	67.0965
2.89494	66.9556
2.89332	66.8986
2.89171	66.8838
2.8901	66.9615
2.88849	67.0736
2.88688	67.0582
2.88527	66.9486
2.88367	66.774
2.88206	66.6537
2.88046	66.784
2.87886	66.9737
2.87727	67.1282
2.87567	67.1869
2.87408	67.2376
2.87248	67.3487
2.87089	67.4904
2.8693	67.5674
2.86772	67.4734
2.86613	67.5283
2.86455	67.6464
2.86297	67.6186
2.86139	67.5749
2.85981	67.5393
2.85823	67.5292
2.85666	67.5257
2.85508	67.5578
2.85351	67.5904
2.85194	67.4559
2.85038	67.3029
2.84881	67.3823
2.84724	67.6411
2.84568	67.9336
2.84412	67.9847
2.84256	68.044
2.841	68.1605
2.83945	68.1705
2.83789	68.1928
2.83634	68.1993
2.83479	68.2061
2.83324	68.2592
2.83169	68.1624
2.83015	67.9417
2.82861	68.017
2.82706	68.0512
2.82552	67.8664
2.82398	67.8826
2.82245	67.9146
2.82091	67.8934
2.81938	67.8587
2.81784	67.6319
2.81631	67.3559
2.81479	67.166
2.81326	66.915
2.81173	66.5825
2.81021	66.2065
2.80869	65.9438
2.80716	65.8222
2.80565	65.8245
2.80413	65.9612
2.80261	65.9847
2.8011	65.7141
2.79959	65.302
2.79808	64.9518
2.79657	64.5513
2.79506	64.0456
2.79355	63.6513
2.79205	63.3987
2.79055	63.3465
2.78904	63.4567
2.78754	63.8948
2.78605	64.3466
2.78455	64.6691
2.78306	64.935
2.78156	64.9072
2.78007	64.9694
2.77858	65.3688
2.77709	65.6766
2.77561	65.8955
2.77412	66.1526
2.77264	66.4417
2.77116	66.6219
2.76968	66.7046
2.7682	66.7134
2.76672	66.7349
2.76524	66.8936
2.76377	67.0554
2.7623	66.8174
2.76083	66.5762
2.75936	66.6625
2.75789	66.7641
2.75642	67.088
2.75496	67.0324
2.7535	66.1882
2.75203	65.7586
2.75057	65.5676
2.74912	65.3846
2.74766	64.558
2.7462	60.0385
2.74475	54.9289
2.7433	58.2261
2.74185	62.2437
2.7404	62.317
2.73895	60.6735
2.7375	58.1435
2.73606	54.7513
2.73462	47.251
2.73318	33.0165
2.73174	22.2525
2.7303	28.1966
2.72886	39.488
2.72742	43.9634
2.72599	41.3748
2.72456	35.1276
2.72313	26.2908
2.7217	17.0824
2.72027	10.0437
2.71884	11.512
2.71742	22.0828
2.71599	34.1802
2.71457	43.6985
2.71315	50.8284
2.71173	56.4195
2.71032	61.0606
2.7089	64.6876
2.70748	67.1802
2.70607	69.0915
2.70466	70.832
2.70325	72.3881
2.70184	73.7751
2.70043	74.8652
2.69903	75.6869
2.69762	76.4418
2.69622	77.254
2.69482	78.1574
2.69342	78.8074
2.69202	78.9117
2.69062	79.3164
2.68923	80.1915
2.68783	80.9436
2.68644	81.5827
2.68505	82.1028
2.68366	82.6437
2.68227	83.0104
2.68089	83.4751
2.6795	84.0705
2.67812	84.4846
2.67673	85.0769
2.67535	85.414
2.67397	85.6017
2.6726	86.0673
2.67122	87.0203
2.66984	87.3334
2.66847	86.9638
2.6671	87.3108
2.66572	87.5064
2.66435	87.2842
2.66299	86.8221
2.66162	86.7139
2.66025	86.6282
2.65889	86.4727
2.65753	86.3334
2.65616	86.332
2.65481	86.2009
2.65345	86.1955
2.65209	86.2045
2.65073	86.0029
2.64938	85.7802
2.64803	85.5905
2.64667	85.6257
2.64532	85.5899
2.64397	85.3152
2.64263	85.2588
2.64128	85.2563
2.63994	85.369
2.63859	85.4659
2.63725	85.5243
2.63591	85.6128
2.63457	85.6897
2.63323	85.5783
2.6319	85.6814
2.63056	86.0269
2.62923	85.7692
2.62789	85.5854
2.62656	85.5928
2.62523	85.1719
2.6239	85.023
2.62258	84.9473
2.62125	85.143
2.61993	85.0818
2.6186	84.7333
2.61728	84.9437
2.61596	85.0851
2.61464	84.9842
2.61332	84.9807
2.61201	84.987
2.61069	84.9927
2.60938	84.9091
2.60807	84.8758
2.60675	84.8113
2.60544	84.3361
2.60414	83.5953
2.60283	83.3638
2.60152	83.3867
2.60022	83.2879
2.59891	82.9027
2.59761	82.7699
2.59631	83.2827
2.59501	84.1273
2.59371	83.7823
2.59242	83.0015
2.59112	82.7151
2.58983	82.5394
2.58853	82.395
2.58724	82.3368
2.58595	81.9132
2.58466	81.6883
2.58338	81.4355
2.58209	81.0201
2.5808	80.8553
2.57952	80.41
2.57824	79.9268
2.57695	79.5591
2.57567	79.728
2.5744	80.6789
2.57312	81.3981
2.57184	81.1212
2.57057	80.7788
2.56929	80.4899
2.56802	80.3207
2.56675	80.3763
2.56548	80.6621
2.56421	81.1078
2.56294	81.5248
2.56168	81.5938
2.56041	81.2535
2.55915	80.8197
2.55789	80.6127
2.55662	80.4603
2.55536	80.2419
2.5541	80.2983
2.55285	80.6553
2.55159	81.08
2.55034	81.5326
2.54908	81.8277
2.54783	82.1356
2.54658	82.3344
2.54533	82.3199
2.54408	82.1048
2.54283	81.8386
2.54159	81.4391
2.54034	80.8184
2.5391	80.407
2.53785	80.4736
2.53661	80.6513
2.53537	80.6174
2.53413	80.4568
2.53289	80.2049
2.53166	79.8791
2.53042	79.4356
2.52919	79.1182
2.52795	79.1594
2.52672	79.6153
2.52549	79.9832
2.52426	80.224
2.52303	80.197
2.52181	79.9442
2.52058	79.7791
2.51936	79.5416
2.51813	79.1751
2.51691	78.9665
2.51569	78.943
2.51447	79.018
2.51325	79.177
2.51203	79.6939
2.51082	80.3494
2.5096	80.7745
2.50839	80.9909
2.50717	81.1617
2.50596	81.3003
2.50475	81.1678
2.50354	80.644
2.50233	79.8385
2.50113	79.0693
2.49992	78.7162
2.49872	78.824
2.49751	78.9233
2.49631	78.8158
2.49511	78.9047
2.49391	79.2798
2.49271	79.8295
2.49151	80.5271
2.49031	80.9983
2.48912	81.2125
2.48792	81.4716
2.48673	81.6472
2.48554	81.576
2.48435	81.481
2.48316	81.5821
2.48197	81.9522
2.48078	82.2046
2.4796	82.0058
2.47841	81.4582
2.47723	80.6299
2.47604	79.7661
2.47486	79.0104
2.47368	78.1504
2.4725	77.2528
2.47132	76.4325
2.47014	75.4272
2.46897	74.32
2.46779	73.6383
2.46662	73.5236
2.46545	73.6483
2.46427	73.6907
2.4631	73.7116
2.46193	74.0729
2.46077	74.9792
2.4596	76.1464
2.45843	76.8724
2.45727	76.9568
2.4561	76.8091
2.45494	76.8375
2.45378	77.2314
2.45262	77.7781
2.45146	78.0253
2.4503	78.0706
2.44914	78.1592
2.44799	78.2845
2.44683	78.453
2.44568	78.778
2.44452	79.2007
2.44337	79.3045
2.44222	79.0682
2.44107	78.5955
2.43992	78.264
2.43877	78.2946
2.43763	78.3387
2.43648	78.1001
2.43534	77.8221
2.43419	77.9853
2.43305	78.6953
2.43191	79.4123
2.43077	79.7246
2.42963	79.2633
2.42849	78.1179
2.42736	77.0234
2.42622	76.6127
2.42509	77.1982
2.42395	78.5545
2.42282	79.7764
2.42169	80.3694
2.42056	80.9337
2.41943	81.4997
2.4183	81.9553
2.41717	82.2171
2.41605	82.4162
2.41492	82.3741
2.4138	82.2038
2.41267	82.2969
2.41155	82.5019
2.41043	82.5505
2.40931	82.394
2.40819	82.0984
2.40707	81.6196
2.40595	80.9895
2.40484	80.4011
2.40372	79.5304
2.40261	78.3183
2.4015	76.8472
2.40039	75.1058
2.39928	73.0414
2.39817	70.9424
2.39706	69.3681
2.39595	68.5677
2.39484	68.1997
2.39374	67.3469
2.39263	65.8063
2.39153	64.9149
2.39043	65.4776
2.38932	66.7365
2.38822	67.5797
2.38712	67.8658
2.38603	67.8666
2.38493	67.8841
2.38383	68.1696
2.38274	68.6255
2.38164	69.137
2.38055	69.6615
2.37946	70.3948
2.37836	71.2007
2.37727	71.634
2.37618	71.8036
2.3751	72.2263
2.37401	73.1728
2.37292	74.5259
2.37184	75.8968
2.37075	76.8571
2.36967	77.6346
2.36859	78.2799
2.3675	78.8414
2.36642	79.4556
2.36534	80.1084
2.36427	80.6314
2.36319	81.0869
2.36211	81.3728
2.36104	81.4951
2.35996	81.471
2.35889	81.1904
2.35781	80.9113
2.35674	80.8435
2.35567	80.8298
2.3546	80.9221
2.35353	81.3332
2.35247	81.8537
2.3514	82.3592
2.35033	82.9717
2.34927	83.4781
2.3482	83.7595
2.34714	84.0097
2.34608	84.3661
2.34502	84.4796
2.34396	84.4907
2.3429	84.6189
2.34184	84.6256
2.34078	84.5254
2.33973	84.3026
2.33867	84.0094
2.33762	83.5936
2.33656	82.9408
2.33551	82.1947
2.33446	81.3982
2.33341	80.4386
2.33236	79.471
2.33131	78.356
2.33026	76.9132
2.32922	74.9795
2.32817	72.5573
2.32712	69.8175
2.32608	67.1842
2.32504	65.1139
2.324	63.7963
2.32295	63.1904
2.32191	62.8361
2.32087	62.3679
2.31984	61.4601
2.3188	59.6719
2.31776	56.6536
2.31673	52.7047
2.31569	48.8861
2.31466	46.2238
2.31362	44.8401
2.31259	44.7276
2.31156	45.4534
2.31053	46.7428
2.3095	48.283
2.30847	49.9323
2.30745	51.9478
2.30642	54.1183
2.3054	56.3625
2.30437	58.6653
2.30335	60.5252
2.30232	62.2245
2.3013	63.8897
2.30028	65.2271
2.29926	66.3933
2.29824	67.3852
2.29722	68.1297
2.29621	68.1986
2.29519	67.0096
2.29417	64.4703
2.29316	61.426
2.29215	58.4706
2.29113	56.3856
2.29012	55.547
2.28911	56.3123
2.2881	58.098
2.28709	60.1131
2.28608	62.6441
2.28507	65.3335
2.28407	67.7764
2.28306	69.5491
2.28206	71.0654
2.28105	72.5462
2.28005	74.0045
2.27905	75.3042
2.27805	76.1789
2.27705	77.0107
2.27605	77.8357
2.27505	78.5603
2.27405	79.3968
2.27305	80.1428
2.27206	80.8957
2.27106	81.5746
2.27007	81.9853
2.26907	82.3913
2.26808	82.9083
2.26709	83.3432
2.2661	83.8072
2.26511	84.3476
2.26412	84.7489
2.26313	85.0203
2.26214	85.2713
2.26116	85.5399
2.26017	85.8102
2.25919	86.0889
2.2582	86.3136
2.25722	86.6439
2.25624	86.7651
2.25526	86.9755
2.25428	87.2979
2.2533	87.5107
2.25232	87.764
2.25134	87.9384
2.25036	87.9919
2.24939	88.1518
2.24841	88.3779
2.24744	88.4991
2.24646	88.6146
2.24549	88.7007
2.24452	88.667
2.24355	88.6057
2.24257	88.6028
2.24161	88.5684
2.24064	88.5534
2.23967	88.4282
2.2387	88.1266
2.23774	87.9107
2.23677	87.6799
2.23581	87.4325
2.23484	87.0517
2.23388	86.6341
2.23292	86.2998
2.23196	86.1652
2.231	86.154
2.23004	86.3756
2.22908	86.6383
2.22812	86.8337
2.22716	86.951
2.22621	87.2445
2.22525	87.8669
2.2243	88.3095
2.22334	88.5859
2.22239	88.9385
2.22144	89.1714
2.22049	89.2577
2.21953	89.1901
2.21859	89.134
2.21764	89.2494
2.21669	89.3248
2.21574	89.3325
2.21479	89.4007
2.21385	89.3973
2.2129	89.356
2.21196	89.4759
2.21102	89.4497
2.21007	89.4209
2.20913	89.416
2.20819	89.4778
2.20725	89.5584
2.20631	89.5488
2.20537	89.4914
2.20444	89.442
2.2035	89.429
2.20256	89.3684
2.20163	89.2789
2.20069	89.3151
2.19976	89.3331
2.19883	89.4317
2.19789	89.524
2.19696	89.5318
2.19603	89.4711
2.1951	89.3793
2.19417	89.4343
2.19325	89.4398
2.19232	89.4406
2.19139	89.4712
2.19047	89.3626
2.18954	89.2053
2.18862	89.2557
2.18769	89.3205
2.18677	89.3218
2.18585	89.2981
2.18493	89.2373
2.18401	88.978
2.18309	88.8542
2.18217	88.7007
2.18125	88.5255
2.18033	88.4792
2.17942	88.5414
2.1785	88.4244
2.17759	88.3568
2.17667	88.4573
2.17576	88.3757
2.17485	88.2116
2.17393	88.2306
2.17302	88.2519
2.17211	88.1944
2.1712	88.1928
2.17029	88.3532
2.16939	88.5073
2.16848	88.6096
2.16757	88.6429
2.16667	88.7726
2.16576	88.7203
2.16486	88.6985
2.16395	88.78
2.16305	88.8877
2.16215	88.9231
2.16125	88.9305
2.16035	88.9896
2.15945	88.9774
2.15855	89.0255
2.15765	88.9885
2.15675	88.8698
2.15586	88.8091
2.15496	89.0412
2.15406	89.282
2.15317	89.1354
2.15228	88.9224
2.15138	88.8967
2.15049	88.8563
2.1496	88.8501
2.14871	88.927
2.14782	88.8568
2.14693	88.6045
2.14604	88.5463
2.14515	88.6133
2.14427	88.5118
2.14338	88.3526
2.14249	88.3067
2.14161	88.4142
2.14072	88.4607
2.13984	88.4595
2.13896	88.3368
2.13808	88.1891
2.13719	88.3675
2.13631	88.3446
2.13543	88.2189
2.13455	88.2205
2.13368	88.2387
2.1328	88.069
2.13192	88.11
2.13105	88.3297
2.13017	88.3718
2.1293	88.2547
2.12842	88.2257
2.12755	88.1204
2.12668	87.9598
2.1258	88.1634
2.12493	88.3948
2.12406	88.5227
2.12319	88.7227
2.12232	88.9225
2.12145	88.9473
2.12059	89.0688
2.11972	88.9887
2.11885	88.871
2.11799	88.9808
2.11712	88.8929
2.11626	88.5381
2.1154	88.3476
2.11453	88.5407
2.11367	88.884
2.11281	89.0927
2.11195	89.1723
2.11109	89.2833
2.11023	89.2688
2.10937	89.234
2.10851	89.2563
2.10766	89.3448
2.1068	89.289
2.10594	89.2078
2.10509	89.236
2.10423	89.3293
2.10338	89.2981
2.10253	89.163
2.10168	89.1523
2.10082	89.154
2.09997	89.0071
2.09912	88.9617
2.09827	89.0505
2.09742	89.2146
2.09658	89.2488
2.09573	88.9934
2.09488	89.059
2.09404	89.2735
2.09319	89.1219
2.09235	88.8836
2.0915	88.8124
2.09066	89.0659
2.08982	89.0171
2.08897	88.6477
2.08813	88.5514
2.08729	88.6577
2.08645	88.6486
2.08561	88.6049
2.08477	88.6221
2.08394	88.7527
2.0831	88.7258
2.08226	88.5561
2.08143	88.3757
2.08059	88.1618
2.07976	87.9963
2.07892	87.8791
2.07809	87.8754
2.07726	88.0245
2.07643	88.1725
2.07559	88.5432
2.07476	88.7494
2.07393	88.6384
2.0731	88.4074
2.07228	88.5642
2.07145	89.0406
2.07062	89.532
2.06979	89.7271
2.06897	89.7557
2.06814	89.907
2.06732	89.7901
2.06649	89.7443
2.06567	89.8073
2.06485	89.6447
2.06403	89.8163
2.0632	90.0845
2.06238	90.1095
2.06156	90.1991
2.06074	90.2594
2.05993	90.0993
2.05911	90.1742
2.05829	90.3146
2.05747	90.308
2.05666	90.2721
2.05584	90.192
2.05503	90.2557
2.05421	90.2741
2.0534	90.2413
2.05259	90.2277
2.05177	90.216
2.05096	90.2028
2.05015	90.1367
2.04934	90.2036
2.04853	90.213
2.04772	90.3444
2.04691	90.5281
2.04611	90.4873
2.0453	90.3805
2.04449	90.4195
2.04369	90.5689
2.04288	90.5153
2.04208	90.5337
2.04127	90.58
2.04047	90.4858
2.03967	90.3888
2.03886	90.4317
2.03806	90.6276
2.03726	90.6635
2.03646	90.5495
2.03566	90.5662
2.03486	90.6433
2.03407	90.6206
2.03327	90.6276
2.03247	90.7941
2.03167	90.8712
2.03088	90.9709
2.03008	90.9306
2.02929	90.6253
2.0285	90.6761
2.0277	90.7868
2.02691	90.643
2.02612	90.545
2.02533	90.5073
2.02453	90.6428
2.02374	90.6965
2.02295	90.6383
2.02217	90.4867
2.02138	90.2881
2.02059	90.1152
2.0198	90.1279
2.01902	90.2141
2.01823	90.2204
2.01744	90.1997
2.01666	90.2354
2.01588	90.3149
2.01509	90.3272
2.01431	90.2582
2.01353	90.252
2.01275	90.3371
2.01196	90.3847
2.01118	90.2133
2.0104	90.041
2.00963	90.1469
2.00885	90.3345
2.00807	90.4168
2.00729	90.389
2.00651	90.5413
2.00574	90.6475
2.00496	90.7032
2.00419	90.8012
2.00341	90.8246
2.00264	90.7828
2.00187	90.5677
2.00109	90.4512
2.00032	90.4469
