Name: Siderite Fe^2+CO_3
Type: Mineral
Class: Carbonates
Subclass: 
Particle Size: 0-45um
Sample No.: C-9A
Owner: JPL
Wavelength range: IR
Origin: 
Collected by JPL
Description: 





Measurement: Hemispherical reflectance
First Column: X
Second Column: Y
X Units:  Wavelength (micrometers)
Y Units:  Reflectance (percent)
First X Value: 15.3853
Last X Value: 2.00032
Number of X Values: 2256
Additional information: c09aa.txt
 
15.3853	21.4502
15.3397	21.3553
15.2945	21.5026
15.2495	21.6068
15.2048	21.7586
15.1603	21.8703
15.1161	22.0022
15.0722	22.107
15.0285	21.9551
14.9851	21.7361
14.9419	21.7316
14.8989	22.0333
14.8563	22.237
14.8138	22.1576
14.7716	21.973
14.7296	21.7565
14.6879	21.5675
14.6464	21.2751
14.6052	20.916
14.5641	20.5987
14.5233	20.048
14.4828	19.2781
14.4424	18.7139
14.4023	18.4772
14.3624	18.3805
14.3227	18.5248
14.2833	18.87
14.244	19.104
14.205	19.3105
14.1662	19.39
14.1276	19.3478
14.0892	19.244
14.051	18.9083
14.0131	18.4633
13.9753	17.925
13.9377	17.2537
13.9004	16.4712
13.8632	15.521
13.8262	14.4025
13.7895	13.0045
13.7529	11.4911
13.7165	9.78187
13.6803	8.06967
13.6443	6.63633
13.6085	5.6814
13.5729	4.89459
13.5374	4.1229
13.5022	3.32784
13.4671	3.1526
13.4322	4.27583
13.3975	6.13177
13.363	8.19585
13.3286	10.403
13.2944	12.43
13.2604	14.1728
13.2266	15.7435
13.193	16.9132
13.1595	17.9287
13.1262	18.7778
13.093	19.1621
13.06	19.6566
13.0272	20.1233
12.9946	20.2691
12.9621	20.4489
12.9298	20.7478
12.8976	20.8913
12.8656	20.9936
12.8337	21.1665
12.8021	21.3712
12.7705	21.729
12.7391	22.1793
12.7079	22.4247
12.6769	22.6186
12.6459	22.611
12.6152	22.5092
12.5845	22.4962
12.5541	22.5212
12.5238	22.677
12.4936	22.8912
12.4635	23.2128
12.4337	23.82
12.4039	24.5801
12.3743	25.2763
12.3448	25.9997
12.3155	26.7963
12.2863	27.4416
12.2573	27.9136
12.2284	28.169
12.1996	28.2834
12.171	28.4182
12.1425	28.4842
12.1141	28.4692
12.0859	28.1419
12.0578	27.3272
12.0298	25.5943
12.0019	22.2914
11.9742	18.4255
11.9466	16.8407
11.9192	17.4142
11.8918	18.8832
11.8646	20.332
11.8375	20.8968
11.8106	20.4127
11.7837	19.1167
11.757	17.2685
11.7304	15.3136
11.7039	13.2269
11.6776	11.1151
11.6513	9.60969
11.6252	8.69169
11.5992	8.14793
11.5733	7.98048
11.5475	8.15273
11.5219	8.70354
11.4963	9.42888
11.4709	10.2278
11.4455	11.5435
11.4203	13.5492
11.3952	16.4329
11.3702	19.8212
11.3454	22.6882
11.3206	23.7279
11.2959	23.2209
11.2714	22.6768
11.2469	22.3512
11.2226	22.4288
11.1983	22.687
11.1742	22.8047
11.1502	23.0481
11.1263	23.2964
11.1024	23.4531
11.0787	23.6088
11.0551	23.7773
11.0316	23.8287
11.0081	23.8669
10.9848	23.9476
10.9616	24.0549
10.9385	24.1812
10.9154	24.2974
10.8925	24.3973
10.8697	24.5966
10.8469	24.7254
10.8243	24.776
10.8017	24.9005
10.7793	24.9642
10.7569	24.9604
10.7346	25.0017
10.7125	25.1283
10.6904	25.3061
10.6684	25.38
10.6465	25.479
10.6247	25.4994
10.6029	25.4887
10.5813	25.5247
10.5597	25.6055
10.5383	25.7325
10.5169	25.7619
10.4956	25.8279
10.4744	25.8279
10.4533	25.7554
10.4323	25.7736
10.4113	25.876
10.3904	25.9335
10.3697	25.8451
10.349	25.6997
10.3284	25.7136
10.3078	25.7599
10.2874	25.8785
10.267	25.9254
10.2467	25.7658
10.2265	25.6685
10.2064	25.662
10.1863	25.6289
10.1663	25.5677
10.1464	25.5141
10.1266	25.416
10.1069	25.3799
10.0872	25.2591
10.0676	25.1319
10.0481	25.1801
10.0287	25.2204
10.0093	25.2676
9.99005	25.3549
9.97084	25.3213
9.95169	25.3965
9.93263	25.4074
9.91364	25.3185
9.89472	25.2921
9.87587	25.3027
9.8571	25.3175
9.83839	25.1483
9.81976	24.9394
9.80119	24.7059
9.78271	24.4936
9.76428	24.3415
9.74592	24.1328
9.72764	23.8376
9.70943	23.5158
9.69128	23.0087
9.6732	22.5611
9.65518	22.2807
9.63724	21.8279
9.61935	21.5038
9.60155	21.3081
9.5838	21.1617
9.56611	21.1436
9.5485	21.1218
9.53094	20.89
9.51345	20.7198
9.49604	20.9049
9.47867	21.0792
9.46137	21.0787
9.44414	21.1442
9.42697	21.363
9.40986	21.6175
9.39281	21.8932
9.37583	22.3244
9.35891	22.7934
9.34204	23.1793
9.32524	23.4828
9.3085	23.6477
9.29182	23.5402
9.27519	23.2737
9.25863	22.86
9.24213	22.3759
9.22568	21.9505
9.2093	21.635
9.19297	21.6003
9.17669	21.7276
9.16048	21.8769
9.14433	22.0892
9.12823	22.2668
9.11218	22.3136
9.0962	22.3525
9.08027	22.3681
9.06439	22.477
9.04858	22.5672
9.03281	22.4691
9.0171	22.4664
9.00145	22.5668
8.98585	22.6781
8.9703	22.6502
8.9548	22.4857
8.93937	22.2991
8.92398	22.2839
8.90865	22.3394
8.89337	22.4051
8.87814	22.3293
8.86296	22.2997
8.84784	22.2989
8.83277	22.1442
8.81774	21.8863
8.80277	21.7603
8.78786	21.7338
8.77298	21.5802
8.75816	21.373
8.7434	21.2327
8.72868	20.9273
8.714	20.4862
8.69938	20.1434
8.68481	19.8821
8.67029	19.4731
8.65581	18.9451
8.64139	18.3624
8.62701	17.9326
8.61268	17.6554
8.5984	17.5467
8.58416	17.5824
8.56997	17.5569
8.55583	17.5063
8.54174	17.3587
8.52769	17.1371
8.51368	16.8391
8.49973	16.5658
8.48582	16.6409
8.47195	16.7162
8.45813	16.5494
8.44436	16.4105
8.43062	16.3572
8.41693	16.3728
8.4033	16.4362
8.3897	16.409
8.37614	16.3103
8.36264	16.4048
8.34917	16.5175
8.33574	16.5793
8.32236	16.6806
8.30903	16.7762
8.29573	16.8944
8.28248	16.9684
8.26927	17.0228
8.2561	17.0328
8.24298	17.0979
8.2299	17.1781
8.21685	17.1965
8.20385	17.233
8.19089	17.2788
8.17797	17.3265
8.16509	17.4854
8.15225	17.571
8.13946	17.4219
8.1267	17.2913
8.11398	17.2597
8.10131	17.1667
8.08867	17.0319
8.07606	16.8283
8.0635	16.7312
8.05099	16.7335
8.0385	16.617
8.02606	16.4479
8.01366	16.3655
8.00129	16.3691
7.98896	16.2687
7.97667	16.0035
7.96442	15.7402
7.9522	15.5217
7.94002	15.3993
7.92788	15.2737
7.91578	15.0889
7.90371	14.9832
7.89168	14.9191
7.87969	14.7921
7.86773	14.667
7.85581	14.6067
7.84392	14.4858
7.83207	14.3536
7.82026	14.2284
7.80849	14.0658
7.79674	13.9002
7.78503	13.831
7.77337	13.7166
7.76173	13.5592
7.75012	13.5284
7.73856	13.4667
7.72703	13.252
7.71553	13.0459
7.70406	12.9758
7.69263	13.0931
7.68123	13.0513
7.66987	12.7631
7.65855	12.5561
7.64725	12.4777
7.63598	12.3234
7.62475	12.1479
7.61356	12.0213
7.60239	11.8388
7.59126	11.6821
7.58017	11.5838
7.5691	11.4298
7.55806	11.2164
7.54707	11.1246
7.5361	11.087
7.52516	11.0056
7.51425	10.9528
7.50338	10.925
7.49253	10.8379
7.48172	10.7419
7.47094	10.618
7.46019	10.5315
7.44947	10.4362
7.43879	10.3043
7.42813	10.2059
7.4175	10.2343
7.4069	10.2699
7.39634	10.1604
7.3858	10.1006
7.37529	10.0148
7.36482	9.86655
7.35437	9.80404
7.34396	9.78528
7.33357	9.73235
7.32321	9.62295
7.31288	9.57203
7.30258	9.50335
7.29231	9.52272
7.28207	9.60118
7.27185	9.64183
7.26167	9.64403
7.25152	9.66479
7.24139	9.87553
7.23129	10.0926
7.22122	10.2458
7.21117	10.5553
7.20116	10.9178
7.19117	11.3957
7.18121	11.8828
7.17128	12.253
7.16137	12.5716
7.1515	12.7402
7.14164	12.7899
7.13182	12.7676
7.12203	12.6323
7.11225	12.511
7.10251	12.4665
7.0928	12.3973
7.08311	12.2935
7.07344	12.1537
7.06381	12.08
7.0542	12.0721
7.04461	12.1301
7.03506	12.0093
7.02552	11.8616
7.01601	11.8067
7.00653	11.8015
6.99708	11.7049
6.98765	11.6574
6.97824	11.7347
6.96886	11.7499
6.95951	11.7233
6.95018	11.6882
6.94087	11.711
6.9316	11.8072
6.92234	11.9011
6.91311	11.931
6.90391	11.9965
6.89473	12.1075
6.88557	12.2797
6.87644	12.2587
6.86733	12.3
6.85824	12.3692
6.84918	12.4025
6.84015	12.4764
6.83114	12.6207
6.82215	12.8096
6.81319	12.9664
6.80424	13.116
6.79532	13.2357
6.78643	13.364
6.77756	13.5772
6.76871	13.8387
6.75989	14.0433
6.75109	14.2637
6.74231	14.4458
6.73355	14.7579
6.72482	15.2247
6.71611	15.6515
6.70742	16.0714
6.69875	16.3251
6.69011	16.512
6.68149	16.8581
6.67289	17.238
6.66431	17.56
6.65576	17.8778
6.64722	18.2427
6.63871	18.7542
6.63022	18.9998
6.62175	19.142
6.61331	19.4296
6.60488	19.7517
6.59648	20.0607
6.5881	20.317
6.57974	20.6472
6.5714	20.9661
6.56308	21.2048
6.55478	21.5355
6.54651	21.862
6.53825	22.0793
6.53001	22.3376
6.5218	22.7225
6.51361	22.9687
6.50544	23.2198
6.49729	23.6838
6.48915	23.9986
6.48104	24.1814
6.47295	24.3745
6.46488	24.3042
6.45683	24.2075
6.4488	24.2419
6.44079	24.0755
6.4328	23.6832
6.42482	23.0858
6.41687	22.1953
6.40894	20.6175
6.40103	18.6578
6.39314	16.8157
6.38526	15.1987
6.37741	13.8705
6.36957	12.5692
6.36176	11.2621
6.35396	10.0862
6.34618	9.10077
6.33843	8.12644
6.33069	7.37135
6.32297	6.72125
6.31527	6.06008
6.30758	5.59221
6.29992	5.25669
6.29227	4.93401
6.28465	4.62982
6.27704	4.36959
6.26945	4.11704
6.26188	3.93524
6.25432	3.86515
6.24679	3.6457
6.23927	3.43843
6.23177	3.39191
6.22429	3.43625
6.21683	3.4483
6.20938	3.47143
6.20195	3.4466
6.19454	3.39893
6.18715	3.4984
6.17978	3.60171
6.17242	3.62138
6.16508	3.59842
6.15776	3.65499
6.15045	3.6556
6.14317	3.66411
6.1359	3.74874
6.12864	3.77041
6.12141	3.84752
6.11419	4.00019
6.10699	4.13477
6.0998	4.18236
6.09263	4.31431
6.08549	4.47484
6.07835	4.68395
6.07123	4.77899
6.06413	4.7942
6.05705	4.8621
6.04998	5.04427
6.04293	5.18061
6.0359	5.26702
6.02888	5.3968
6.02187	5.51899
6.01489	5.63649
6.00792	5.77604
6.00096	5.95833
5.99403	6.19318
5.98711	6.38827
5.9802	6.53427
5.97331	6.71404
5.96644	6.9507
5.95958	7.05584
5.95274	7.16857
5.94591	7.39675
5.9391	7.65035
5.9323	7.91169
5.92552	8.11451
5.91876	8.32605
5.91201	8.53517
5.90528	8.8067
5.89856	9.1595
5.89186	9.49471
5.88517	9.84276
5.8785	10.1729
5.87184	10.3438
5.8652	10.646
5.85857	10.9508
5.85196	11.1848
5.84536	11.4884
5.83878	11.8639
5.83221	12.1394
5.82566	12.3653
5.81912	12.6143
5.81259	12.8061
5.80608	13.0757
5.79959	13.3884
5.79311	13.5832
5.78665	13.7696
5.78019	14.0364
5.77376	14.3235
5.76734	14.582
5.76093	14.7736
5.75453	14.8701
5.74815	14.9174
5.74179	15.0029
5.73543	15.1529
5.7291	15.2445
5.72277	15.3568
5.71646	15.4983
5.71017	15.5479
5.70389	15.5355
5.69762	15.5635
5.69136	15.623
5.68513	15.6611
5.6789	15.6625
5.67268	15.5671
5.66648	15.4327
5.6603	15.325
5.65413	15.172
5.64797	15.0451
5.64182	14.8694
5.63569	14.5495
5.62957	14.3033
5.62347	14.0882
5.61737	13.7747
5.61129	13.3911
5.60522	13.0035
5.59917	12.6269
5.59313	12.1631
5.5871	11.5888
5.58109	10.9958
5.57509	10.2999
5.5691	9.55401
5.56312	8.89003
5.55716	8.27959
5.55121	7.71514
5.54528	7.25583
5.53935	7.05577
5.53344	6.96886
5.52754	6.78299
5.52166	6.66389
5.51578	6.71452
5.50992	6.92873
5.50407	7.18912
5.49823	7.50741
5.49241	7.91278
5.4866	8.46075
5.4808	9.2077
5.47501	10.1258
5.46923	11.3069
5.46347	12.6127
5.45772	14.0067
5.45198	15.6003
5.44625	17.2899
5.44054	18.9013
5.43484	20.3986
5.42914	21.8723
5.42347	23.3082
5.4178	24.5643
5.41214	25.5787
5.4065	26.4665
5.40087	27.2133
5.39525	27.8942
5.38964	28.5506
5.38404	29.008
5.37846	29.2825
5.37288	29.5939
5.36732	29.9637
5.36177	30.3238
5.35623	30.6732
5.35071	31.0402
5.34519	31.3748
5.33968	31.7454
5.33419	32.156
5.32871	32.5554
5.32324	32.9468
5.31778	33.276
5.31233	33.5944
5.30689	33.9378
5.30147	34.3051
5.29605	34.7071
5.29065	35.0633
5.28525	35.4101
5.27987	35.7811
5.2745	36.1951
5.26914	36.6558
5.26379	37.0659
5.25845	37.3944
5.25312	37.7684
5.24781	38.2343
5.2425	38.7367
5.23721	39.253
5.23192	39.5987
5.22665	39.8689
5.22138	40.2163
5.21613	40.5859
5.21089	40.7612
5.20566	40.8864
5.20044	41.1085
5.19522	41.2595
5.19002	41.2786
5.18483	41.3702
5.17965	41.4223
5.17448	41.3906
5.16933	41.3499
5.16418	41.2712
5.15904	41.1449
5.15391	41.0103
5.14879	40.7957
5.14368	40.509
5.13859	40.3426
5.1335	40.3226
5.12842	40.4492
5.12335	40.6885
5.1183	41.0006
5.11325	41.2744
5.10821	41.4766
5.10318	41.7045
5.09817	41.893
5.09316	41.993
5.08816	42.0508
5.08317	42.0979
5.07819	42.1242
5.07322	42.1669
5.06826	42.248
5.06331	42.3623
5.05837	42.4275
5.05344	42.4412
5.04852	42.4681
5.04361	42.5592
5.03871	42.5397
5.03382	42.5658
5.02894	42.6838
5.02406	42.7436
5.0192	42.765
5.01435	42.7913
5.0095	42.8744
5.00467	42.9778
4.99984	43.0853
4.99502	43.1572
4.99021	43.2334
4.98542	43.372
4.98063	43.5716
4.97585	43.8441
4.97108	44.1059
4.96632	44.3773
4.96156	44.6399
4.95682	44.8387
4.95209	45.0019
4.94736	45.1554
4.94264	45.1659
4.93794	45.1929
4.93324	45.3249
4.92855	45.5099
4.92387	45.685
4.9192	45.8552
4.91453	46.0662
4.90988	46.2685
4.90524	46.4573
4.9006	46.7026
4.89597	46.925
4.89135	47.1151
4.88674	47.3381
4.88214	47.518
4.87755	47.5628
4.87296	47.6162
4.86839	47.7634
4.86382	47.8751
4.85926	47.9563
4.85471	48.0677
4.85017	48.067
4.84564	48.0533
4.84111	48.1095
4.8366	48.1594
4.83209	48.1595
4.82759	48.1458
4.8231	48.1916
4.81862	48.1728
4.81415	48.1296
4.80968	48.1396
4.80522	48.1768
4.80077	48.1608
4.79633	48.1506
4.7919	48.2093
4.78747	48.1729
4.78306	48.0752
4.77865	47.9927
4.77425	47.9646
4.76986	47.9455
4.76547	47.8454
4.7611	47.7353
4.75673	47.6864
4.75237	47.578
4.74802	47.3973
4.74367	47.2595
4.73934	47.1171
4.73501	46.9798
4.73069	46.8132
4.72638	46.6281
4.72207	46.392
4.71777	46.0354
4.71348	45.6658
4.7092	45.3125
4.70493	44.9652
4.70066	44.6812
4.69641	44.279
4.69216	43.7573
4.68791	43.366
4.68368	43.0801
4.67945	42.7157
4.67523	42.3139
4.67102	41.9545
4.66682	41.6149
4.66262	41.3411
4.65843	41.2096
4.65425	41.09
4.65007	40.9937
4.64591	40.982
4.64175	40.9809
4.6376	41.046
4.63345	41.1152
4.62932	41.2107
4.62519	41.4128
4.62106	41.6368
4.61695	41.7856
4.61284	41.9412
4.60874	42.1526
4.60465	42.4107
4.60056	42.7232
4.59648	43.0387
4.59241	43.2215
4.58835	43.3818
4.58429	43.5613
4.58024	43.7046
4.5762	43.8999
4.57216	44.1109
4.56814	44.2646
4.56411	44.3563
4.5601	44.4643
4.55609	44.6425
4.55209	44.7122
4.5481	44.7327
4.54411	44.8051
4.54013	44.8453
4.53616	44.8891
4.5322	44.9085
4.52824	45.006
4.52429	45.0597
4.52034	44.9907
4.51641	44.9774
4.51247	45.0496
4.50855	45.0828
4.50463	45.043
4.50072	45.021
4.49682	45.0053
4.49292	45.007
4.48903	45.0622
4.48515	45.1088
4.48127	45.0749
4.4774	45.0659
4.47354	45.0721
4.46968	45.0212
4.46584	45.0688
4.46199	45.1564
4.45815	45.2039
4.45432	45.226
4.4505	45.2062
4.44668	45.2245
4.44287	45.2511
4.43907	45.2764
4.43527	45.339
4.43148	45.3983
4.4277	45.4597
4.42392	45.5272
4.42015	45.5291
4.41638	45.5369
4.41262	45.5651
4.40887	45.665
4.40513	45.72
4.40139	45.6987
4.39765	45.7401
4.39393	45.8224
4.39021	45.8319
4.38649	45.7648
4.38278	45.7748
4.37908	45.9155
4.37539	45.9735
4.3717	45.9349
4.36801	45.8804
4.36434	45.903
4.36067	45.9786
4.357	45.9931
4.35335	45.965
4.34969	46.0018
4.34605	46.0318
4.34241	45.9505
4.33877	45.9319
4.33514	45.9294
4.33152	45.8334
4.32791	45.7166
4.3243	45.6783
4.32069	45.6065
4.3171	45.4743
4.31351	45.3069
4.30992	45.0868
4.30634	44.9154
4.30277	44.7873
4.2992	44.585
4.29564	44.3718
4.29208	44.2311
4.28853	44.082
4.28499	43.9056
4.28145	43.66
4.27792	43.4946
4.27439	43.3305
4.27087	43.1489
4.26735	43.067
4.26384	43.0701
4.26034	43.0512
4.25684	43.1702
4.25335	43.2005
4.24986	43.0179
4.24638	42.847
4.24291	42.6913
4.23944	42.5533
4.23598	42.4763
4.23252	42.3402
4.22906	42.2941
4.22562	42.2985
4.22218	42.2767
4.21874	42.2805
4.21531	42.313
4.21189	42.3002
4.20847	42.2203
4.20506	42.1657
4.20165	42.1155
4.19825	41.9307
4.19485	41.7403
4.19146	41.7465
4.18807	41.7395
4.18469	41.5136
4.18132	41.2936
4.17795	41.2024
4.17458	41.0564
4.17123	40.9004
4.16787	40.6951
4.16453	40.5196
4.16118	40.3378
4.15785	40.0881
4.15451	39.9477
4.15119	39.7934
4.14787	39.5989
4.14455	39.4253
4.14124	39.2146
4.13794	39.0456
4.13464	38.8134
4.13134	38.5148
4.12805	38.272
4.12477	37.9707
4.12149	37.7179
4.11822	37.4247
4.11495	37.0612
4.11168	36.6146
4.10843	36.1165
4.10517	35.7733
4.10192	35.3775
4.09868	34.9727
4.09545	34.4708
4.09221	33.8503
4.08899	33.2588
4.08576	32.7123
4.08255	32.2111
4.07933	31.549
4.07613	30.8307
4.07292	30.0507
4.06973	29.3431
4.06654	28.6505
4.06335	27.8123
4.06017	26.9957
4.05699	26.2016
4.05382	25.2905
4.05065	24.4882
4.04749	23.6036
4.04433	22.618
4.04118	21.7193
4.03803	20.856
4.03489	19.9718
4.03175	19.1115
4.02862	18.3134
4.02549	17.5568
4.02237	16.8807
4.01925	16.3002
4.01614	15.7757
4.01303	15.2979
4.00993	14.7914
4.00683	14.3266
4.00373	13.935
4.00064	13.6163
3.99756	13.3839
3.99448	13.1658
3.9914	12.9973
3.98833	12.9371
3.98527	12.9981
3.98221	13.0857
3.97915	13.0946
3.9761	13.209
3.97305	13.5251
3.97001	13.8363
3.96697	14.1447
3.96394	14.4637
3.96091	14.8066
3.95789	15.193
3.95487	15.5956
3.95186	15.923
3.94885	16.2028
3.94584	16.5456
3.94284	16.9059
3.93984	17.2643
3.93685	17.5602
3.93386	17.8106
3.93088	18.0827
3.9279	18.3312
3.92493	18.5904
3.92196	18.8927
3.919	19.1393
3.91604	19.2991
3.91308	19.5709
3.91013	19.8245
3.90718	20.0296
3.90424	20.254
3.9013	20.4855
3.89837	20.5999
3.89544	20.7398
3.89252	20.9003
3.8896	21.0776
3.88668	21.3028
3.88377	21.562
3.88086	21.7038
3.87796	21.782
3.87506	21.8693
3.87217	22.0191
3.86928	22.2001
3.86639	22.445
3.86351	22.6326
3.86064	22.8445
3.85776	23.0227
3.8549	23.1699
3.85203	23.3577
3.84917	23.6394
3.84631	23.9087
3.84346	24.1861
3.84062	24.4371
3.83777	24.6996
3.83494	24.9152
3.8321	25.1942
3.82927	25.4725
3.82644	25.7329
3.82362	26.1555
3.82081	26.5507
3.81799	26.988
3.81518	27.4154
3.81238	27.8553
3.80958	28.4052
3.80678	28.9688
3.80399	29.5588
3.8012	30.2302
3.79841	30.9576
3.79563	31.7016
3.79286	32.5181
3.79008	33.3666
3.78731	34.223
3.78455	35.1697
3.78179	36.0278
3.77903	36.7769
3.77628	37.5659
3.77353	38.3501
3.77079	38.9635
3.76805	39.4352
3.76531	39.8928
3.76258	40.2817
3.75985	40.6011
3.75713	40.8515
3.7544	41.0645
3.75169	41.2879
3.74898	41.4752
3.74627	41.6092
3.74356	41.7421
3.74086	41.8676
3.73816	41.9291
3.73547	42.0505
3.73278	42.1873
3.7301	42.2756
3.72741	42.3775
3.72474	42.4884
3.72206	42.5088
3.71939	42.437
3.71673	42.4757
3.71406	42.5392
3.71141	42.5045
3.70875	42.5098
3.7061	42.5579
3.70345	42.6106
3.70081	42.5592
3.69817	42.5519
3.69553	42.5788
3.6929	42.456
3.69027	42.4244
3.68765	42.503
3.68503	42.4807
3.68241	42.3611
3.6798	42.3303
3.67719	42.3017
3.67458	42.2593
3.67198	42.2056
3.66938	42.0963
3.66678	42.0038
3.66419	41.9417
3.66161	41.8799
3.65902	41.8038
3.65644	41.7086
3.65387	41.6447
3.65129	41.5877
3.64872	41.5172
3.64616	41.4208
3.64359	41.3828
3.64103	41.3287
3.63848	41.2391
3.63593	41.1861
3.63338	41.021
3.63084	40.8078
3.6283	40.6967
3.62576	40.6051
3.62322	40.4829
3.62069	40.3212
3.61817	40.1049
3.61564	39.9417
3.61312	39.8283
3.61061	39.7255
3.6081	39.5416
3.60559	39.3583
3.60308	39.2038
3.60058	38.9893
3.59808	38.7652
3.59558	38.545
3.59309	38.357
3.59061	38.1135
3.58812	37.8397
3.58564	37.6251
3.58316	37.4409
3.58069	37.1996
3.57822	36.9076
3.57575	36.569
3.57328	36.1048
3.57082	35.8502
3.56836	35.6792
3.56591	35.3543
3.56346	34.9813
3.56101	34.6134
3.55857	34.2327
3.55613	33.8396
3.55369	33.3532
3.55126	32.948
3.54883	32.495
3.5464	32.0064
3.54397	31.6076
3.54155	31.1111
3.53914	30.7003
3.53672	30.3693
3.53431	29.966
3.5319	29.4431
3.5295	28.9692
3.5271	28.6019
3.5247	28.1957
3.52231	27.7345
3.51991	27.2607
3.51753	26.8934
3.51514	26.5464
3.51276	26.2475
3.51038	25.9154
3.50801	25.6327
3.50563	25.3516
3.50327	25.036
3.5009	24.7831
3.49854	24.7005
3.49618	24.5274
3.49382	24.3087
3.49147	24.2116
3.48912	24.1632
3.48677	24.1053
3.48443	24.003
3.48209	23.9391
3.47975	24.0257
3.47742	24.0745
3.47509	24.0547
3.47276	24.0234
3.47044	24.1727
3.46812	24.2859
3.4658	24.3926
3.46348	24.6088
3.46117	24.706
3.45886	24.7219
3.45656	24.728
3.45425	24.8219
3.45195	24.9698
3.44966	25.1061
3.44736	25.1609
3.44507	25.2262
3.44279	25.2992
3.4405	25.4554
3.43822	25.5983
3.43594	25.6878
3.43367	25.8069
3.43139	25.9131
3.42912	25.9227
3.42686	25.8554
3.42459	25.9362
3.42233	26.0868
3.42007	26.0629
3.41782	26.0562
3.41557	26.1539
3.41332	26.162
3.41108	26.1837
3.40883	26.28
3.40659	26.3641
3.40435	26.3354
3.40212	26.3097
3.39989	26.3721
3.39766	26.342
3.39544	26.3792
3.39322	26.4621
3.391	26.5309
3.38878	26.4787
3.38657	26.3939
3.38436	26.5066
3.38215	26.5913
3.37994	26.5894
3.37774	26.6194
3.37554	26.6648
3.37335	26.6441
3.37115	26.7845
3.36896	26.8293
3.36678	26.8231
3.36459	26.885
3.36241	26.985
3.36023	27.0167
3.35805	26.9948
3.35588	27.0685
3.35371	27.3164
3.35154	27.4162
3.34938	27.3059
3.34721	27.3505
3.34505	27.5705
3.3429	27.8297
3.34074	28.1084
3.33859	28.2763
3.33644	28.5115
3.3343	28.7686
3.33215	29.1273
3.33001	29.6529
3.32788	30.1742
3.32574	30.612
3.32361	31.1585
3.32148	31.8501
3.31936	32.5006
3.31723	33.1704
3.31511	33.8694
3.31299	34.5436
3.31088	35.1575
3.30876	35.6759
3.30665	36.1785
3.30455	36.6688
3.30244	37.2803
3.30034	37.8085
3.29824	38.2362
3.29614	38.7278
3.29405	39.1934
3.29196	39.6074
3.28987	39.9742
3.28778	40.3481
3.2857	40.7761
3.28362	41.1405
3.28154	41.4065
3.27946	41.6957
3.27739	41.9727
3.27532	42.2367
3.27325	42.5242
3.27119	42.7815
3.26913	42.9918
3.26707	43.2049
3.26501	43.3795
3.26295	43.5585
3.2609	43.7359
3.25885	43.8883
3.2568	44.1153
3.25476	44.3081
3.25272	44.3843
3.25068	44.4668
3.24864	44.5601
3.24661	44.6477
3.24458	44.8187
3.24255	44.9538
3.24052	45.1494
3.2385	45.2829
3.23648	45.2451
3.23446	45.2471
3.23244	45.3401
3.23043	45.4502
3.22841	45.6065
3.2264	45.6696
3.2244	45.6052
3.22239	45.5872
3.22039	45.682
3.21839	45.7061
3.2164	45.7294
3.2144	45.8297
3.21241	45.8428
3.21042	45.7989
3.20844	45.7963
3.20645	45.7739
3.20447	45.8592
3.20249	45.8606
3.20051	45.8106
3.19854	45.8277
3.19657	45.7905
3.1946	45.8663
3.19263	45.9872
3.19067	45.8833
3.1887	45.8164
3.18674	45.7679
3.18479	45.7402
3.18283	45.7321
3.18088	45.7345
3.17893	45.7296
3.17698	45.7008
3.17504	45.6239
3.17309	45.6267
3.17115	45.6765
3.16921	45.674
3.16728	45.7325
3.16534	45.7297
3.16341	45.6537
3.16148	45.5558
3.15956	45.5963
3.15763	45.7221
3.15571	45.6837
3.15379	45.6804
3.15187	45.6905
3.14996	45.5752
3.14805	45.5444
3.14614	45.5852
3.14423	45.5751
3.14232	45.5683
3.14042	45.4978
3.13852	45.3862
3.13662	45.3602
3.13472	45.4258
3.13283	45.3928
3.13094	45.386
3.12905	45.3475
3.12716	45.2161
3.12528	45.2431
3.12339	45.3258
3.12151	45.2503
3.11964	45.1712
3.11776	45.1363
3.11589	45.0002
3.11401	44.911
3.11214	44.8765
3.11028	44.8685
3.10841	44.9251
3.10655	44.9527
3.10469	44.8577
3.10283	44.7385
3.10098	44.7241
3.09912	44.699
3.09727	44.6836
3.09542	44.6742
3.09358	44.6512
3.09173	44.6683
3.08989	44.7965
3.08805	44.822
3.08621	44.6744
3.08437	44.5757
3.08254	44.6459
3.08071	44.6699
3.07888	44.6243
3.07705	44.676
3.07523	44.7314
3.0734	44.6668
3.07158	44.665
3.06977	44.7344
3.06795	44.7386
3.06613	44.7432
3.06432	44.7987
3.06251	44.7678
3.0607	44.7077
3.0589	44.7623
3.0571	44.6957
3.05529	44.6685
3.05349	44.7306
3.0517	44.7255
3.0499	44.725
3.04811	44.7432
3.04632	44.8019
3.04453	44.7823
3.04274	44.7154
3.04096	44.7332
3.03918	44.7986
3.0374	44.7831
3.03562	44.7428
3.03384	44.6694
3.03207	44.6768
3.03029	44.6066
3.02852	44.5645
3.02676	44.5825
3.02499	44.5688
3.02323	44.5345
3.02146	44.5578
3.0197	44.4532
3.01795	44.4123
3.01619	44.368
3.01444	44.2347
3.01269	44.1282
3.01094	44.2477
3.00919	44.2483
3.00744	44.2794
3.0057	44.391
3.00396	44.3416
3.00222	44.2684
3.00048	44.1465
2.99875	44.1508
2.99701	44.1987
2.99528	44.214
2.99355	44.1497
2.99183	44.1373
2.9901	44.1845
2.98838	44.3
2.98666	44.3391
2.98494	44.2063
2.98322	44.0054
2.9815	43.9742
2.97979	43.9813
2.97808	43.8287
2.97637	43.9428
2.97466	44.0189
2.97295	43.8034
2.97125	43.8027
2.96955	43.9242
2.96785	43.9163
2.96615	43.9403
2.96446	43.8822
2.96276	43.7219
2.96107	43.7876
2.95938	43.8962
2.95769	43.8267
2.95601	43.7262
2.95432	43.777
2.95264	43.7976
2.95096	43.8022
2.94928	43.8654
2.9476	43.9027
2.94593	43.8265
2.94425	43.6542
2.94258	43.7257
2.94092	43.8339
2.93925	43.8436
2.93758	43.8479
2.93592	43.9043
2.93426	43.9224
2.9326	43.7719
2.93094	43.8169
2.92928	43.9078
2.92763	43.9537
2.92598	44.0501
2.92433	43.9966
2.92268	43.8816
2.92103	43.9651
2.91939	44.0244
2.91775	44.1125
2.9161	44.1182
2.91447	44.1198
2.91283	44.2516
2.91119	44.2679
2.90956	44.1362
2.90793	44.1827
2.9063	44.2541
2.90467	44.219
2.90304	44.4286
2.90142	44.5443
2.89979	44.4264
2.89817	44.4616
2.89656	44.5193
2.89494	44.4627
2.89332	44.5922
2.89171	44.7869
2.8901	44.8407
2.88849	44.8209
2.88688	44.8296
2.88527	44.7999
2.88367	45.0105
2.88206	45.1981
2.88046	45.1691
2.87886	45.158
2.87727	45.2163
2.87567	45.2868
2.87408	45.436
2.87248	45.5411
2.87089	45.4853
2.8693	45.4707
2.86772	45.6114
2.86613	45.7023
2.86455	45.821
2.86297	45.9798
2.86139	46.0221
2.85981	46.0453
2.85823	46.1759
2.85666	46.3552
2.85508	46.4803
2.85351	46.4807
2.85194	46.4102
2.85038	46.513
2.84881	46.6826
2.84724	46.6966
2.84568	46.8378
2.84412	47.0613
2.84256	47.1899
2.841	47.1162
2.83945	47.1754
2.83789	47.246
2.83634	47.238
2.83479	47.3668
2.83324	47.5617
2.83169	47.5885
2.83015	47.6689
2.82861	47.8416
2.82706	47.944
2.82552	47.9503
2.82398	47.9325
2.82245	48.0014
2.82091	48.1677
2.81938	48.2778
2.81784	48.3015
2.81631	48.3276
2.81479	48.3821
2.81326	48.51
2.81173	48.6292
2.81021	48.7067
2.80869	48.7431
2.80716	48.7042
2.80565	48.9366
2.80413	49.1253
2.80261	49.0773
2.8011	49.0894
2.79959	49.1929
2.79808	49.3669
2.79657	49.6806
2.79506	49.7406
2.79355	49.8522
2.79205	50.0468
2.79055	50.2108
2.78904	50.3247
2.78754	50.5386
2.78605	50.8504
2.78455	51.022
2.78306	51.1557
2.78156	51.2993
2.78007	51.4783
2.77858	51.7755
2.77709	51.9822
2.77561	52.0059
2.77412	52.2873
2.77264	52.7017
2.77116	52.8897
2.76968	53.007
2.7682	53.0848
2.76672	53.4013
2.76524	53.6557
2.76377	53.8501
2.7623	53.9577
2.76083	54.1011
2.75936	54.37
2.75789	54.568
2.75642	54.8674
2.75496	55.1817
2.7535	55.2144
2.75203	55.3208
2.75057	55.3483
2.74912	55.4541
2.74766	55.5043
2.7462	55.6935
2.74475	56.0925
2.7433	56.2333
2.74185	56.3722
2.7404	56.5966
2.73895	56.7449
2.7375	56.6657
2.73606	56.7363
2.73462	57.0121
2.73318	57.1097
2.73174	57.2536
2.7303	57.4443
2.72886	57.5196
2.72742	57.4905
2.72599	57.7227
2.72456	58.0658
2.72313	58.0745
2.7217	58.1772
2.72027	58.4924
2.71884	58.3981
2.71742	58.292
2.71599	58.3563
2.71457	58.4556
2.71315	58.5377
2.71173	58.817
2.71032	58.9595
2.7089	58.805
2.70748	58.7455
2.70607	58.798
2.70466	58.8205
2.70325	58.8477
2.70184	59.0451
2.70043	59.1666
2.69903	59.216
2.69762	59.3945
2.69622	59.5222
2.69482	59.6842
2.69342	59.7688
2.69202	59.7537
2.69062	59.7214
2.68923	59.8104
2.68783	59.8482
2.68644	59.8606
2.68505	59.9677
2.68366	60.0891
2.68227	60.0446
2.68089	60.0372
2.6795	60.1235
2.67812	60.2124
2.67673	60.3992
2.67535	60.3159
2.67397	60.1416
2.6726	60.1584
2.67122	60.5417
2.66984	60.6029
2.66847	60.4639
2.6671	60.7649
2.66572	60.8357
2.66435	60.6562
2.66299	60.4005
2.66162	60.3725
2.66025	60.4086
2.65889	60.3946
2.65753	60.2655
2.65616	60.3093
2.65481	60.36
2.65345	60.4071
2.65209	60.3244
2.65073	60.1513
2.64938	60.1719
2.64803	60.2915
2.64667	60.3809
2.64532	60.3692
2.64397	60.2066
2.64263	60.2384
2.64128	60.3927
2.63994	60.5118
2.63859	60.4509
2.63725	60.3534
2.63591	60.2931
2.63457	60.3531
2.63323	60.2928
2.6319	60.3143
2.63056	60.5049
2.62923	60.4798
2.62789	60.4538
2.62656	60.4461
2.62523	60.2465
2.6239	60.1753
2.62258	60.3144
2.62125	60.4513
2.61993	60.455
2.6186	60.296
2.61728	60.4155
2.61596	60.3358
2.61464	60.0966
2.61332	60.135
2.61201	60.1661
2.61069	60.1963
2.60938	60.2696
2.60807	60.2993
2.60675	60.3409
2.60544	60.3931
2.60414	60.2292
2.60283	60.1943
2.60152	60.1543
2.60022	59.9558
2.59891	59.909
2.59761	60.099
2.59631	60.4259
2.59501	60.7468
2.59371	60.5689
2.59242	60.0856
2.59112	59.7839
2.58983	59.7416
2.58853	59.8954
2.58724	59.9286
2.58595	59.8297
2.58466	59.8766
2.58338	59.8873
2.58209	59.7938
2.5808	59.7256
2.57952	59.6324
2.57824	59.4691
2.57695	59.4246
2.57567	59.3758
2.5744	59.4393
2.57312	59.4212
2.57184	59.2259
2.57057	59.2431
2.56929	59.1326
2.56802	58.9037
2.56675	58.6956
2.56548	58.7202
2.56421	58.7978
2.56294	58.7449
2.56168	58.6537
2.56041	58.5101
2.55915	58.3384
2.55789	58.2711
2.55662	58.2622
2.55536	58.146
2.5541	58.0579
2.55285	58.0877
2.55159	57.9815
2.55034	57.8904
2.54908	57.9821
2.54783	57.9983
2.54658	57.6985
2.54533	57.5964
2.54408	57.7221
2.54283	57.7486
2.54159	57.7367
2.54034	57.7789
2.5391	57.7192
2.53785	57.5797
2.53661	57.5634
2.53537	57.4757
2.53413	57.5319
2.53289	57.7395
2.53166	57.7389
2.53042	57.7051
2.52919	57.7553
2.52795	57.7991
2.52672	57.7525
2.52549	57.6964
2.52426	57.6987
2.52303	57.6988
2.52181	57.8266
2.52058	57.8668
2.51936	57.8675
2.51813	57.8098
2.51691	57.8596
2.51569	57.9683
2.51447	57.9957
2.51325	58.0918
2.51203	58.1194
2.51082	57.9959
2.5096	58.0517
2.50839	58.1942
2.50717	58.1468
2.50596	58.0353
2.50475	58.0962
2.50354	58.2863
2.50233	58.3702
2.50113	58.3616
2.49992	58.4129
2.49872	58.3782
2.49751	58.3741
2.49631	58.3243
2.49511	58.4065
2.49391	58.5106
2.49271	58.5686
2.49151	58.6819
2.49031	58.5711
2.48912	58.4483
2.48792	58.6249
2.48673	58.7805
2.48554	58.7996
2.48435	58.8721
2.48316	58.8379
2.48197	58.7843
2.48078	58.8387
2.4796	58.9493
2.47841	58.9838
2.47723	59.0362
2.47604	59.0667
2.47486	59.0929
2.47368	59.1346
2.4725	59.1589
2.47132	59.2221
2.47014	59.2875
2.46897	59.3813
2.46779	59.4241
2.46662	59.2956
2.46545	59.2879
2.46427	59.3748
2.4631	59.4005
2.46193	59.4696
2.46077	59.5583
2.4596	59.5257
2.45843	59.5798
2.45727	59.7696
2.4561	59.8869
2.45494	59.9381
2.45378	59.8512
2.45262	59.7995
2.45146	59.863
2.4503	59.984
2.44914	60.1234
2.44799	60.1394
2.44683	60.1813
2.44568	60.2018
2.44452	60.1267
2.44337	60.0596
2.44222	60.0739
2.44107	60.099
2.43992	60.0637
2.43877	60.067
2.43763	60.1567
2.43648	60.2439
2.43534	60.344
2.43419	60.3959
2.43305	60.3634
2.43191	60.2523
2.43077	60.1477
2.42963	60.2349
2.42849	60.3337
2.42736	60.3731
2.42622	60.4028
2.42509	60.4329
2.42395	60.4932
2.42282	60.5223
2.42169	60.4238
2.42056	60.3525
2.41943	60.5183
2.4183	60.6517
2.41717	60.587
2.41605	60.5653
2.41492	60.6358
2.4138	60.7163
2.41267	60.6818
2.41155	60.6307
2.41043	60.6636
2.40931	60.6758
2.40819	60.5261
2.40707	60.4547
2.40595	60.4905
2.40484	60.5651
2.40372	60.5879
2.40261	60.5711
2.4015	60.5689
2.40039	60.5654
2.39928	60.6153
2.39817	60.664
2.39706	60.7491
2.39595	60.7489
2.39484	60.664
2.39374	60.6154
2.39263	60.5901
2.39153	60.6784
2.39043	60.6811
2.38932	60.654
2.38822	60.5838
2.38712	60.4964
2.38603	60.5038
2.38493	60.5451
2.38383	60.4868
2.38274	60.5167
2.38164	60.5458
2.38055	60.5614
2.37946	60.5255
2.37836	60.4479
2.37727	60.5324
2.37618	60.6124
2.3751	60.4382
2.37401	60.335
2.37292	60.2683
2.37184	60.3371
2.37075	60.482
2.36967	60.4478
2.36859	60.4177
2.3675	60.4307
2.36642	60.2632
2.36534	60.1062
2.36427	60.1382
2.36319	60.178
2.36211	60.179
2.36104	60.1643
2.35996	60.2455
2.35889	60.2284
2.35781	60.167
2.35674	60.2616
2.35567	60.1957
2.3546	60.0421
2.35353	60.046
2.35247	60.0927
2.3514	60.0598
2.35033	59.9739
2.34927	59.9811
2.3482	59.9529
2.34714	59.9313
2.34608	59.9305
2.34502	59.8648
2.34396	59.8265
2.3429	59.8105
2.34184	59.8581
2.34078	59.853
2.33973	59.9
2.33867	60.015
2.33762	59.9439
2.33656	59.9629
2.33551	59.9197
2.33446	59.9075
2.33341	59.8294
2.33236	59.7967
2.33131	59.9169
2.33026	59.9202
2.32922	59.8235
2.32817	59.7061
2.32712	59.8495
2.32608	59.9595
2.32504	59.9115
2.324	59.887
2.32295	60.0369
2.32191	59.9431
2.32087	59.8953
2.31984	59.9732
2.3188	60.0475
2.31776	60.1191
2.31673	60.1846
2.31569	60.1097
2.31466	60.0265
2.31362	59.9722
2.31259	59.9941
2.31156	60.0318
2.31053	60.0804
2.3095	60.1
2.30847	60.0626
2.30745	60.1777
2.30642	60.3727
2.3054	60.4717
2.30437	60.3821
2.30335	60.2894
2.30232	60.305
2.3013	60.2808
2.30028	60.231
2.29926	60.2511
2.29824	60.2954
2.29722	60.3937
2.29621	60.4456
2.29519	60.2501
2.29417	60.2949
2.29316	60.4318
2.29215	60.4549
2.29113	60.4468
2.29012	60.4453
2.28911	60.3971
2.2881	60.4527
2.28709	60.5111
2.28608	60.4005
2.28507	60.4187
2.28407	60.4483
2.28306	60.5739
2.28206	60.6656
2.28105	60.5428
2.28005	60.5344
2.27905	60.4941
2.27805	60.5474
2.27705	60.5776
2.27605	60.5454
2.27505	60.635
2.27405	60.6189
2.27305	60.6933
2.27206	60.8503
2.27106	60.8327
2.27007	60.8262
2.26907	60.8342
2.26808	60.7482
2.26709	60.7879
2.2661	60.8478
2.26511	60.9286
2.26412	61.0698
2.26313	61.0142
2.26214	61.0828
2.26116	60.9923
2.26017	60.8839
2.25919	60.9277
2.2582	60.9998
2.25722	60.9908
2.25624	61.0574
2.25526	61.0998
2.25428	61.2078
2.2533	61.1691
2.25232	61.1194
2.25134	61.1096
2.25036	61.0181
2.24939	61.061
2.24841	61.2587
2.24744	61.2638
2.24646	61.1124
2.24549	60.9059
2.24452	60.8912
2.24355	61.1458
2.24257	61.267
2.24161	61.2084
2.24064	61.1236
2.23967	61.0584
2.2387	61.0386
2.23774	61.1763
2.23677	61.1809
2.23581	61.2949
2.23484	61.3623
2.23388	61.2605
2.23292	61.1967
2.23196	61.1896
2.231	61.239
2.23004	61.2975
2.22908	61.3354
2.22812	61.3639
2.22716	61.4108
2.22621	61.3234
2.22525	61.2773
2.2243	61.281
2.22334	61.2395
2.22239	61.3081
2.22144	61.3936
2.22049	61.3337
2.21953	61.3001
2.21859	61.4024
2.21764	61.3966
2.21669	61.4065
2.21574	61.4439
2.21479	61.5525
2.21385	61.5613
2.2129	61.4925
2.21196	61.4423
2.21102	61.41
2.21007	61.3399
2.20913	61.3517
2.20819	61.3949
2.20725	61.3475
2.20631	61.3675
2.20537	61.4781
2.20444	61.5092
2.2035	61.3845
2.20256	61.34
2.20163	61.4465
2.20069	61.541
2.19976	61.556
2.19883	61.6083
2.19789	61.5799
2.19696	61.539
2.19603	61.5774
2.1951	61.551
2.19417	61.5898
2.19325	61.5765
2.19232	61.4312
2.19139	61.3503
2.19047	61.4949
2.18954	61.5952
2.18862	61.474
2.18769	61.4046
2.18677	61.5508
2.18585	61.5403
2.18493	61.5478
2.18401	61.4949
2.18309	61.5551
2.18217	61.588
2.18125	61.5942
2.18033	61.6051
2.17942	61.5348
2.1785	61.5834
2.17759	61.6275
2.17667	61.5722
2.17576	61.4428
2.17485	61.507
2.17393	61.6413
2.17302	61.5901
2.17211	61.478
2.1712	61.5209
2.17029	61.5914
2.16939	61.6045
2.16848	61.616
2.16757	61.4626
2.16667	61.4843
2.16576	61.5138
2.16486	61.5914
2.16395	61.7048
2.16305	61.6402
2.16215	61.632
2.16125	61.7469
2.16035	61.7373
2.15945	61.6394
2.15855	61.5747
2.15765	61.6068
2.15675	61.5688
2.15586	61.5397
2.15496	61.6462
2.15406	61.8435
2.15317	61.8404
2.15228	61.6849
2.15138	61.5646
2.15049	61.6962
2.1496	61.9123
2.14871	61.9193
2.14782	61.7234
2.14693	61.6517
2.14604	61.786
2.14515	61.822
2.14427	61.7009
2.14338	61.5561
2.14249	61.558
2.14161	61.6112
2.14072	61.6095
2.13984	61.5194
2.13896	61.5668
2.13808	61.4756
2.13719	61.4121
2.13631	61.5066
2.13543	61.6702
2.13455	61.8476
2.13368	61.8537
2.1328	61.6996
2.13192	61.6531
2.13105	61.7039
2.13017	61.7239
2.1293	61.7666
2.12842	61.7788
2.12755	61.6887
2.12668	61.5801
2.1258	61.5985
2.12493	61.5776
2.12406	61.4426
2.12319	61.5358
2.12232	61.6993
2.12145	61.7426
2.12059	61.7098
2.11972	61.822
2.11885	61.8524
2.11799	61.8561
2.11712	61.7418
2.11626	61.6052
2.1154	61.6692
2.11453	61.7682
2.11367	61.6625
2.11281	61.6779
2.11195	61.7288
2.11109	61.7865
2.11023	61.9577
2.10937	61.8044
2.10851	61.5744
2.10766	61.5841
2.1068	61.6532
2.10594	61.7127
2.10509	61.6201
2.10423	61.5745
2.10338	61.7016
2.10253	61.7889
2.10168	61.9204
2.10082	61.8992
2.09997	61.8342
2.09912	61.8114
2.09827	61.7943
2.09742	61.5306
2.09658	61.3244
2.09573	61.5306
2.09488	61.9926
2.09404	62.0113
2.09319	61.9274
2.09235	61.9668
2.0915	61.872
2.09066	61.7471
2.08982	61.7711
2.08897	61.8205
2.08813	61.9
2.08729	61.6279
2.08645	61.4827
2.08561	61.6146
2.08477	61.6966
2.08394	61.7065
2.0831	61.8662
2.08226	61.8019
2.08143	61.6609
2.08059	61.6981
2.07976	62.0817
2.07892	62.1578
2.07809	61.8739
2.07726	61.8307
2.07643	61.5832
2.07559	61.4205
2.07476	61.2849
2.07393	61.5153
2.0731	61.9068
2.07228	61.9497
2.07145	61.9743
2.07062	61.8215
2.06979	61.8298
2.06897	61.9995
2.06814	61.8869
2.06732	61.8194
2.06649	61.4765
2.06567	61.2646
2.06485	61.5144
2.06403	61.8968
2.0632	62.1903
2.06238	61.9717
2.06156	61.6485
2.06074	61.6253
2.05993	61.558
2.05911	61.5939
2.05829	61.7382
2.05747	61.84
2.05666	61.8434
2.05584	61.9291
2.05503	61.8028
2.05421	61.7546
2.0534	61.8774
2.05259	62.0031
2.05177	62.0223
2.05096	61.8847
2.05015	61.7345
2.04934	61.7695
2.04853	61.8327
2.04772	61.9072
2.04691	61.8241
2.04611	61.7866
2.0453	61.8115
2.04449	61.9079
2.04369	61.9452
2.04288	61.9255
2.04208	61.9114
2.04127	61.8801
2.04047	61.7441
2.03967	61.7574
2.03886	61.8758
2.03806	61.9211
2.03726	61.9111
2.03646	61.8599
2.03566	61.9866
2.03486	61.9659
2.03407	61.8477
2.03327	61.8201
2.03247	61.7088
2.03167	61.8724
2.03088	61.9319
2.03008	61.8997
2.02929	62.0865
2.0285	62.0966
2.0277	61.7906
2.02691	61.605
2.02612	61.8821
2.02533	62.0711
2.02453	61.7648
2.02374	61.4244
2.02295	61.609
2.02217	61.9072
2.02138	61.9069
2.02059	61.9523
2.0198	62.1411
2.01902	62.1376
2.01823	61.7072
2.01744	61.5196
2.01666	61.7642
2.01588	61.9858
2.01509	61.9223
2.01431	61.9694
2.01353	61.7961
2.01275	61.583
2.01196	61.7491
2.01118	61.8714
2.0104	61.8344
2.00963	61.9288
2.00885	61.8559
2.00807	61.5622
2.00729	61.6796
2.00651	61.8996
2.00574	61.8353
2.00496	61.6888
2.00419	61.6821
2.00341	61.5394
2.00264	61.7777
2.00187	62.0123
2.00109	61.9089
2.00032	61.8299
