Name: Rhodochrosite MnCO_3
Type: Mineral
Class: Carbonates
Subclass: 
Particle Size: 45-125um
Sample No.: C-8A
Owner: JPL
Wavelength range: IR
Origin: USA, Montana, Silver Bow County, Butte
Collected by Ward's
Description: 





Measurement: Hemispherical reflectance
First Column: X
Second Column: Y
X Units:  Wavelength (micrometers)
Y Units:  Reflectance (percent)
First X Value: 15.3853
Last X Value: 2.00032
Number of X Values: 2256
Additional information: c08aa.txt
 
15.3853	13.9825
15.3397	13.8769
15.2945	13.7783
15.2495	13.9031
15.2048	14.1465
15.1603	14.3622
15.1161	14.4146
15.0722	14.6002
15.0285	14.6936
14.9851	14.8151
14.9419	14.9305
14.8989	14.9021
14.8563	14.9644
14.8138	14.9117
14.7716	14.7994
14.7296	14.8408
14.6879	14.8364
14.6464	14.7614
14.6052	14.7775
14.5641	14.7643
14.5233	14.5176
14.4828	14.3302
14.4424	14.2296
14.4023	13.9668
14.3624	13.6141
14.3227	12.9281
14.2833	12.2129
14.244	12.0597
14.205	11.6171
14.1662	10.9399
14.1276	10.0976
14.0892	8.90672
14.051	7.76547
14.0131	6.90259
13.9753	6.18316
13.9377	5.52687
13.9004	5.02197
13.8632	4.86584
13.8262	4.96079
13.7895	5.31508
13.7529	5.25274
13.7165	3.86213
13.6803	2.42344
13.6443	2.36226
13.6085	2.71886
13.5729	3.39883
13.5374	4.76184
13.5022	6.09826
13.4671	7.17251
13.4322	8.31754
13.3975	9.25074
13.363	10.0039
13.3286	10.8883
13.2944	11.764
13.2604	12.4907
13.2266	13.2245
13.193	13.8701
13.1595	14.318
13.1262	14.8742
13.093	15.3103
13.06	15.6411
13.0272	16.0246
12.9946	16.2105
12.9621	16.418
12.9298	16.7508
12.8976	17.0249
12.8656	17.2554
12.8337	17.6816
12.8021	17.8743
12.7705	17.8667
12.7391	18.0983
12.7079	18.3304
12.6769	18.2386
12.6459	18.2344
12.6152	18.4165
12.5845	18.6866
12.5541	18.9811
12.5238	19.2876
12.4936	19.5673
12.4635	19.8385
12.4337	20.0504
12.4039	20.2556
12.3743	20.406
12.3448	20.5246
12.3155	20.5596
12.2863	20.4436
12.2573	20.2495
12.2284	20.1629
12.1996	20.0758
12.171	19.6937
12.1425	19.1709
12.1141	18.6047
12.0859	17.8135
12.0578	16.976
12.0298	15.731
12.0019	13.8412
11.9742	11.0223
11.9466	8.13381
11.9192	7.20641
11.8918	8.05635
11.8646	9.3098
11.8375	10.0894
11.8106	10.1693
11.7837	9.66146
11.757	9.05595
11.7304	8.64556
11.7039	8.36074
11.6776	8.21966
11.6513	8.39238
11.6252	8.90313
11.5992	9.39669
11.5733	9.75852
11.5475	10.5565
11.5219	12.184
11.4963	14.2308
11.4709	16.2477
11.4455	18.0446
11.4203	19.5005
11.3952	20.587
11.3702	20.2941
11.3454	17.3952
11.3206	13.6015
11.2959	11.2862
11.2714	10.5328
11.2469	10.5362
11.2226	10.7618
11.1983	11.2113
11.1742	11.6549
11.1502	11.9178
11.1263	12.2098
11.1024	12.5613
11.0787	12.819
11.0551	12.9788
11.0316	13.144
11.0081	13.3443
10.9848	13.5093
10.9616	13.5854
10.9385	13.6485
10.9154	13.6935
10.8925	13.8761
10.8697	13.9889
10.8469	14.1678
10.8243	14.3764
10.8017	14.5094
10.7793	14.6067
10.7569	14.6362
10.7346	14.5103
10.7125	14.3366
10.6904	14.2084
10.6684	14.0946
10.6465	13.9118
10.6247	13.8227
10.6029	13.7149
10.5813	13.6563
10.5597	13.6924
10.5383	13.7377
10.5169	13.9087
10.4956	14.1019
10.4744	14.0662
10.4533	14.2164
10.4323	14.4293
10.4113	14.5234
10.3904	14.4993
10.3697	14.4764
10.349	14.4836
10.3284	14.5218
10.3078	14.5975
10.2874	14.6405
10.267	14.6826
10.2467	14.8022
10.2265	14.9068
10.2064	15.0728
10.1863	15.0717
10.1663	15.0832
10.1464	15.0233
10.1266	14.8007
10.1069	14.5952
10.0872	14.4903
10.0676	14.422
10.0481	14.3398
10.0287	14.3195
10.0093	14.2542
9.99005	14.0422
9.97084	13.7997
9.95169	13.4827
9.93263	13.2777
9.91364	13.0546
9.89472	12.6025
9.87587	12.0607
9.8571	11.6882
9.83839	11.3647
9.81976	11.0768
9.80119	10.752
9.78271	10.434
9.76428	10.386
9.74592	10.4531
9.72764	10.5112
9.70943	10.6737
9.69128	10.8887
9.6732	11.0832
9.65518	11.232
9.63724	11.4554
9.61935	11.6305
9.60155	11.8241
9.5838	11.9448
9.56611	11.9546
9.5485	11.98
9.53094	11.9207
9.51345	11.8181
9.49604	11.8585
9.47867	11.7841
9.46137	11.7054
9.44414	11.8151
9.42697	11.9586
9.40986	12.0863
9.39281	12.313
9.37583	12.6357
9.35891	12.9221
9.34204	13.0499
9.32524	12.985
9.3085	12.9398
9.29182	12.8561
9.27519	12.6949
9.25863	12.2948
9.24213	11.7258
9.22568	11.0262
9.2093	10.6092
9.19297	10.7164
9.17669	10.9333
9.16048	11.2029
9.14433	11.6136
9.12823	12.081
9.11218	12.6217
9.0962	12.9636
9.08027	13.1629
9.06439	13.4807
9.04858	13.6228
9.03281	13.4829
9.0171	13.3785
9.00145	13.4387
8.98585	13.4399
8.9703	13.4155
8.9548	13.5353
8.93937	13.6268
8.92398	13.6494
8.90865	13.7166
8.89337	13.7599
8.87814	13.8381
8.86296	13.8895
8.84784	13.8774
8.83277	13.681
8.81774	13.4105
8.80277	13.1107
8.78786	12.4892
8.77298	11.7824
8.75816	11.0996
8.7434	10.5544
8.72868	10.1033
8.714	9.65355
8.69938	9.23938
8.68481	8.70912
8.67029	8.34075
8.65581	8.07961
8.64139	7.8147
8.62701	7.49917
8.61268	7.40167
8.5984	7.56683
8.58416	7.81527
8.56997	7.96798
8.55583	8.11038
8.54174	8.20806
8.52769	8.12055
8.51368	8.06642
8.49973	8.12664
8.48582	8.31956
8.47195	8.42562
8.45813	8.56946
8.44436	8.58963
8.43062	8.43192
8.41693	8.52393
8.4033	8.66671
8.3897	8.65897
8.37614	8.45045
8.36264	8.25235
8.34917	8.22286
8.33574	8.23228
8.32236	8.30778
8.30903	8.51176
8.29573	8.71285
8.28248	8.79154
8.26927	8.89316
8.2561	8.99324
8.24298	8.95519
8.2299	8.87016
8.21685	8.9729
8.20385	9.05032
8.19089	8.95104
8.17797	8.87453
8.16509	8.8038
8.15225	8.70085
8.13946	8.63623
8.1267	8.54832
8.11398	8.41168
8.10131	8.31525
8.08867	8.29982
8.07606	8.17576
8.0635	7.85626
8.05099	7.75898
8.0385	7.71404
8.02606	7.54607
8.01366	7.43474
8.00129	7.47892
7.98896	7.43538
7.97667	7.34922
7.96442	7.28725
7.9522	7.3279
7.94002	7.28061
7.92788	7.14764
7.91578	7.14748
7.90371	7.12419
7.89168	7.05651
7.87969	6.99378
7.86773	6.98571
7.85581	7.07855
7.84392	7.12745
7.83207	7.12034
7.82026	7.07473
7.80849	7.04459
7.79674	7.09316
7.78503	7.20258
7.77337	7.26839
7.76173	7.24104
7.75012	7.16773
7.73856	7.17369
7.72703	7.23396
7.71553	7.26576
7.70406	7.24891
7.69263	7.20716
7.68123	7.118
7.66987	7.20676
7.65855	7.29829
7.64725	7.3667
7.63598	7.45043
7.62475	7.45182
7.61356	7.48921
7.60239	7.62811
7.59126	7.65144
7.58017	7.71004
7.5691	7.81812
7.55806	7.89761
7.54707	7.93271
7.5361	7.96132
7.52516	7.98194
7.51425	8.06296
7.50338	8.18698
7.49253	8.29924
7.48172	8.45958
7.47094	8.6287
7.46019	8.67047
7.44947	8.64687
7.43879	8.71032
7.42813	8.82789
7.4175	9.02291
7.4069	9.19568
7.39634	9.24239
7.3858	9.40229
7.37529	9.6432
7.36482	9.79744
7.35437	9.99308
7.34396	10.2434
7.33357	10.4077
7.32321	10.5297
7.31288	10.6631
7.30258	10.8387
7.29231	11.0672
7.28207	11.4585
7.27185	11.8896
7.26167	12.3175
7.25152	12.6777
7.24139	13.0218
7.23129	13.5468
7.22122	14.0498
7.21117	14.4214
7.20116	14.6946
7.19117	15.2348
7.18121	16.3067
7.17128	17.8257
7.16137	19.2856
7.1515	20.4975
7.14164	21.232
7.13182	21.5592
7.12203	21.8946
7.11225	22.0592
7.10251	22.1048
7.0928	22.2011
7.08311	22.1883
7.07344	22.0778
7.06381	22.1516
7.0542	22.4781
7.04461	22.6315
7.03506	22.3698
7.02552	22.3423
7.01601	22.4475
7.00653	22.4763
6.99708	22.6212
6.98765	22.7263
6.97824	22.8274
6.96886	23.1578
6.95951	23.5504
6.95018	23.453
6.94087	23.5066
6.9316	23.695
6.92234	23.9334
6.91311	24.3298
6.90391	24.6843
6.89473	24.8106
6.88557	24.9565
6.87644	25.3653
6.86733	26.2783
6.85824	26.5452
6.84918	26.1307
6.84015	26.1116
6.83114	26.6556
6.82215	27.0697
6.81319	27.1654
6.80424	27.4962
6.79532	28.3588
6.78643	28.8436
6.77756	28.865
6.76871	29.0811
6.75989	29.436
6.75109	30.0286
6.74231	30.6712
6.73355	31.5286
6.72482	32.5641
6.71611	33.5551
6.70742	34.1714
6.69875	34.4704
6.69011	35.2228
6.68149	36.105
6.67289	36.3802
6.66431	36.46
6.65576	36.7961
6.64722	37.9188
6.63871	39.4023
6.63022	39.3018
6.62175	38.7452
6.61331	38.8108
6.60488	39.0567
6.59648	39.5787
6.5881	39.9562
6.57974	40.4104
6.5714	40.8916
6.56308	40.3979
6.55478	40.3727
6.54651	40.3999
6.53825	40.3001
6.53001	40.3808
6.5218	40.7844
6.51361	40.5633
6.50544	40.7275
6.49729	41.675
6.48915	41.5222
6.48104	40.3763
6.47295	39.3582
6.46488	38.0664
6.45683	36.7752
6.4488	35.2286
6.44079	33.1641
6.4328	30.4079
6.42482	27.3222
6.41687	24.3722
6.40894	20.4731
6.40103	16.8324
6.39314	14.2332
6.38526	11.9823
6.37741	10.1827
6.36957	8.61262
6.36176	7.08072
6.35396	5.96785
6.34618	5.24626
6.33843	4.47701
6.33069	3.80174
6.32297	3.23839
6.31527	2.84864
6.30758	2.56315
6.29992	2.21279
6.29227	2.02132
6.28465	1.90484
6.27704	1.69865
6.26945	1.50707
6.26188	1.34451
6.25432	1.19545
6.24679	1.0962
6.23927	1.01984
6.23177	0.909991
6.22429	0.841101
6.21683	0.779624
6.20938	0.723164
6.20195	0.688939
6.19454	0.666371
6.18715	0.672193
6.17978	0.620487
6.17242	0.580535
6.16508	0.655847
6.15776	0.642299
6.15045	0.643435
6.14317	0.655468
6.1359	0.571167
6.12864	0.675529
6.12141	0.687337
6.11419	0.599334
6.10699	0.672745
6.0998	0.742696
6.09263	0.76515
6.08549	0.737672
6.07835	0.786662
6.07123	0.820538
6.06413	0.876593
6.05705	0.939797
6.04998	1.03406
6.04293	1.05302
6.0359	0.972378
6.02888	0.937972
6.02187	1.04118
6.01489	1.19013
6.00792	1.22967
6.00096	1.25603
5.99403	1.28926
5.98711	1.33369
5.9802	1.35837
5.97331	1.34839
5.96644	1.39675
5.95958	1.40884
5.95274	1.50042
5.94591	1.64528
5.9391	1.80884
5.9323	1.7856
5.92552	1.74705
5.91876	1.78707
5.91201	1.87326
5.90528	1.99775
5.89856	2.12938
5.89186	2.1759
5.88517	2.27422
5.8785	2.29559
5.87184	2.28443
5.8652	2.29061
5.85857	2.22728
5.85196	2.25782
5.84536	2.33949
5.83878	2.3731
5.83221	2.40868
5.82566	2.50731
5.81912	2.59798
5.81259	2.61745
5.80608	2.63074
5.79959	2.6243
5.79311	2.64215
5.78665	2.74687
5.78019	2.92787
5.77376	3.00653
5.76734	3.03784
5.76093	3.03357
5.75453	3.04421
5.74815	3.19735
5.74179	3.2418
5.73543	3.27835
5.7291	3.33672
5.72277	3.35444
5.71646	3.40297
5.71017	3.44578
5.70389	3.3504
5.69762	3.3594
5.69136	3.41537
5.68513	3.3795
5.6789	3.38613
5.67268	3.4108
5.66648	3.47252
5.6603	3.42112
5.65413	3.42249
5.64797	3.52963
5.64182	3.61071
5.63569	3.53678
5.62957	3.50594
5.62347	3.45244
5.61737	3.39033
5.61129	3.29322
5.60522	3.15505
5.59917	2.876
5.59313	2.51269
5.5871	2.26815
5.58109	2.06906
5.57509	1.80563
5.5691	1.67645
5.56312	1.61856
5.55716	1.57499
5.55121	1.57024
5.54528	1.58843
5.53935	1.59366
5.53344	1.50512
5.52754	1.43973
5.52166	1.51781
5.51578	1.63819
5.50992	1.97092
5.50407	2.67471
5.49823	3.60113
5.49241	4.64392
5.4866	5.87638
5.4808	7.171
5.47501	8.43044
5.46923	9.62212
5.46347	10.7621
5.45772	11.8188
5.45198	12.7866
5.44625	13.6679
5.44054	14.596
5.43484	15.5225
5.42914	16.4132
5.42347	17.359
5.4178	18.0462
5.41214	18.617
5.4065	19.3011
5.40087	19.9238
5.39525	20.4307
5.38964	20.9556
5.38404	21.4079
5.37846	21.8586
5.37288	22.3605
5.36732	22.833
5.36177	23.3009
5.35623	23.8635
5.35071	24.4252
5.34519	24.7594
5.33968	25.0891
5.33419	25.6311
5.32871	26.1368
5.32324	26.523
5.31778	26.893
5.31233	27.2803
5.30689	27.714
5.30147	28.1321
5.29605	28.5756
5.29065	29.0049
5.28525	29.4073
5.27987	29.8369
5.2745	30.2802
5.26914	30.7665
5.26379	31.2426
5.25845	31.7796
5.25312	32.3017
5.24781	32.825
5.2425	33.4074
5.23721	34.0038
5.23192	34.498
5.22665	35.003
5.22138	35.5223
5.21613	36.1583
5.21089	36.495
5.20566	36.6463
5.20044	36.8364
5.19522	36.9241
5.19002	37.0193
5.18483	37.1519
5.17965	37.2547
5.17448	37.2582
5.16933	37.259
5.16418	37.2187
5.15904	36.9985
5.15391	36.5051
5.14879	35.6175
5.14368	33.5801
5.13859	30.3315
5.1335	27.5964
5.12842	27.345
5.12335	29.0529
5.1183	31.2982
5.11325	33.3522
5.10821	34.866
5.10318	35.8356
5.09817	36.4629
5.09316	36.769
5.08816	36.8972
5.08317	37.0153
5.07819	37.0701
5.07322	37.0495
5.06826	37.0318
5.06331	37.0666
5.05837	37.1151
5.05344	37.1998
5.04852	37.2387
5.04361	37.2491
5.03871	37.2276
5.03382	37.2326
5.02894	37.2426
5.02406	37.2555
5.0192	37.2321
5.01435	37.2148
5.0095	37.2072
5.00467	37.1974
4.99984	37.288
4.99502	37.3869
4.99021	37.567
4.98542	37.8017
4.98063	38.0095
4.97585	38.2871
4.97108	38.6305
4.96632	39.0707
4.96156	39.4358
4.95682	39.7147
4.95209	39.9551
4.94736	40.1702
4.94264	40.4119
4.93794	40.5897
4.93324	40.6855
4.92855	40.8083
4.92387	40.9972
4.9192	41.3698
4.91453	41.7621
4.90988	42.2021
4.90524	42.6968
4.9006	43.2663
4.89597	43.7996
4.89135	44.2905
4.88674	44.7406
4.88214	45.1307
4.87755	45.4431
4.87296	45.6738
4.86839	45.8856
4.86382	46.1327
4.85926	46.3615
4.85471	46.5434
4.85017	46.631
4.84564	46.764
4.84111	46.9073
4.8366	47.0175
4.83209	47.1142
4.82759	47.1904
4.8231	47.2096
4.81862	47.2007
4.81415	47.1992
4.80968	47.2756
4.80522	47.2489
4.80077	47.0635
4.79633	46.8737
4.7919	46.6817
4.78747	46.354
4.78306	45.9614
4.77865	45.5628
4.77425	45.0396
4.76986	44.3412
4.76547	43.6789
4.7611	43.0748
4.75673	42.3771
4.75237	41.4777
4.74802	40.4225
4.74367	39.1462
4.73934	37.4378
4.73501	35.067
4.73069	31.9447
4.72638	28.5029
4.72207	25.5595
4.71777	23.4446
4.71348	22.093
4.7092	21.1237
4.70493	20.3442
4.70066	19.7972
4.69641	19.4602
4.69216	19.2766
4.68791	19.143
4.68368	19.1464
4.67945	19.3012
4.67523	19.6188
4.67102	20.1168
4.66682	20.7298
4.66262	21.395
4.65843	22.2059
4.65425	23.1357
4.65007	24.1365
4.64591	25.2949
4.64175	26.516
4.6376	27.6326
4.63345	28.6564
4.62932	29.4942
4.62519	30.1355
4.62106	30.7802
4.61695	31.3804
4.61284	31.9899
4.60874	32.6123
4.60465	33.2372
4.60056	33.8166
4.59648	34.2252
4.59241	34.5979
4.58835	34.922
4.58429	35.0979
4.58024	35.2357
4.5762	35.419
4.57216	35.5512
4.56814	35.6535
4.56411	35.7627
4.5601	35.7264
4.55609	35.686
4.55209	35.7141
4.5481	35.7379
4.54411	35.7184
4.54013	35.6943
4.53616	35.6346
4.5322	35.5399
4.52824	35.4013
4.52429	35.2651
4.52034	35.2016
4.51641	35.156
4.51247	35.0093
4.50855	34.9596
4.50463	34.909
4.50072	34.7565
4.49682	34.6847
4.49292	34.7822
4.48903	34.9291
4.48515	35.1201
4.48127	35.3634
4.4774	35.5903
4.47354	35.8929
4.46968	36.3608
4.46584	36.8672
4.46199	37.4009
4.45815	38.0446
4.45432	38.665
4.4505	39.2659
4.44668	39.8526
4.44287	40.3965
4.43907	40.9324
4.43527	41.4687
4.43148	42.0677
4.4277	42.6523
4.42392	43.1367
4.42015	43.4637
4.41638	43.4829
4.41262	43.1852
4.40887	42.7365
4.40513	42.2407
4.40139	41.823
4.39765	41.4967
4.39393	41.3464
4.39021	41.3837
4.38649	41.5278
4.38278	41.6381
4.37908	41.7157
4.37539	41.8703
4.3717	42.0065
4.36801	42.102
4.36434	42.2925
4.36067	42.5133
4.357	42.8494
4.35335	43.224
4.34969	43.547
4.34605	43.8121
4.34241	44.0981
4.33877	44.4115
4.33514	44.6914
4.33152	44.908
4.32791	44.9757
4.3243	44.9218
4.32069	44.8702
4.3171	44.8322
4.31351	44.8079
4.30992	44.7361
4.30634	44.5308
4.30277	44.2782
4.2992	44.0584
4.29564	43.8801
4.29208	43.6955
4.28853	43.429
4.28499	43.0522
4.28145	42.6446
4.27792	42.086
4.27439	40.9723
4.27087	39.5591
4.26735	38.8727
4.26384	39.5133
4.26034	40.5894
4.25684	41.3882
4.25335	41.9726
4.24986	42.2724
4.24638	42.392
4.24291	42.3748
4.23944	42.2399
4.23598	42.0969
4.23252	41.9378
4.22906	41.7616
4.22562	41.6185
4.22218	41.469
4.21874	41.2216
4.21531	40.9615
4.21189	40.7204
4.20847	40.4356
4.20506	40.1181
4.20165	39.8576
4.19825	39.5966
4.19485	39.2804
4.19146	38.9394
4.18807	38.6351
4.18469	38.387
4.18132	38.1091
4.17795	37.7362
4.17458	37.3825
4.17123	37.1
4.16787	36.8373
4.16453	36.6047
4.16118	36.3606
4.15785	36.0029
4.15451	35.5969
4.15119	35.0831
4.14787	34.5525
4.14455	34.0187
4.14124	33.4098
4.13794	32.8407
4.13464	32.2652
4.13134	31.6515
4.12805	30.9966
4.12477	30.2869
4.12149	29.5341
4.11822	28.8521
4.11495	28.1493
4.11168	27.2797
4.10843	26.4115
4.10517	25.6024
4.10192	24.7824
4.09868	23.94
4.09545	23.0087
4.09221	22.0629
4.08899	21.0674
4.08576	20.024
4.08255	18.9985
4.07933	17.8148
4.07613	16.5127
4.07292	15.2741
4.06973	14.1212
4.06654	12.8225
4.06335	11.4563
4.06017	10.2814
4.05699	9.36166
4.05382	8.68086
4.05065	8.09452
4.04749	7.41371
4.04433	6.78449
4.04118	6.31561
4.03803	5.77067
4.03489	5.04787
4.03175	4.42858
4.02862	3.94877
4.02549	3.63958
4.02237	3.46278
4.01925	3.26168
4.01614	3.21065
4.01303	3.11906
4.00993	3.06929
4.00683	3.14531
4.00373	3.17096
4.00064	3.18515
3.99756	3.21846
3.99448	3.28784
3.9914	3.30658
3.98833	3.31312
3.98527	3.34605
3.98221	3.37047
3.97915	3.47297
3.9761	3.58135
3.97305	3.56331
3.97001	3.51001
3.96697	3.66244
3.96394	3.98375
3.96091	4.28933
3.95789	4.50446
3.95487	4.69743
3.95186	4.90072
3.94885	5.09653
3.94584	5.22011
3.94284	5.29221
3.93984	5.33986
3.93685	5.2623
3.93386	5.24748
3.93088	5.36617
3.9279	5.43601
3.92493	5.47138
3.92196	5.52494
3.919	5.61113
3.91604	5.65597
3.91308	5.71143
3.91013	5.72714
3.90718	5.69721
3.90424	5.71826
3.9013	5.74498
3.89837	5.78229
3.89544	5.8444
3.89252	5.85474
3.8896	5.8823
3.88668	5.98351
3.88377	6.15666
3.88086	6.25342
3.87796	6.2777
3.87506	6.24911
3.87217	6.09464
3.86928	6.03008
3.86639	6.15452
3.86351	6.17663
3.86064	6.14456
3.85776	6.28053
3.8549	6.40306
3.85203	6.47385
3.84917	6.57147
3.84631	6.67936
3.84346	6.8057
3.84062	7.10965
3.83777	7.44662
3.83494	7.83898
3.8321	8.35475
3.82927	8.93665
3.82644	9.3875
3.82362	9.91263
3.82081	10.5115
3.81799	11.1132
3.81518	11.738
3.81238	12.5164
3.80958	13.3645
3.80678	14.3511
3.80399	15.4118
3.8012	16.6585
3.79841	17.964
3.79563	19.5198
3.79286	21.4206
3.79008	23.5685
3.78731	25.9355
3.78455	28.2484
3.78179	30.167
3.77903	31.8222
3.77628	33.2775
3.77353	34.3049
3.77079	34.9336
3.76805	35.4017
3.76531	35.7333
3.76258	36.0018
3.75985	36.2449
3.75713	36.4728
3.7544	36.7148
3.75169	37.0727
3.74898	37.3655
3.74627	37.6294
3.74356	38.0516
3.74086	38.3811
3.73816	38.7431
3.73547	39.2698
3.73278	39.6959
3.7301	40.1114
3.72741	40.389
3.72474	40.6245
3.72206	40.961
3.71939	41.2348
3.71673	41.4719
3.71406	41.7743
3.71141	42.0606
3.70875	42.2597
3.7061	42.404
3.70345	42.5034
3.70081	42.6227
3.69817	42.8331
3.69553	43.0732
3.6929	43.288
3.69027	43.3455
3.68765	43.4429
3.68503	43.585
3.68241	43.7169
3.6798	43.8355
3.67719	44.0079
3.67458	44.2291
3.67198	44.381
3.66938	44.4105
3.66678	44.4704
3.66419	44.6461
3.66161	44.8586
3.65902	45.0038
3.65644	45.0408
3.65387	45.0507
3.65129	45.1845
3.64872	45.2895
3.64616	45.191
3.64359	45.0974
3.64103	45.0763
3.63848	44.9881
3.63593	44.8104
3.63338	44.5018
3.63084	43.9885
3.6283	43.4525
3.62576	42.8753
3.62322	42.1782
3.62069	41.3537
3.61817	40.2055
3.61564	38.7807
3.61312	36.9392
3.61061	34.6222
3.6081	32.2248
3.60559	30.5322
3.60308	30.1263
3.60058	30.8503
3.59808	31.9542
3.59558	32.8041
3.59309	33.2088
3.59061	33.0943
3.58812	32.4357
3.58564	31.3323
3.58316	30.0907
3.58069	28.5411
3.57822	26.6575
3.57575	24.5929
3.57328	22.3519
3.57082	19.9392
3.56836	17.4063
3.56591	14.8451
3.56346	12.518
3.56101	10.7167
3.55857	9.43723
3.55613	8.4709
3.55369	7.75443
3.55126	7.25145
3.54883	6.86117
3.5464	6.51016
3.54397	6.28091
3.54155	6.11533
3.53914	6.00194
3.53672	5.89719
3.53431	5.65221
3.5319	5.40494
3.5295	5.36283
3.5271	5.2259
3.5247	4.9871
3.52231	4.8036
3.51991	4.73718
3.51753	4.72444
3.51514	4.61277
3.51276	4.52883
3.51038	4.50001
3.50801	4.51418
3.50563	4.53253
3.50327	4.52181
3.5009	4.63754
3.49854	4.83363
3.49618	4.98622
3.49382	5.19548
3.49147	5.4768
3.48912	5.65961
3.48677	5.90316
3.48443	6.21084
3.48209	6.37798
3.47975	6.55677
3.47742	6.71729
3.47509	6.79656
3.47276	6.75737
3.47044	6.76014
3.46812	6.81562
3.4658	6.90718
3.46348	7.00456
3.46117	7.11335
3.45886	7.28898
3.45656	7.34155
3.45425	7.30596
3.45195	7.34825
3.44966	7.4027
3.44736	7.46458
3.44507	7.40287
3.44279	7.44962
3.4405	7.53811
3.43822	7.57544
3.43594	7.60809
3.43367	7.56351
3.43139	7.55075
3.42912	7.60054
3.42686	7.64112
3.42459	7.65215
3.42233	7.56126
3.42007	7.44628
3.41782	7.32076
3.41557	7.28129
3.41332	7.27319
3.41108	7.25044
3.40883	7.22731
3.40659	7.11776
3.40435	7.06738
3.40212	7.07853
3.39989	7.06535
3.39766	7.01631
3.39544	7.03081
3.39322	7.08826
3.391	7.15972
3.38878	7.0817
3.38657	7.15867
3.38436	7.18802
3.38215	7.11121
3.37994	7.05292
3.37774	7.0473
3.37554	7.04607
3.37335	7.03594
3.37115	6.89465
3.36896	6.72954
3.36678	6.44599
3.36459	6.25407
3.36241	6.16794
3.36023	6.14982
3.35805	6.11298
3.35588	5.98961
3.35371	6.02856
3.35154	6.11794
3.34938	6.12538
3.34721	6.37545
3.34505	7.10691
3.3429	8.24968
3.34074	9.84266
3.33859	11.8392
3.33644	13.9965
3.3343	15.9455
3.33215	17.7421
3.33001	19.3147
3.32788	20.6617
3.32574	21.7991
3.32361	22.7645
3.32148	23.7892
3.31936	24.6633
3.31723	25.3031
3.31511	25.9575
3.31299	26.5453
3.31088	27.0238
3.30876	27.405
3.30665	27.8373
3.30455	28.3755
3.30244	28.6977
3.30034	28.9669
3.29824	29.3469
3.29614	29.5506
3.29405	29.7158
3.29196	29.8752
3.28987	30.0577
3.28778	30.3732
3.2857	30.5968
3.28362	30.7463
3.28154	30.9257
3.27946	31.0971
3.27739	31.2254
3.27532	31.3087
3.27325	31.3772
3.27119	31.3862
3.26913	31.5035
3.26707	31.6869
3.26501	31.8038
3.26295	31.816
3.2609	31.9348
3.25885	32.1619
3.2568	32.2446
3.25476	32.2948
3.25272	32.4041
3.25068	32.4637
3.24864	32.5254
3.24661	32.617
3.24458	32.6765
3.24255	32.6376
3.24052	32.6313
3.2385	32.7163
3.23648	32.7357
3.23446	32.7063
3.23244	32.7327
3.23043	32.8001
3.22841	32.7611
3.2264	32.6957
3.2244	32.6891
3.22239	32.6938
3.22039	32.6173
3.21839	32.5054
3.2164	32.427
3.2144	32.3367
3.21241	32.2437
3.21042	32.1065
3.20844	31.9107
3.20645	31.6
3.20447	31.3231
3.20249	30.9675
3.20051	30.5836
3.19854	30.2073
3.19657	29.791
3.1946	29.3965
3.19263	29.0896
3.19067	28.9042
3.1887	28.8588
3.18674	28.8303
3.18479	28.8307
3.18283	28.7283
3.18088	28.5328
3.17893	28.4768
3.17698	28.4987
3.17504	28.5673
3.17309	28.5284
3.17115	28.4379
3.16921	28.3934
3.16728	28.4322
3.16534	28.4762
3.16341	28.4293
3.16148	28.3557
3.15956	28.2847
3.15763	28.2506
3.15571	28.206
3.15379	28.0242
3.15187	27.8882
3.14996	27.7743
3.14805	27.7284
3.14614	27.6743
3.14423	27.4856
3.14232	27.3026
3.14042	27.0688
3.13852	26.7635
3.13662	26.5748
3.13472	26.4349
3.13283	26.1165
3.13094	25.7417
3.12905	25.5059
3.12716	25.2547
3.12528	24.9167
3.12339	24.6391
3.12151	24.4156
3.11964	24.2726
3.11776	24.1791
3.11589	24.08
3.11401	24.0423
3.11214	24.0883
3.11028	24.1386
3.10841	24.1436
3.10655	24.1733
3.10469	24.1677
3.10283	24.1455
3.10098	24.212
3.09912	24.2648
3.09727	24.3445
3.09542	24.4327
3.09358	24.402
3.09173	24.3878
3.08989	24.3495
3.08805	24.4273
3.08621	24.5936
3.08437	24.7275
3.08254	24.7735
3.08071	24.6193
3.07888	24.6086
3.07705	24.7441
3.07523	24.8259
3.0734	24.8647
3.07158	24.8375
3.06977	24.8462
3.06795	24.7909
3.06613	24.7467
3.06432	24.7167
3.06251	24.729
3.0607	24.7233
3.0589	24.7849
3.0571	24.8938
3.05529	24.7861
3.05349	24.7782
3.0517	24.7463
3.0499	24.6753
3.04811	24.7212
3.04632	24.6857
3.04453	24.6079
3.04274	24.5902
3.04096	24.6823
3.03918	24.7305
3.0374	24.6727
3.03562	24.504
3.03384	24.4078
3.03207	24.5222
3.03029	24.5452
3.02852	24.3201
3.02676	24.2716
3.02499	24.336
3.02323	24.3127
3.02146	24.1859
3.0197	24.1398
3.01795	24.1118
3.01619	24.0528
3.01444	24.0819
3.01269	24.0866
3.01094	23.9914
3.00919	23.9955
3.00744	24.0719
3.0057	24.0038
3.00396	23.9688
3.00222	23.8961
3.00048	23.9217
2.99875	24.0719
2.99701	23.9981
2.99528	23.8718
2.99355	23.7118
2.99183	23.8122
2.9901	23.8294
2.98838	23.7263
2.98666	23.715
2.98494	23.6775
2.98322	23.6327
2.9815	23.6226
2.97979	23.5237
2.97808	23.3565
2.97637	23.2893
2.97466	23.2281
2.97295	23.131
2.97125	23.1281
2.96955	23.0501
2.96785	22.9662
2.96615	22.9366
2.96446	22.8654
2.96276	22.7258
2.96107	22.5933
2.95938	22.6399
2.95769	22.7065
2.95601	22.7171
2.95432	22.6978
2.95264	22.6752
2.95096	22.727
2.94928	22.8339
2.9476	22.8626
2.94593	22.8836
2.94425	22.868
2.94258	22.9375
2.94092	23.1034
2.93925	23.1151
2.93758	23.1582
2.93592	23.2805
2.93426	23.3099
2.9326	23.2562
2.93094	23.3456
2.92928	23.4859
2.92763	23.4549
2.92598	23.3025
2.92433	23.32
2.92268	23.3959
2.92103	23.4723
2.91939	23.5539
2.91775	23.4881
2.9161	23.6026
2.91447	23.8413
2.91283	23.8418
2.91119	23.7848
2.90956	23.9364
2.90793	24.0924
2.9063	24.1275
2.90467	24.3687
2.90304	24.5399
2.90142	24.5346
2.89979	24.5176
2.89817	24.4866
2.89656	24.5088
2.89494	24.6119
2.89332	24.6481
2.89171	24.719
2.8901	24.8927
2.88849	24.9774
2.88688	25.0513
2.88527	25.0453
2.88367	25.0203
2.88206	25.0776
2.88046	25.1065
2.87886	25.2573
2.87727	25.4177
2.87567	25.4095
2.87408	25.5796
2.87248	25.8425
2.87089	25.8439
2.8693	25.9405
2.86772	26.1939
2.86613	26.3977
2.86455	26.4244
2.86297	26.4772
2.86139	26.7075
2.85981	26.7838
2.85823	26.8156
2.85666	27.055
2.85508	27.1827
2.85351	27.1856
2.85194	27.2535
2.85038	27.379
2.84881	27.4884
2.84724	27.5468
2.84568	27.5682
2.84412	27.5325
2.84256	27.5336
2.841	27.6257
2.83945	27.7746
2.83789	27.9163
2.83634	27.9363
2.83479	28.0029
2.83324	28.0063
2.83169	27.9756
2.83015	27.9762
2.82861	28.0985
2.82706	28.2252
2.82552	28.2403
2.82398	28.3199
2.82245	28.365
2.82091	28.4344
2.81938	28.521
2.81784	28.3825
2.81631	28.3348
2.81479	28.3997
2.81326	28.2186
2.81173	27.9415
2.81021	27.7095
2.80869	27.3856
2.80716	27.0116
2.80565	26.6995
2.80413	26.6247
2.80261	26.8728
2.8011	26.9565
2.79959	27.2262
2.79808	27.7675
2.79657	28.2913
2.79506	28.8481
2.79355	29.3484
2.79205	29.7125
2.79055	30.1075
2.78904	30.7654
2.78754	31.4062
2.78605	31.6049
2.78455	31.7124
2.78306	32.1235
2.78156	32.566
2.78007	32.8496
2.77858	33.1586
2.77709	33.5898
2.77561	33.979
2.77412	34.3961
2.77264	35.0465
2.77116	35.6795
2.76968	35.9935
2.7682	36.3783
2.76672	36.566
2.76524	36.7481
2.76377	37.3517
2.7623	37.7988
2.76083	37.8871
2.75936	37.9489
2.75789	38.3662
2.75642	39.4148
2.75496	40.1031
2.7535	39.6754
2.75203	39.7668
2.75057	40.1484
2.74912	40.6941
2.74766	41.2478
2.7462	41.6772
2.74475	42.0719
2.7433	42.648
2.74185	43.6709
2.7404	44.9295
2.73895	45.486
2.7375	45.3242
2.73606	45.8301
2.73462	46.6694
2.73318	46.9822
2.73174	47.5887
2.7303	48.2724
2.72886	49.0099
2.72742	49.9146
2.72599	51.2381
2.72456	52.6232
2.72313	52.9688
2.7217	54.0181
2.72027	55.4779
2.71884	55.4067
2.71742	55.5586
2.71599	56.1452
2.71457	57.0277
2.71315	58.0983
2.71173	59.8075
2.71032	60.799
2.7089	60.8525
2.70748	61.0529
2.70607	61.6155
2.70466	62.3569
2.70325	63.1147
2.70184	63.9991
2.70043	64.6885
2.69903	65.1238
2.69762	65.7512
2.69622	66.6519
2.69482	67.6508
2.69342	68.1959
2.69202	67.9301
2.69062	68.0384
2.68923	68.6231
2.68783	69.1431
2.68644	69.603
2.68505	69.9949
2.68366	70.4428
2.68227	70.5576
2.68089	70.8589
2.6795	71.7077
2.67812	72.1274
2.67673	72.6215
2.67535	72.2198
2.67397	71.6997
2.6726	72.03
2.67122	73.7612
2.66984	74.1644
2.66847	73.2674
2.6671	74.1193
2.66572	74.4336
2.66435	73.7505
2.66299	72.906
2.66162	73.0088
2.66025	73.309
2.65889	73.3217
2.65753	73.033
2.65616	73.4383
2.65481	73.5819
2.65345	73.7424
2.65209	73.8459
2.65073	73.5623
2.64938	73.4934
2.64803	73.5947
2.64667	73.9258
2.64532	74.0683
2.64397	73.8335
2.64263	74.0344
2.64128	74.0502
2.63994	73.9754
2.63859	73.9174
2.63725	73.9744
2.63591	74.1506
2.63457	74.6371
2.63323	74.6511
2.6319	74.9781
2.63056	75.7621
2.62923	75.1104
2.62789	74.8201
2.62656	75.304
2.62523	74.7193
2.6239	74.313
2.62258	74.4181
2.62125	75.3216
2.61993	75.5024
2.6186	74.9926
2.61728	75.5032
2.61596	75.0502
2.61464	74.1857
2.61332	74.1076
2.61201	73.858
2.61069	73.8444
2.60938	73.887
2.60807	73.7344
2.60675	73.9522
2.60544	74.111
2.60414	73.2753
2.60283	72.4269
2.60152	71.8479
2.60022	71.3925
2.59891	71.0865
2.59761	71.2861
2.59631	72.3598
2.59501	73.6204
2.59371	72.2124
2.59242	70.4573
2.59112	69.888
2.58983	69.8275
2.58853	69.6529
2.58724	69.1508
2.58595	68.0855
2.58466	67.7359
2.58338	66.8634
2.58209	65.2304
2.5808	64.0121
2.57952	62.4283
2.57824	61.1792
2.57695	59.9438
2.57567	58.0888
2.5744	56.672
2.57312	55.2961
2.57184	53.405
2.57057	52.2147
2.56929	51.1108
2.56802	49.7067
2.56675	48.5878
2.56548	47.8867
2.56421	47.463
2.56294	46.7809
2.56168	46.1076
2.56041	45.3622
2.55915	44.4951
2.55789	44.0177
2.55662	43.8898
2.55536	43.7666
2.5541	43.7871
2.55285	43.9131
2.55159	43.9875
2.55034	44.0937
2.54908	44.3567
2.54783	44.7975
2.54658	45.1229
2.54533	45.5188
2.54408	46.1926
2.54283	46.8196
2.54159	47.1767
2.54034	47.514
2.5391	47.8717
2.53785	48.2369
2.53661	48.6229
2.53537	48.8769
2.53413	49.2347
2.53289	49.6221
2.53166	49.995
2.53042	50.2639
2.52919	50.3531
2.52795	50.5349
2.52672	50.8216
2.52549	51.097
2.52426	51.3065
2.52303	51.419
2.52181	51.5729
2.52058	51.7217
2.51936	51.8182
2.51813	51.9426
2.51691	52.1333
2.51569	52.3054
2.51447	52.3749
2.51325	52.4473
2.51203	52.5998
2.51082	52.7467
2.5096	52.9201
2.50839	53.0515
2.50717	53.0992
2.50596	53.1889
2.50475	53.4369
2.50354	53.6343
2.50233	53.7207
2.50113	53.9202
2.49992	54.19
2.49872	54.3629
2.49751	54.5959
2.49631	54.8616
2.49511	55.1269
2.49391	55.4596
2.49271	55.7756
2.49151	56.0094
2.49031	56.3435
2.48912	56.7536
2.48792	57.163
2.48673	57.5716
2.48554	57.8901
2.48435	58.3234
2.48316	58.8667
2.48197	59.4456
2.48078	59.938
2.4796	60.3548
2.47841	60.8337
2.47723	61.4307
2.47604	61.9764
2.47486	62.4042
2.47368	62.8735
2.4725	63.488
2.47132	63.8697
2.47014	64.1555
2.46897	64.5384
2.46779	64.8581
2.46662	65.2757
2.46545	65.7293
2.46427	66.0657
2.4631	66.3207
2.46193	66.6236
2.46077	66.9493
2.4596	67.2227
2.45843	67.4062
2.45727	67.6645
2.4561	68.1341
2.45494	68.4973
2.45378	68.7064
2.45262	68.9429
2.45146	69.1835
2.4503	69.3901
2.44914	69.5803
2.44799	69.9157
2.44683	70.1957
2.44568	70.3704
2.44452	70.6137
2.44337	70.7516
2.44222	70.9726
2.44107	71.3385
2.43992	71.5695
2.43877	71.7874
2.43763	71.8711
2.43648	72.0277
2.43534	72.1781
2.43419	72.2352
2.43305	72.3976
2.43191	72.4813
2.43077	72.5659
2.42963	72.7389
2.42849	72.9636
2.42736	73.0904
2.42622	73.12
2.42509	73.0569
2.42395	73.1873
2.42282	73.3749
2.42169	73.4227
2.42056	73.5481
2.41943	73.8286
2.4183	74.03
2.41717	74.2558
2.41605	74.5379
2.41492	74.7017
2.4138	74.8471
2.41267	74.9359
2.41155	75.0082
2.41043	75.1446
2.40931	75.2011
2.40819	75.3628
2.40707	75.6808
2.40595	75.6389
2.40484	75.5065
2.40372	75.5496
2.40261	75.5023
2.4015	75.4486
2.40039	75.4144
2.39928	75.4065
2.39817	75.3732
2.39706	75.2516
2.39595	75.0865
2.39484	74.8758
2.39374	74.6478
2.39263	74.4244
2.39153	74.105
2.39043	73.6993
2.38932	73.216
2.38822	72.6222
2.38712	71.9493
2.38603	71.0415
2.38493	70.126
2.38383	69.28
2.38274	68.2394
2.38164	66.9906
2.38055	65.9096
2.37946	64.9846
2.37836	64.0292
2.37727	63.105
2.37618	62.3587
2.3751	61.7255
2.37401	61.1249
2.37292	60.6859
2.37184	60.0551
2.37075	59.4717
2.36967	59.2295
2.36859	58.9891
2.3675	58.7217
2.36642	58.4463
2.36534	58.262
2.36427	58.1601
2.36319	58.077
2.36211	57.9751
2.36104	57.8971
2.35996	57.9304
2.35889	58.023
2.35781	58.1898
2.35674	58.4265
2.35567	58.5905
2.3546	58.6947
2.35353	58.831
2.35247	59.0079
2.3514	59.2878
2.35033	59.4818
2.34927	59.6231
2.3482	59.8823
2.34714	60.1467
2.34608	60.357
2.34502	60.5782
2.34396	60.8367
2.3429	60.8941
2.34184	60.9387
2.34078	61.0727
2.33973	61.2202
2.33867	61.4171
2.33762	61.5711
2.33656	61.6584
2.33551	61.808
2.33446	61.9054
2.33341	61.9492
2.33236	62.1187
2.33131	62.2764
2.33026	62.3398
2.32922	62.4194
2.32817	62.5029
2.32712	62.6384
2.32608	62.7761
2.32504	62.935
2.324	63.1893
2.32295	63.3744
2.32191	63.4332
2.32087	63.5721
2.31984	63.644
2.3188	63.6532
2.31776	63.8227
2.31673	64.0622
2.31569	64.157
2.31466	64.3723
2.31362	64.4947
2.31259	64.4945
2.31156	64.7716
2.31053	64.8983
2.3095	64.9309
2.30847	65.1989
2.30745	65.5142
2.30642	65.7978
2.3054	66.0324
2.30437	66.1478
2.30335	66.2872
2.30232	66.5235
2.3013	66.7023
2.30028	66.8978
2.29926	67.2378
2.29824	67.4529
2.29722	67.755
2.29621	68.0199
2.29519	68.231
2.29417	68.6312
2.29316	68.9484
2.29215	69.2059
2.29113	69.3174
2.29012	69.5033
2.28911	69.8764
2.2881	70.208
2.28709	70.3835
2.28608	70.5552
2.28507	70.755
2.28407	71.1208
2.28306	71.4041
2.28206	71.4579
2.28105	71.6575
2.28005	71.8459
2.27905	72.0397
2.27805	72.2456
2.27705	72.4277
2.27605	72.5947
2.27505	72.7335
2.27405	72.8535
2.27305	72.9893
2.27206	73.1168
2.27106	73.3052
2.27007	73.5834
2.26907	73.7536
2.26808	73.8546
2.26709	74.0265
2.2661	74.2174
2.26511	74.1768
2.26412	74.2545
2.26313	74.4265
2.26214	74.5886
2.26116	74.693
2.26017	74.7229
2.25919	74.7808
2.2582	75.0056
2.25722	75.1675
2.25624	75.3572
2.25526	75.4805
2.25428	75.5839
2.2533	75.7392
2.25232	75.8732
2.25134	75.9046
2.25036	76.0106
2.24939	76.1334
2.24841	76.2296
2.24744	76.2295
2.24646	76.381
2.24549	76.5681
2.24452	76.5874
2.24355	76.5808
2.24257	76.6667
2.24161	76.7852
2.24064	76.9074
2.23967	77.0563
2.2387	77.1778
2.23774	77.2993
2.23677	77.3406
2.23581	77.274
2.23484	77.3156
2.23388	77.4782
2.23292	77.6607
2.23196	77.7458
2.231	77.8372
2.23004	77.8604
2.22908	77.8277
2.22812	77.9002
2.22716	78.0302
2.22621	78.1781
2.22525	78.1888
2.2243	78.1597
2.22334	78.2164
2.22239	78.3682
2.22144	78.4247
2.22049	78.3935
2.21953	78.3785
2.21859	78.5222
2.21764	78.7897
2.21669	78.8116
2.21574	78.669
2.21479	78.6659
2.21385	78.6948
2.2129	78.764
2.21196	78.7326
2.21102	78.7569
2.21007	78.8094
2.20913	78.8848
2.20819	78.9146
2.20725	78.7797
2.20631	78.8223
2.20537	78.9407
2.20444	78.9756
2.2035	78.9179
2.20256	78.8814
2.20163	78.8715
2.20069	78.8974
2.19976	79.0171
2.19883	79.2417
2.19789	79.1924
2.19696	78.9903
2.19603	79.0119
2.1951	79.0321
2.19417	79.1006
2.19325	79.0507
2.19232	79.0022
2.19139	79.064
2.19047	79.0452
2.18954	79.1688
2.18862	79.299
2.18769	79.2981
2.18677	79.1667
2.18585	79.1163
2.18493	79.0785
2.18401	78.9775
2.18309	78.9985
2.18217	79.0109
2.18125	78.8898
2.18033	78.7499
2.17942	78.7564
2.1785	78.7611
2.17759	78.627
2.17667	78.5898
2.17576	78.6644
2.17485	78.6347
2.17393	78.3894
2.17302	78.4168
2.17211	78.546
2.1712	78.6277
2.17029	78.6741
2.16939	78.6241
2.16848	78.5601
2.16757	78.5771
2.16667	78.5937
2.16576	78.5785
2.16486	78.514
2.16395	78.4732
2.16305	78.4494
2.16215	78.4126
2.16125	78.4926
2.16035	78.5546
2.15945	78.6762
2.15855	78.8057
2.15765	78.83
2.15675	78.8048
2.15586	78.8778
2.15496	78.8752
2.15406	78.8351
2.15317	78.9684
2.15228	79.1008
2.15138	79.2412
2.15049	79.3543
2.1496	79.3465
2.14871	79.2753
2.14782	79.2597
2.14693	79.3505
2.14604	79.4682
2.14515	79.6049
2.14427	79.6066
2.14338	79.6901
2.14249	79.7332
2.14161	79.7398
2.14072	79.764
2.13984	79.9509
2.13896	79.9188
2.13808	79.9079
2.13719	79.9979
2.13631	79.9174
2.13543	79.9185
2.13455	79.869
2.13368	79.9123
2.1328	80.0658
2.13192	80.0142
2.13105	79.948
2.13017	79.9767
2.1293	79.9663
2.12842	79.9092
2.12755	80.0514
2.12668	80.1699
2.1258	79.9646
2.12493	79.9384
2.12406	80.0428
2.12319	80.1518
2.12232	80.2449
2.12145	80.1987
2.12059	80.2013
2.11972	80.1959
2.11885	80.0715
2.11799	80.0381
2.11712	80.1438
2.11626	80.2879
2.1154	80.2774
2.11453	80.1865
2.11367	80.1424
2.11281	80.0311
2.11195	80.0476
2.11109	80.1631
2.11023	80.1745
2.10937	80.2135
2.10851	80.2861
2.10766	80.2741
2.1068	80.1559
2.10594	80.2042
2.10509	80.2016
2.10423	80.2565
2.10338	80.429
2.10253	80.4454
2.10168	80.2958
2.10082	80.3823
2.09997	80.4688
2.09912	80.3023
2.09827	80.2409
2.09742	80.4339
2.09658	80.504
2.09573	80.4646
2.09488	80.4171
2.09404	80.3883
2.09319	80.4686
2.09235	80.3943
2.0915	80.4124
2.09066	80.4271
2.08982	80.2079
2.08897	80.1505
2.08813	80.4112
2.08729	80.4122
2.08645	80.264
2.08561	80.3485
2.08477	80.5721
2.08394	80.5279
2.0831	80.4675
2.08226	80.4843
2.08143	80.4195
2.08059	80.5326
2.07976	80.3624
2.07892	80.4153
2.07809	80.7353
2.07726	80.854
2.07643	80.7432
2.07559	80.2968
2.07476	79.8893
2.07393	80.0732
2.0731	80.4403
2.07228	80.358
2.07145	80.3405
2.07062	80.2431
2.06979	80.2376
2.06897	80.4489
2.06814	80.4389
2.06732	80.3158
2.06649	80.2096
2.06567	80.2522
2.06485	80.378
2.06403	80.3839
2.0632	80.4444
2.06238	80.4673
2.06156	80.4104
2.06074	80.2181
2.05993	80.0856
2.05911	80.0687
2.05829	80.1373
2.05747	80.2016
2.05666	80.1929
2.05584	80.0811
2.05503	80.0975
2.05421	80.1174
2.0534	80.1222
2.05259	80.2206
2.05177	80.3569
2.05096	80.1961
2.05015	79.8863
2.04934	80.032
2.04853	80.186
2.04772	79.9886
2.04691	80.0579
2.04611	80.1658
2.0453	79.9125
2.04449	79.8086
2.04369	79.8788
2.04288	79.879
2.04208	79.8404
2.04127	79.8791
2.04047	79.8617
2.03967	79.7428
2.03886	79.7731
2.03806	79.7756
2.03726	79.6963
2.03646	79.6623
2.03566	79.6461
2.03486	79.7028
2.03407	79.6261
2.03327	79.4605
2.03247	79.4058
2.03167	79.3532
2.03088	79.2743
2.03008	79.3258
2.02929	79.493
2.0285	79.4636
2.0277	79.2436
2.02691	79.2051
2.02612	79.118
2.02533	78.9635
2.02453	79.0141
2.02374	79.02
2.02295	78.845
2.02217	78.8442
2.02138	78.7298
2.02059	78.599
2.0198	78.5615
2.01902	78.394
2.01823	78.2141
2.01744	78.2301
2.01666	78.2686
2.01588	78.0865
2.01509	77.9369
2.01431	77.6953
2.01353	77.5182
2.01275	77.512
2.01196	77.5547
2.01118	77.5813
2.0104	77.6362
2.00963	77.6706
2.00885	77.5105
2.00807	77.3891
2.00729	77.485
2.00651	77.6891
2.00574	77.5762
2.00496	77.3248
2.00419	77.3563
2.00341	77.4846
2.00264	77.499
2.00187	77.3547
2.00109	77.3984
2.00032	77.6553
