Name: Serpentine (Mg,Fe^2+,Ni)Si_2O_5(OH)_4
Type: Mineral
Class: Silicates
Subclass: Phyllosilicates
Particle Size: 125-500um
Sample No.: PS-20A
Owner: JPL
Wavelength Range: VNIR-SWIR
Origin: USA, New York
Collected by Ward's
Description: 





Measurement: Hemispherical reflectance
First Column: X
Second Column: Y
X Units:  Wavelength (micrometers)
Y Units:  Reflectance (percent)
First X Value:   0.40
Last X Value:   2.50
Number of X Values:  826
Additional Information: ps20aa.txt

   0.400  34.5100
   0.401  34.5400
   0.402  34.4100
   0.403  34.3900
   0.404  34.2700
   0.405  34.2500
   0.406  34.1800
   0.407  34.1200
   0.408  33.9500
   0.409  33.8300
   0.410  33.7200
   0.411  33.5600
   0.412  33.5000
   0.413  33.5000
   0.414  33.4600
   0.415  33.3600
   0.416  33.3600
   0.417  33.3400
   0.418  33.3100
   0.419  33.2900
   0.420  33.0900
   0.421  32.9700
   0.422  32.8300
   0.423  32.7300
   0.424  32.5800
   0.425  32.5400
   0.426  32.5600
   0.427  32.3800
   0.428  32.1600
   0.429  32.1000
   0.430  32.0400
   0.431  32.1000
   0.432  32.0200
   0.433  31.8900
   0.434  31.9600
   0.435  31.8700
   0.436  31.9100
   0.437  31.9600
   0.438  31.9600
   0.439  32.1200
   0.440  32.2400
   0.441  32.3600
   0.442  32.6400
   0.443  32.6600
   0.444  32.8600
   0.445  32.8600
   0.446  32.9600
   0.447  33.1000
   0.448  33.1000
   0.449  33.3200
   0.450  33.3700
   0.451  33.3400
   0.452  33.4300
   0.453  33.6100
   0.454  33.7300
   0.455  33.8200
   0.456  33.8600
   0.457  34.0900
   0.458  34.1100
   0.459  34.2500
   0.460  34.4100
   0.461  35.0300
   0.462  35.4300
   0.463  35.7300
   0.464  36.3900
   0.465  36.9500
   0.466  37.4800
   0.467  37.9200
   0.468  38.5400
   0.469  39.1300
   0.470  39.7500
   0.471  40.3500
   0.472  40.7100
   0.473  41.3300
   0.474  41.7400
   0.475  42.1400
   0.476  42.5400
   0.477  42.9900
   0.478  43.4100
   0.479  43.5300
   0.480  43.7400
   0.481  44.0800
   0.482  44.2800
   0.483  44.5900
   0.484  44.7800
   0.485  44.8400
   0.486  45.0300
   0.487  45.1300
   0.488  45.2900
   0.489  45.4100
   0.490  45.5900
   0.491  45.7000
   0.492  45.8500
   0.493  45.9500
   0.494  46.1900
   0.495  46.3400
   0.496  46.4800
   0.497  46.7100
   0.498  46.8400
   0.499  47.1600
   0.500  47.2700
   0.501  47.3300
   0.502  47.5600
   0.503  47.8000
   0.504  48.0300
   0.505  48.1800
   0.506  48.2100
   0.507  48.5000
   0.508  48.6500
   0.509  48.8200
   0.510  48.9200
   0.511  49.1300
   0.512  49.4200
   0.513  49.4200
   0.514  49.6600
   0.515  49.7700
   0.516  50.0000
   0.517  50.2300
   0.518  50.4100
   0.519  50.3800
   0.520  50.6300
   0.521  50.7700
   0.522  50.9200
   0.523  51.0300
   0.524  51.0800
   0.525  51.4100
   0.526  51.3800
   0.527  51.4400
   0.528  51.4700
   0.529  51.6600
   0.530  51.8500
   0.531  51.9800
   0.532  51.9400
   0.533  52.1300
   0.534  52.3000
   0.535  52.4600
   0.536  52.5600
   0.537  52.5800
   0.538  52.8300
   0.539  52.9200
   0.540  53.0300
   0.541  53.0300
   0.542  53.2100
   0.543  53.3600
   0.544  53.3400
   0.545  53.3300
   0.546  53.5000
   0.547  53.6300
   0.548  53.8000
   0.549  53.8700
   0.550  53.8500
   0.551  54.1200
   0.552  54.1400
   0.553  54.1800
   0.554  54.2100
   0.555  54.4100
   0.556  54.4700
   0.557  54.4900
   0.558  54.4500
   0.559  54.5400
   0.560  54.5300
   0.561  55.0100
   0.562  55.1100
   0.563  55.0700
   0.564  55.0200
   0.565  55.1500
   0.566  55.1900
   0.567  55.2800
   0.568  55.2200
   0.569  55.3300
   0.570  55.3000
   0.571  55.3100
   0.572  55.3900
   0.573  55.2100
   0.574  55.3400
   0.575  55.4700
   0.576  55.3800
   0.577  55.4300
   0.578  55.4400
   0.579  55.4700
   0.580  55.5500
   0.581  55.2700
   0.582  55.4500
   0.583  55.5500
   0.584  55.5100
   0.585  55.4500
   0.586  55.4500
   0.587  55.5300
   0.588  55.5500
   0.589  55.4300
   0.590  55.6000
   0.591  55.5300
   0.592  55.5600
   0.593  55.6100
   0.594  55.4400
   0.595  55.6100
   0.596  55.5700
   0.597  55.5200
   0.598  55.3800
   0.599  55.4300
   0.600  55.4400
   0.601  55.5000
   0.602  55.4100
   0.603  55.6100
   0.604  55.5500
   0.605  55.4700
   0.606  55.4100
   0.607  55.3400
   0.608  55.4600
   0.609  55.4000
   0.610  55.2600
   0.611  55.3700
   0.612  55.2300
   0.613  55.2600
   0.614  55.2700
   0.615  55.1600
   0.616  55.3100
   0.617  55.3300
   0.618  55.0700
   0.619  54.9900
   0.620  54.9200
   0.621  54.9300
   0.622  55.1100
   0.623  54.8400
   0.624  54.9400
   0.625  54.8700
   0.626  54.7800
   0.627  54.7800
   0.628  54.5900
   0.629  54.6600
   0.630  54.6500
   0.631  54.5200
   0.632  54.6300
   0.633  54.4000
   0.634  54.3800
   0.635  54.4500
   0.636  54.1900
   0.637  54.3300
   0.638  54.4500
   0.639  54.3300
   0.640  54.1800
   0.641  54.1300
   0.642  54.1700
   0.643  54.1100
   0.644  54.0700
   0.645  54.1800
   0.646  54.0600
   0.647  53.9400
   0.648  54.0400
   0.649  53.7800
   0.650  53.9500
   0.651  53.8600
   0.652  53.7800
   0.653  53.7500
   0.654  53.6800
   0.655  53.7200
   0.656  53.7300
   0.657  53.5100
   0.658  53.4900
   0.659  53.4000
   0.660  53.3800
   0.661  53.4400
   0.662  53.1700
   0.663  53.4000
   0.664  53.3400
   0.665  53.3100
   0.666  53.1700
   0.667  53.0600
   0.668  53.1900
   0.669  53.2200
   0.670  53.1200
   0.671  53.1400
   0.672  52.9700
   0.673  53.0200
   0.674  53.0600
   0.675  52.8800
   0.676  52.9900
   0.677  52.9700
   0.678  52.8500
   0.679  52.7700
   0.680  52.7200
   0.681  52.7600
   0.682  52.8900
   0.683  52.7000
   0.684  52.7300
   0.685  52.7000
   0.686  52.6400
   0.687  52.6700
   0.688  52.5300
   0.689  52.5500
   0.690  52.7100
   0.691  52.5700
   0.692  52.5700
   0.693  52.4600
   0.694  52.5100
   0.695  52.4800
   0.696  52.3000
   0.697  52.4300
   0.698  52.2800
   0.699  52.2200
   0.700  52.1200
   0.701  52.2300
   0.702  52.1900
   0.703  52.2700
   0.704  52.1300
   0.705  52.1100
   0.706  52.0800
   0.707  52.1200
   0.708  52.1200
   0.709  52.0400
   0.710  51.9300
   0.711  52.0000
   0.712  51.9100
   0.713  51.8200
   0.714  51.8400
   0.715  51.9000
   0.716  51.8800
   0.717  51.8800
   0.718  51.6700
   0.719  51.7600
   0.720  51.6500
   0.721  51.6200
   0.722  51.4800
   0.723  51.7100
   0.724  51.7400
   0.725  51.6300
   0.726  51.6100
   0.727  51.5900
   0.728  51.5900
   0.729  51.6500
   0.730  51.5000
   0.731  51.3600
   0.732  51.4800
   0.733  51.3900
   0.734  51.3300
   0.735  51.2900
   0.736  51.4400
   0.737  51.5100
   0.738  51.4100
   0.739  51.2400
   0.740  51.4000
   0.741  51.3200
   0.742  51.3900
   0.743  51.2700
   0.744  51.5200
   0.745  51.5400
   0.746  51.4300
   0.747  51.4000
   0.748  51.3400
   0.749  51.4000
   0.750  51.5800
   0.751  51.5600
   0.752  51.4500
   0.753  51.5600
   0.754  51.5500
   0.755  51.5200
   0.756  51.4700
   0.757  51.6400
   0.758  51.6700
   0.759  51.6100
   0.760  51.6500
   0.761  51.7000
   0.762  51.7100
   0.763  51.7400
   0.764  51.6600
   0.765  51.5800
   0.766  51.7500
   0.767  51.6500
   0.768  51.7100
   0.769  51.5700
   0.770  51.8100
   0.771  51.9200
   0.772  51.8800
   0.773  51.8900
   0.774  52.0100
   0.775  52.0900
   0.776  52.2200
   0.777  52.1700
   0.778  52.2000
   0.779  52.2100
   0.780  52.2800
   0.781  52.3000
   0.782  52.2500
   0.783  52.4100
   0.784  52.4400
   0.785  52.3200
   0.786  52.2700
   0.787  52.4000
   0.788  52.4800
   0.789  52.4800
   0.790  52.4100
   0.791  52.6200
   0.792  52.6000
   0.793  52.6200
   0.794  52.5100
   0.795  52.5700
   0.796  52.5900
   0.797  52.7700
   0.798  52.7500
   0.799  52.6600
   0.800  53.2600
   0.804  53.2000
   0.808  53.3400
   0.812  53.3800
   0.816  53.4300
   0.820  53.4200
   0.824  53.3300
   0.828  53.3300
   0.832  53.3300
   0.836  53.2500
   0.840  53.1000
   0.844  53.1200
   0.848  53.0800
   0.852  52.9600
   0.856  52.8700
   0.860  52.7600
   0.864  52.7700
   0.868  52.6500
   0.872  52.5500
   0.876  52.4700
   0.880  52.4300
   0.884  52.2700
   0.888  52.3100
   0.892  52.2200
   0.896  52.2100
   0.900  52.1800
   0.904  52.2500
   0.908  52.2200
   0.912  52.2700
   0.916  52.3200
   0.920  52.2800
   0.924  52.2500
   0.928  52.0100
   0.932  51.0900
   0.936  49.8800
   0.940  49.3300
   0.944  49.6100
   0.948  50.4700
   0.952  51.6400
   0.956  52.6200
   0.960  53.0700
   0.964  53.4500
   0.968  53.6400
   0.972  53.7200
   0.976  53.8300
   0.980  53.9100
   0.984  54.0800
   0.988  54.1500
   0.992  54.3200
   0.996  54.3400
   1.000  54.4400
   1.004  54.5200
   1.008  54.5900
   1.012  54.6200
   1.016  54.6700
   1.020  54.7300
   1.024  54.7900
   1.028  54.7400
   1.032  54.8200
   1.036  54.8900
   1.040  55.0000
   1.044  54.9000
   1.048  54.9700
   1.052  54.8800
   1.056  54.9700
   1.060  55.0000
   1.064  55.0500
   1.068  55.0200
   1.072  55.0700
   1.076  55.0500
   1.080  55.0700
   1.084  55.1300
   1.088  55.1100
   1.092  55.0800
   1.096  55.1100
   1.100  55.2600
   1.104  55.2600
   1.108  55.2600
   1.112  55.2500
   1.116  55.3700
   1.120  55.4500
   1.124  55.4700
   1.128  55.5000
   1.132  55.4300
   1.136  55.4600
   1.140  55.5000
   1.144  55.4900
   1.148  55.5400
   1.152  55.5000
   1.156  55.5500
   1.160  55.7100
   1.164  55.6800
   1.168  55.7800
   1.172  55.8000
   1.176  55.9200
   1.180  56.1500
   1.184  56.2700
   1.188  56.4900
   1.192  56.5900
   1.196  56.7500
   1.200  56.8600
   1.204  57.0200
   1.208  57.1200
   1.212  57.2100
   1.216  57.3600
   1.220  57.5200
   1.224  57.5400
   1.228  57.6800
   1.232  57.7600
   1.236  57.9100
   1.240  57.9500
   1.244  57.7500
   1.248  57.2100
   1.252  56.6800
   1.256  56.2500
   1.260  56.1100
   1.264  55.7900
   1.268  54.7600
   1.272  53.9600
   1.276  52.8900
   1.280  52.9100
   1.284  55.3300
   1.288  56.9400
   1.292  57.6500
   1.296  57.7200
   1.300  57.9000
   1.304  58.2400
   1.308  58.6200
   1.312  58.9100
   1.316  59.0600
   1.320  59.0300
   1.324  58.9100
   1.328  58.8000
   1.332  58.5900
   1.336  58.0000
   1.340  56.3600
   1.344  51.7800
   1.348  46.2400
   1.352  44.3900
   1.356  46.6100
   1.360  49.5700
   1.364  50.0700
   1.368  45.4400
   1.372  33.3800
   1.376  21.1500
   1.380  17.1100
   1.384  16.1300
   1.388  18.1100
   1.392  25.0900
   1.396  32.6800
   1.400  38.5100
   1.404  43.6300
   1.408  47.4000
   1.412  49.1800
   1.416  50.1000
   1.420  50.9500
   1.424  51.8700
   1.428  52.6700
   1.432  53.3100
   1.436  53.8700
   1.440  54.3200
   1.444  54.6800
   1.448  54.9500
   1.452  55.2100
   1.456  55.5100
   1.460  55.7100
   1.464  56.0400
   1.468  56.4300
   1.472  56.7400
   1.476  57.0600
   1.480  57.4200
   1.484  57.7100
   1.488  58.0900
   1.492  58.4200
   1.496  58.5500
   1.500  58.5200
   1.504  58.8300
   1.508  59.0700
   1.512  59.3900
   1.516  59.4700
   1.520  59.7100
   1.524  59.9100
   1.528  60.1900
   1.532  60.4800
   1.536  60.6900
   1.540  60.8800
   1.544  61.0400
   1.548  61.1400
   1.552  61.3000
   1.556  61.4300
   1.560  61.5600
   1.564  61.7200
   1.568  61.8300
   1.572  62.0400
   1.576  62.1800
   1.580  62.2400
   1.584  62.3300
   1.588  62.4300
   1.592  62.5600
   1.596  62.6000
   1.600  62.6300
   1.604  62.8800
   1.608  62.8200
   1.612  62.8700
   1.616  62.9400
   1.620  62.9600
   1.624  62.9900
   1.628  63.0400
   1.632  63.1000
   1.636  63.1200
   1.640  63.0700
   1.644  63.1700
   1.648  63.0700
   1.652  63.0500
   1.656  62.9900
   1.660  63.0000
   1.664  62.9600
   1.668  62.8500
   1.672  62.7400
   1.676  62.6600
   1.680  62.6100
   1.684  62.5100
   1.688  62.4100
   1.692  62.1600
   1.696  62.0400
   1.700  61.8900
   1.704  61.7900
   1.708  61.6700
   1.712  61.3600
   1.716  60.9600
   1.720  60.7600
   1.724  60.5400
   1.728  60.3800
   1.732  60.2300
   1.736  59.8900
   1.740  59.6800
   1.744  59.3200
   1.748  59.0100
   1.752  58.7400
   1.756  58.4800
   1.760  58.1600
   1.764  57.9200
   1.768  57.6500
   1.772  57.6400
   1.776  57.5200
   1.780  57.3300
   1.784  57.1800
   1.788  56.9200
   1.792  56.6300
   1.796  56.1900
   1.800  55.6400
   1.804  55.1600
   1.808  54.9400
   1.812  55.0100
   1.816  55.1500
   1.820  55.3000
   1.824  55.3400
   1.828  55.2800
   1.832  55.1600
   1.836  54.8300
   1.840  54.4000
   1.844  53.9300
   1.848  53.4300
   1.852  53.0700
   1.856  52.7500
   1.860  52.2000
   1.864  51.3300
   1.868  50.2600
   1.872  48.9200
   1.876  47.5800
   1.880  45.9000
   1.884  44.1300
   1.888  42.1300
   1.892  40.0000
   1.896  37.9700
   1.900  36.0900
   1.904  34.5700
   1.908  33.4800
   1.912  32.9600
   1.916  32.6400
   1.920  32.5700
   1.924  32.5300
   1.928  32.5300
   1.932  32.6400
   1.936  32.5500
   1.940  32.4700
   1.944  32.1700
   1.948  31.9000
   1.952  31.6400
   1.956  31.3000
   1.960  30.9500
   1.964  30.6800
   1.968  30.5000
   1.972  30.3600
   1.976  30.4800
   1.980  30.6800
   1.984  30.9400
   1.988  31.3800
   1.992  31.9700
   1.996  32.5800
   2.000  33.2900
   2.004  33.8500
   2.008  34.3300
   2.012  34.7200
   2.016  35.0000
   2.020  35.1900
   2.024  35.4600
   2.028  35.8800
   2.032  36.4500
   2.036  37.2700
   2.040  38.1200
   2.044  39.2300
   2.048  40.2800
   2.052  41.1700
   2.056  41.7100
   2.060  41.8600
   2.064  41.5900
   2.068  40.8300
   2.072  39.7800
   2.076  38.6700
   2.080  37.4400
   2.084  36.4100
   2.088  35.4200
   2.092  34.6600
   2.096  34.1700
   2.100  33.7400
   2.104  33.5600
   2.108  33.2500
   2.112  33.1000
   2.116  32.9300
   2.120  32.9200
   2.124  33.2400
   2.128  33.9300
   2.132  34.9200
   2.136  36.2200
   2.140  37.6200
   2.144  38.9600
   2.148  40.0900
   2.152  41.0500
   2.156  41.6400
   2.160  42.1100
   2.164  42.3800
   2.168  42.5800
   2.172  42.7600
   2.176  42.7600
   2.180  42.7000
   2.184  42.5500
   2.188  42.4000
   2.192  42.2100
   2.196  41.7800
   2.200  41.2600
   2.204  40.4500
   2.208  39.3800
   2.212  37.9100
   2.216  36.1000
   2.220  33.8900
   2.224  31.5700
   2.228  29.4400
   2.232  27.5000
   2.236  25.9700
   2.240  24.6700
   2.244  23.4600
   2.248  22.3200
   2.252  21.2700
   2.256  20.1500
   2.260  19.0000
   2.264  18.0400
   2.268  17.3500
   2.272  16.8900
   2.276  16.4400
   2.280  16.0000
   2.284  15.3900
   2.288  14.7800
   2.292  13.8700
   2.296  12.8600
   2.300  12.2000
   2.304  10.5300
   2.308   9.4800
   2.312   8.7200
   2.316   8.2000
   2.320   7.9700
   2.324   8.2200
   2.328   8.8100
   2.332   9.8500
   2.336  11.1400
   2.340  12.6300
   2.344  13.9600
   2.348  14.9300
   2.352  15.5100
   2.356  15.6900
   2.360  15.4200
   2.364  15.0000
   2.368  14.4500
   2.372  14.0400
   2.376  13.6500
   2.380  13.1600
   2.384  12.7600
   2.388  12.4800
   2.392  12.2900
   2.396  12.1400
   2.400  11.9400
   2.404  11.6800
   2.408  11.6000
   2.412  11.4200
   2.416  11.2700
   2.420  11.2300
   2.424  11.1400
   2.428  11.1800
   2.432  11.3100
   2.436  11.4600
   2.440  11.6400
   2.444  11.7300
   2.448  11.7400
   2.452  11.6700
   2.456  11.4500
   2.460  11.2300
   2.464  10.8800
   2.468  10.4700
   2.472  10.0300
   2.476   9.5500
   2.480   9.1400
   2.484   8.8000
   2.488   8.5000
   2.492   8.3200
   2.496   8.1900
   2.500   8.1000
