Name: Tremolite Ca_2(Mg,Fe^2+)_5Si_8O_22(OH)_2
Type: Mineral
Class: Silicates
Subclass: Inosilicates
Particle Size: 125-500um
Sample No.: IN-5A
Owner: JPL
Wavelength range: IR
Origin: 
Collected by JPL
Description: 





Measurement: Hemispherical reflectance
First Column: X
Second Column: Y
X Units:  Wavelength (micrometers)
Y Units:  Reflectance (percent)
First X Value: 15.3853
Last X Value: 2.00032
Number of X Values: 2256
Additional information: in05aa.txt
 
15.3853	1.55403
15.3397	1.77987
15.2945	1.86082
15.2495	2.10749
15.2048	2.2305
15.1603	2.53512
15.1161	2.73614
15.0722	2.72284
15.0285	2.8292
14.9851	3.25192
14.9419	3.5787
14.8989	3.63519
14.8563	3.55992
14.8138	3.55002
14.7716	3.94496
14.7296	4.66776
14.6879	5.08615
14.6464	5.42527
14.6052	6.05435
14.5641	6.40377
14.5233	6.30338
14.4828	5.89008
14.4424	5.29816
14.4023	4.46671
14.3624	3.43535
14.3227	2.50323
14.2833	1.90567
14.244	1.93467
14.205	2.02751
14.1662	1.9442
14.1276	2.08025
14.0892	2.23366
14.051	2.34802
14.0131	2.33679
13.9753	2.31386
13.9377	2.41798
13.9004	2.44469
13.8632	2.60052
13.8262	2.86897
13.7895	2.90087
13.7529	2.77837
13.7165	2.68622
13.6803	2.79285
13.6443	2.96289
13.6085	3.22207
13.5729	3.43888
13.5374	3.60934
13.5022	3.81336
13.4671	4.03198
13.4322	4.38445
13.3975	4.7244
13.363	5.11715
13.3286	5.62011
13.2944	6.22521
13.2604	7.13127
13.2266	8.19003
13.193	9.23481
13.1595	10.0302
13.1262	10.3477
13.093	9.82463
13.06	8.47774
13.0272	6.71295
12.9946	4.97231
12.9621	3.46628
12.9298	2.53441
12.8976	1.98391
12.8656	1.9447
12.8337	2.12566
12.8021	2.27361
12.7705	2.275
12.7391	2.32202
12.7079	2.38517
12.6769	2.57995
12.6459	2.79656
12.6152	2.90335
12.5845	3.01607
12.5541	3.22573
12.5238	3.15697
12.4936	3.13449
12.4635	3.16327
12.4337	3.20423
12.4039	3.42697
12.3743	3.65287
12.3448	3.84785
12.3155	3.87557
12.2863	3.85541
12.2573	3.93455
12.2284	4.06683
12.1996	4.16304
12.171	4.27117
12.1425	4.32204
12.1141	4.37411
12.0859	4.37529
12.0578	4.37519
12.0298	4.55212
12.0019	4.65437
11.9742	4.67377
11.9466	4.69093
11.9192	4.80408
11.8918	5.0301
11.8646	5.25327
11.8375	5.32306
11.8106	5.26399
11.7837	5.35493
11.757	5.43202
11.7304	5.57628
11.7039	5.73725
11.6776	5.96542
11.6513	6.11326
11.6252	6.16903
11.5992	6.32902
11.5733	6.46024
11.5475	6.47255
11.5219	6.5623
11.4963	6.63593
11.4709	6.78305
11.4455	6.9464
11.4203	7.06995
11.3952	7.30891
11.3702	7.49561
11.3454	7.66975
11.3206	7.93138
11.2959	8.15951
11.2714	8.29729
11.2469	8.43554
11.2226	8.49778
11.1983	8.58521
11.1742	8.81671
11.1502	9.12204
11.1263	9.33522
11.1024	9.56232
11.0787	9.91533
11.0551	10.2968
11.0316	10.6387
11.0081	11.0675
10.9848	11.6539
10.9616	12.4087
10.9385	13.3293
10.9154	14.244
10.8925	14.9147
10.8697	15.2462
10.8469	14.981
10.8243	14.1646
10.8017	12.9985
10.7793	11.8833
10.7569	10.8183
10.7346	10.0662
10.7125	10.0353
10.6904	10.6125
10.6684	11.3275
10.6465	12.2851
10.6247	13.5496
10.6029	14.9704
10.5813	16.5598
10.5597	18.2528
10.5383	20.0315
10.5169	21.5057
10.4956	22.6762
10.4744	23.6126
10.4533	24.3328
10.4323	24.886
10.4113	25.4219
10.3904	25.8898
10.3697	26.3434
10.349	26.7826
10.3284	27.15
10.3078	27.5441
10.2874	27.9492
10.267	28.411
10.2467	28.9632
10.2265	29.6282
10.2064	30.4665
10.1863	31.4491
10.1663	32.5379
10.1464	33.7273
10.1266	34.815
10.1069	35.5302
10.0872	35.8589
10.0676	35.9373
10.0481	35.9085
10.0287	35.7961
10.0093	35.4579
9.99005	34.9424
9.97084	34.4164
9.95169	33.7906
9.93263	33.0891
9.91364	32.3277
9.89472	31.4129
9.87587	30.4114
9.8571	29.314
9.83839	27.8569
9.81976	25.9465
9.80119	23.7497
9.78271	21.3578
9.76428	19.0301
9.74592	17.2181
9.72764	16.6483
9.70943	17.1231
9.69128	18.1739
9.6732	19.3043
9.65518	20.5521
9.63724	21.8232
9.61935	22.3186
9.60155	21.5381
9.5838	20.2453
9.56611	19.6005
9.5485	19.8881
9.53094	20.5366
9.51345	21.1249
9.49604	21.5202
9.47867	21.6974
9.46137	21.7054
9.44414	21.7821
9.42697	21.9733
9.40986	21.9514
9.39281	21.9032
9.37583	22.1538
9.35891	22.3387
9.34204	22.472
9.32524	22.6373
9.3085	22.6723
9.29182	22.599
9.27519	22.6737
9.25863	22.5811
9.24213	22.2491
9.22568	21.9718
9.2093	21.7854
9.19297	21.4797
9.17669	21.0227
9.16048	20.4275
9.14433	19.8618
9.12823	19.3044
9.11218	18.5815
9.0962	17.7929
9.08027	16.9519
9.06439	16.0563
9.04858	15.0795
9.03281	14.1192
9.0171	13.2319
9.00145	12.5164
8.98585	11.9651
8.9703	11.475
8.9548	11.1987
8.93937	11.2106
8.92398	11.2668
8.90865	11.2397
8.89337	11.1658
8.87814	11.3799
8.86296	11.82
8.84784	12.5543
8.83277	13.4842
8.81774	14.1913
8.80277	14.6989
8.78786	15.1098
8.77298	15.5119
8.75816	15.8287
8.7434	16.0367
8.72868	16.0252
8.714	15.8137
8.69938	15.6912
8.68481	15.3645
8.67029	14.8773
8.65581	14.2076
8.64139	13.2608
8.62701	12.0651
8.61268	10.5577
8.5984	8.95582
8.58416	7.51716
8.56997	6.38307
8.55583	5.44138
8.54174	4.58839
8.52769	3.97457
8.51368	3.4525
8.49973	2.97625
8.48582	2.60342
8.47195	2.33754
8.45813	2.14122
8.44436	1.97974
8.43062	1.70676
8.41693	1.371
8.4033	1.21424
8.3897	1.0897
8.37614	0.982241
8.36264	1.13919
8.34917	1.20075
8.33574	1.14397
8.32236	1.13946
8.30903	1.11898
8.29573	1.0215
8.28248	0.954009
8.26927	0.923388
8.2561	0.888947
8.24298	0.806768
8.2299	0.856953
8.21685	0.973283
8.20385	0.882926
8.19089	0.826735
8.17797	0.888314
8.16509	0.944132
8.15225	0.937376
8.13946	0.806758
8.1267	0.783039
8.11398	0.816939
8.10131	0.843151
8.08867	0.819575
8.07606	0.795697
8.0635	0.776142
8.05099	0.808884
8.0385	0.722197
8.02606	0.759154
8.01366	0.80617
8.00129	0.859397
7.98896	0.932663
7.97667	0.919829
7.96442	0.880205
7.9522	0.942053
7.94002	0.973385
7.92788	0.963751
7.91578	0.921705
7.90371	0.989605
7.89168	1.10179
7.87969	1.0592
7.86773	0.926959
7.85581	0.991167
7.84392	1.13284
7.83207	1.21808
7.82026	1.24967
7.80849	1.16084
7.79674	1.16613
7.78503	1.15132
7.77337	1.09783
7.76173	1.10022
7.75012	1.23246
7.73856	1.34878
7.72703	1.362
7.71553	1.41022
7.70406	1.44538
7.69263	1.44407
7.68123	1.41875
7.66987	1.34781
7.65855	1.36882
7.64725	1.42383
7.63598	1.47473
7.62475	1.58684
7.61356	1.5238
7.60239	1.50503
7.59126	1.55534
7.58017	1.60863
7.5691	1.67084
7.55806	1.69096
7.54707	1.70958
7.5361	1.70246
7.52516	1.65125
7.51425	1.55763
7.50338	1.61181
7.49253	1.70142
7.48172	1.71693
7.47094	1.69582
7.46019	1.65645
7.44947	1.69786
7.43879	1.8146
7.42813	1.78177
7.4175	1.74455
7.4069	1.79592
7.39634	1.83035
7.3858	1.8861
7.37529	1.97161
7.36482	1.96099
7.35437	1.93822
7.34396	1.99214
7.33357	2.02787
7.32321	2.11737
7.31288	2.15906
7.30258	2.07556
7.29231	2.09228
7.28207	2.13586
7.27185	2.14945
7.26167	2.15538
7.25152	2.20414
7.24139	2.32287
7.23129	2.38777
7.22122	2.52493
7.21117	2.56621
7.20116	2.46369
7.19117	2.56018
7.18121	2.72314
7.17128	2.79818
7.16137	2.80384
7.1515	2.8354
7.14164	2.99798
7.13182	3.03125
7.12203	3.05328
7.11225	3.21016
7.10251	3.31153
7.0928	3.38018
7.08311	3.55353
7.07344	3.70911
7.06381	3.72625
7.0542	3.75293
7.04461	3.87585
7.03506	3.95491
7.02552	4.01019
7.01601	4.00047
7.00653	3.98821
6.99708	4.07056
6.98765	4.09221
6.97824	4.19873
6.96886	4.33523
6.95951	4.49103
6.95018	4.47423
6.94087	4.48423
6.9316	4.56222
6.92234	4.60051
6.91311	4.64544
6.90391	4.7533
6.89473	4.83896
6.88557	4.85717
6.87644	4.9604
6.86733	5.01629
6.85824	4.94129
6.84918	4.86976
6.84015	4.83287
6.83114	4.88806
6.82215	4.9071
6.81319	4.90836
6.80424	4.92968
6.79532	5.11021
6.78643	5.21595
6.77756	5.26579
6.76871	5.28087
6.75989	5.25381
6.75109	5.2942
6.74231	5.31074
6.73355	5.35133
6.72482	5.44371
6.71611	5.43462
6.70742	5.45297
6.69875	5.49634
6.69011	5.54308
6.68149	5.65939
6.67289	5.6318
6.66431	5.59432
6.65576	5.72115
6.64722	5.94647
6.63871	6.14419
6.63022	6.0733
6.62175	6.06418
6.61331	6.18962
6.60488	6.35914
6.59648	6.48565
6.5881	6.63836
6.57974	6.86712
6.5714	7.08446
6.56308	7.06763
6.55478	6.9897
6.54651	6.88772
6.53825	6.89558
6.53001	6.93297
6.5218	6.92599
6.51361	6.88261
6.50544	6.84311
6.49729	6.8179
6.48915	6.7354
6.48104	6.61583
6.47295	6.50175
6.46488	6.30534
6.45683	6.18972
6.4488	6.15217
6.44079	6.00819
6.4328	5.85715
6.42482	5.786
6.41687	5.74072
6.40894	5.49909
6.40103	5.28086
6.39314	5.24486
6.38526	5.08593
6.37741	4.8749
6.36957	4.72507
6.36176	4.57119
6.35396	4.59677
6.34618	4.60538
6.33843	4.37482
6.33069	4.15702
6.32297	4.03482
6.31527	3.92362
6.30758	3.86841
6.29992	3.74322
6.29227	3.55032
6.28465	3.56364
6.27704	3.51369
6.26945	3.36714
6.26188	3.34023
6.25432	3.3476
6.24679	3.24499
6.23927	3.13101
6.23177	3.15427
6.22429	3.14311
6.21683	3.05403
6.20938	3.06429
6.20195	3.00448
6.19454	2.93785
6.18715	2.99132
6.17978	3.038
6.17242	3.02506
6.16508	2.99904
6.15776	3.01789
6.15045	2.92649
6.14317	2.91594
6.1359	3.03745
6.12864	3.00994
6.12141	2.99884
6.11419	3.02008
6.10699	3.10123
6.0998	3.1478
6.09263	3.21548
6.08549	3.26836
6.07835	3.30838
6.07123	3.32604
6.06413	3.34524
6.05705	3.3849
6.04998	3.49349
6.04293	3.63582
6.0359	3.71894
6.02888	3.7576
6.02187	3.80436
6.01489	3.89783
6.00792	3.95623
6.00096	3.97809
5.99403	3.92158
5.98711	3.89013
5.9802	3.8647
5.97331	3.6792
5.96644	3.56096
5.95958	3.56675
5.95274	3.51841
5.94591	3.46706
5.9391	3.53711
5.9323	3.56
5.92552	3.50508
5.91876	3.44524
5.91201	3.40049
5.90528	3.42275
5.89856	3.54533
5.89186	3.58411
5.88517	3.54075
5.8785	3.60792
5.87184	3.73239
5.8652	3.7839
5.85857	3.86923
5.85196	3.90995
5.84536	3.91083
5.83878	4.00578
5.83221	4.13801
5.82566	4.21118
5.81912	4.27902
5.81259	4.42524
5.80608	4.48143
5.79959	4.47256
5.79311	4.46983
5.78665	4.43277
5.78019	4.51911
5.77376	4.70052
5.76734	4.74606
5.76093	4.69006
5.75453	4.71818
5.74815	4.8231
5.74179	4.86775
5.73543	4.99594
5.7291	5.05543
5.72277	5.05093
5.71646	5.14965
5.71017	5.19236
5.70389	5.11803
5.69762	5.08478
5.69136	5.13731
5.68513	5.11106
5.6789	5.07064
5.67268	5.00213
5.66648	4.98895
5.6603	5.04791
5.65413	5.04362
5.64797	5.05425
5.64182	5.129
5.63569	5.09285
5.62957	5.01493
5.62347	5.03782
5.61737	5.07253
5.61129	5.11569
5.60522	5.23789
5.59917	5.28135
5.59313	5.28514
5.5871	5.31626
5.58109	5.22759
5.57509	5.11622
5.5691	5.15575
5.56312	5.22446
5.55716	5.24381
5.55121	5.32445
5.54528	5.42243
5.53935	5.55243
5.53344	5.71297
5.52754	5.79074
5.52166	5.87863
5.51578	5.96771
5.50992	6.0072
5.50407	5.95907
5.49823	5.90066
5.49241	5.87291
5.4866	5.75743
5.4808	5.70833
5.47501	5.71404
5.46923	5.63223
5.46347	5.65891
5.45772	5.67118
5.45198	5.6196
5.44625	5.6548
5.44054	5.79607
5.43484	5.93931
5.42914	6.09458
5.42347	6.28392
5.4178	6.4996
5.41214	6.60978
5.4065	6.66128
5.40087	6.73692
5.39525	6.81192
5.38964	6.90222
5.38404	7.00703
5.37846	6.97964
5.37288	6.93121
5.36732	6.94028
5.36177	7.00639
5.35623	6.9934
5.35071	6.92534
5.34519	6.85591
5.33968	6.79114
5.33419	6.78754
5.32871	6.82509
5.32324	6.85438
5.31778	6.89958
5.31233	6.95917
5.30689	7.01199
5.30147	7.12398
5.29605	7.31626
5.29065	7.48007
5.28525	7.59684
5.27987	7.71804
5.2745	7.78589
5.26914	7.77889
5.26379	7.75556
5.25845	7.77866
5.25312	7.79447
5.24781	7.81417
5.2425	7.9928
5.23721	8.21713
5.23192	8.41463
5.22665	8.6414
5.22138	8.91844
5.21613	9.11128
5.21089	9.24875
5.20566	9.42266
5.20044	9.47584
5.19522	9.42833
5.19002	9.36205
5.18483	9.28699
5.17965	9.10551
5.17448	8.85891
5.16933	8.66944
5.16418	8.37086
5.15904	8.15576
5.15391	8.09506
5.14879	7.9201
5.14368	7.68341
5.13859	7.51959
5.1335	7.50497
5.12842	7.49703
5.12335	7.4019
5.1183	7.37929
5.11325	7.37494
5.10821	7.40085
5.10318	7.48425
5.09817	7.45484
5.09316	7.39317
5.08816	7.39302
5.08317	7.50502
5.07819	7.54393
5.07322	7.52686
5.06826	7.60643
5.06331	7.69837
5.05837	7.70888
5.05344	7.70835
5.04852	7.76262
5.04361	7.90419
5.03871	8.01633
5.03382	8.1239
5.02894	8.26653
5.02406	8.344
5.0192	8.46657
5.01435	8.58347
5.0095	8.69773
5.00467	8.86102
4.99984	9.05991
4.99502	9.21687
4.99021	9.30253
4.98542	9.41303
4.98063	9.52281
4.97585	9.59915
4.97108	9.64999
4.96632	9.68958
4.96156	9.80866
4.95682	9.9836
4.95209	10.1574
4.94736	10.2973
4.94264	10.4191
4.93794	10.5874
4.93324	10.7919
4.92855	11.0111
4.92387	11.1449
4.9192	11.2588
4.91453	11.3978
4.90988	11.5442
4.90524	11.7225
4.9006	11.9416
4.89597	12.0789
4.89135	12.1262
4.88674	12.2074
4.88214	12.2187
4.87755	12.1777
4.87296	12.2446
4.86839	12.3442
4.86382	12.4119
4.85926	12.501
4.85471	12.5605
4.85017	12.6661
4.84564	12.7799
4.84111	12.8095
4.8366	12.7306
4.83209	12.7161
4.82759	12.8195
4.8231	12.8677
4.81862	12.8398
4.81415	12.8128
4.80968	12.9113
4.80522	12.988
4.80077	12.9726
4.79633	13.0575
4.7919	13.3004
4.78747	13.598
4.78306	13.9283
4.77865	14.2309
4.77425	14.4523
4.76986	14.7651
4.76547	15.1409
4.7611	15.4536
4.75673	15.7499
4.75237	16.1519
4.74802	16.6122
4.74367	16.9547
4.73934	17.1813
4.73501	17.5306
4.73069	17.9287
4.72638	18.169
4.72207	18.2996
4.71777	18.478
4.71348	18.6496
4.7092	18.8102
4.70493	18.9121
4.70066	19.025
4.69641	19.1814
4.69216	19.3533
4.68791	19.5616
4.68368	19.85
4.67945	20.2352
4.67523	20.6411
4.67102	20.9714
4.66682	21.2372
4.66262	21.5899
4.65843	21.9164
4.65425	22.2502
4.65007	22.6723
4.64591	23.1163
4.64175	23.5541
4.6376	24.0238
4.63345	24.6017
4.62932	25.1702
4.62519	25.723
4.62106	26.2336
4.61695	26.8169
4.61284	27.369
4.60874	27.79
4.60465	28.2354
4.60056	28.6211
4.59648	28.9882
4.59241	29.3123
4.58835	29.5705
4.58429	29.9232
4.58024	30.306
4.5762	30.706
4.57216	31.2165
4.56814	31.7763
4.56411	32.323
4.5601	32.8415
4.55609	33.4064
4.55209	34.0962
4.5481	34.7983
4.54411	35.4526
4.54013	36.0503
4.53616	36.5965
4.5322	36.9959
4.52824	37.3705
4.52429	37.8689
4.52034	38.5119
4.51641	39.1269
4.51247	39.6543
4.50855	40.1802
4.50463	40.792
4.50072	41.3756
4.49682	41.8387
4.49292	42.3381
4.48903	42.8396
4.48515	43.2874
4.48127	43.8152
4.4774	44.3465
4.47354	44.8086
4.46968	45.2135
4.46584	45.6204
4.46199	45.9683
4.45815	46.3309
4.45432	46.7093
4.4505	47.1127
4.44668	47.5083
4.44287	47.7631
4.43907	47.9732
4.43527	48.2949
4.43148	48.5726
4.4277	48.8452
4.42392	49.082
4.42015	49.2532
4.41638	49.4303
4.41262	49.6355
4.40887	49.7977
4.40513	49.9164
4.40139	50.1299
4.39765	50.3293
4.39393	50.4678
4.39021	50.5912
4.38649	50.7328
4.38278	50.916
4.37908	51.0496
4.37539	51.1329
4.3717	51.2318
4.36801	51.3398
4.36434	51.4837
4.36067	51.5728
4.357	51.5459
4.35335	51.5649
4.34969	51.6376
4.34605	51.7066
4.34241	51.7105
4.33877	51.7503
4.33514	51.838
4.33152	51.9821
4.32791	52.0485
4.3243	52.0784
4.32069	52.124
4.3171	52.0966
4.31351	52.1735
4.30992	52.2626
4.30634	52.3288
4.30277	52.4042
4.2992	52.5294
4.29564	52.5862
4.29208	52.6333
4.28853	52.748
4.28499	52.8497
4.28145	52.9162
4.27792	52.9319
4.27439	52.9819
4.27087	53.1252
4.26735	53.209
4.26384	53.1703
4.26034	53.1584
4.25684	53.1945
4.25335	53.2644
4.24986	53.4778
4.24638	53.6166
4.24291	53.6635
4.23944	53.645
4.23598	53.7583
4.23252	53.8862
4.22906	53.9338
4.22562	53.953
4.22218	53.917
4.21874	53.8936
4.21531	53.9419
4.21189	53.9722
4.20847	54.0488
4.20506	54.0765
4.20165	54.0398
4.19825	54.037
4.19485	54.038
4.19146	54.0848
4.18807	54.151
4.18469	54.1412
4.18132	54.1654
4.17795	54.1577
4.17458	54.178
4.17123	54.147
4.16787	54.0984
4.16453	54.0442
4.16118	54.0717
4.15785	54.1599
4.15451	54.1851
4.15119	54.1668
4.14787	54.1735
4.14455	54.1746
4.14124	54.1364
4.13794	54.1437
4.13464	54.1654
4.13134	54.1635
4.12805	54.1737
4.12477	54.2281
4.12149	54.2042
4.11822	54.0827
4.11495	54.0443
4.11168	54.0435
4.10843	54.0282
4.10517	54.0136
4.10192	54.05
4.09868	54.0189
4.09545	53.9179
4.09221	53.8898
4.08899	53.9118
4.08576	53.8287
4.08255	53.741
4.07933	53.7174
4.07613	53.6624
4.07292	53.5102
4.06973	53.3359
4.06654	53.2177
4.06335	53.0663
4.06017	52.9118
4.05699	52.6642
4.05382	52.3622
4.05065	52.0112
4.04749	51.5751
4.04433	51.055
4.04118	50.4775
4.03803	49.9199
4.03489	49.3346
4.03175	48.8589
4.02862	48.3824
4.02549	47.8933
4.02237	47.427
4.01925	47.0241
4.01614	46.5417
4.01303	45.9124
4.00993	45.1858
4.00683	44.4427
4.00373	43.7513
4.00064	43.192
3.99756	42.5969
3.99448	42.0165
3.9914	41.5343
3.98833	41.1353
3.98527	40.8961
3.98221	40.8324
3.97915	40.7969
3.9761	40.8086
3.97305	40.9093
3.97001	40.9828
3.96697	41.1474
3.96394	41.5185
3.96091	41.9036
3.95789	42.3391
3.95487	42.829
3.95186	43.3368
3.94885	43.9035
3.94584	44.5265
3.94284	45.2051
3.93984	45.9556
3.93685	46.4878
3.93386	46.7303
3.93088	46.7951
3.9279	46.8442
3.92493	47.0335
3.92196	47.2605
3.919	47.4647
3.91604	47.6739
3.91308	47.7747
3.91013	47.9173
3.90718	48.0478
3.90424	48.1794
3.9013	48.2979
3.89837	48.3422
3.89544	48.4057
3.89252	48.5813
3.8896	48.7037
3.88668	48.74
3.88377	48.791
3.88086	48.9058
3.87796	48.9497
3.87506	48.9631
3.87217	49.0459
3.86928	49.1163
3.86639	49.1823
3.86351	49.308
3.86064	49.4173
3.85776	49.438
3.8549	49.5128
3.85203	49.6254
3.84917	49.6677
3.84631	49.7824
3.84346	49.9716
3.84062	50.1613
3.83777	50.4287
3.83494	50.7296
3.8321	51.0558
3.82927	51.5275
3.82644	52.0175
3.82362	52.3923
3.82081	52.7955
3.81799	53.2314
3.81518	53.7103
3.81238	54.1643
3.80958	54.6866
3.80678	55.258
3.80399	55.8994
3.8012	56.5254
3.79841	57.2569
3.79563	58.0757
3.79286	58.8373
3.79008	59.5634
3.78731	60.1928
3.78455	60.5523
3.78179	60.8396
3.77903	61.1656
3.77628	61.4263
3.77353	61.6287
3.77079	61.8366
3.76805	62.0258
3.76531	62.2102
3.76258	62.4042
3.75985	62.5603
3.75713	62.6302
3.7544	62.6683
3.75169	62.7412
3.74898	62.8716
3.74627	63.0291
3.74356	63.2307
3.74086	63.457
3.73816	63.6822
3.73547	63.7583
3.73278	63.8407
3.7301	63.9349
3.72741	63.997
3.72474	64.1422
3.72206	64.3164
3.71939	64.3569
3.71673	64.3782
3.71406	64.4068
3.71141	64.4218
3.70875	64.4175
3.7061	64.3871
3.70345	64.3892
3.70081	64.4339
3.69817	64.1948
3.69553	63.2339
3.6929	60.78
3.69027	60.1818
3.68765	62.639
3.68503	63.9123
3.68241	64.1744
3.6798	64.1594
3.67719	64.1077
3.67458	64.0571
3.67198	63.9683
3.66938	63.877
3.66678	63.8979
3.66419	63.8731
3.66161	63.8651
3.65902	63.855
3.65644	63.8085
3.65387	63.7554
3.65129	63.7529
3.64872	63.7269
3.64616	63.7082
3.64359	63.6744
3.64103	63.6813
3.63848	63.6589
3.63593	63.6772
3.63338	63.736
3.63084	63.8084
3.6283	63.805
3.62576	63.7883
3.62322	63.7869
3.62069	63.7614
3.61817	63.7008
3.61564	63.6522
3.61312	63.6883
3.61061	63.7087
3.6081	63.5832
3.60559	63.4497
3.60308	63.3924
3.60058	63.4249
3.59808	63.2629
3.59558	63.0541
3.59309	62.9108
3.59061	62.6934
3.58812	62.451
3.58564	62.1675
3.58316	61.8139
3.58069	61.4195
3.57822	61.008
3.57575	60.6422
3.57328	60.3923
3.57082	60.287
3.56836	60.2358
3.56591	60.2124
3.56346	60.2116
3.56101	60.1467
3.55857	59.939
3.55613	59.6771
3.55369	59.3917
3.55126	59.0829
3.54883	58.8029
3.5464	58.4735
3.54397	58.0007
3.54155	57.513
3.53914	57.0139
3.53672	56.4083
3.53431	55.709
3.5319	54.949
3.5295	54.0905
3.5271	53.2925
3.5247	52.5063
3.52231	51.5926
3.51991	50.6022
3.51753	49.7199
3.51514	49.084
3.51276	48.644
3.51038	48.1125
3.50801	47.6545
3.50563	47.326
3.50327	47.0691
3.5009	46.8189
3.49854	46.6247
3.49618	46.484
3.49382	46.2815
3.49147	45.9569
3.48912	45.7525
3.48677	45.6415
3.48443	45.438
3.48209	45.153
3.47975	45.0064
3.47742	44.9657
3.47509	45.104
3.47276	45.3625
3.47044	45.8531
3.46812	46.4694
3.4658	47.0336
3.46348	47.4905
3.46117	47.7866
3.45886	47.9209
3.45656	48.0066
3.45425	48.075
3.45195	48.1872
3.44966	48.1707
3.44736	48.0932
3.44507	48.1026
3.44279	48.0629
3.4405	47.973
3.43822	47.8567
3.43594	47.6952
3.43367	47.5068
3.43139	47.3465
3.42912	47.0938
3.42686	46.7531
3.42459	46.4355
3.42233	46.1803
3.42007	45.8816
3.41782	45.5673
3.41557	45.3072
3.41332	45.0837
3.41108	44.878
3.40883	44.6254
3.40659	44.3014
3.40435	44.0203
3.40212	43.8173
3.39989	43.6579
3.39766	43.4641
3.39544	43.2476
3.39322	42.9541
3.391	42.6583
3.38878	42.4287
3.38657	42.1565
3.38436	41.7544
3.38215	41.3307
3.37994	40.9598
3.37774	40.7018
3.37554	40.4277
3.37335	40.1991
3.37115	40.0053
3.36896	39.9919
3.36678	40.1265
3.36459	39.9989
3.36241	39.5651
3.36023	38.9875
3.35805	38.2475
3.35588	37.2753
3.35371	36.4106
3.35154	35.9138
3.34938	35.6183
3.34721	35.4908
3.34505	35.673
3.3429	36.2834
3.34074	37.0939
3.33859	38.0879
3.33644	39.2008
3.3343	40.4173
3.33215	41.5184
3.33001	42.2378
3.32788	42.6171
3.32574	42.6762
3.32361	42.5999
3.32148	42.5362
3.31936	42.6153
3.31723	42.7142
3.31511	42.6365
3.31299	42.2474
3.31088	41.8248
3.30876	41.7033
3.30665	42.0465
3.30455	42.5357
3.30244	43.0741
3.30034	43.7773
3.29824	44.4267
3.29614	44.8996
3.29405	45.4
3.29196	46.1466
3.28987	47.0284
3.28778	48.1284
3.2857	49.5359
3.28362	50.9325
3.28154	52.0224
3.27946	52.8177
3.27739	53.3806
3.27532	53.8232
3.27325	54.1488
3.27119	54.3883
3.26913	54.6169
3.26707	54.7024
3.26501	54.7136
3.26295	54.785
3.2609	54.8071
3.25885	54.7676
3.2568	54.6995
3.25476	54.6605
3.25272	54.6788
3.25068	54.6426
3.24864	54.536
3.24661	54.4219
3.24458	54.3004
3.24255	54.0682
3.24052	53.8773
3.2385	53.739
3.23648	53.5386
3.23446	53.3477
3.23244	53.2496
3.23043	53.1631
3.22841	53.09
3.2264	53.0346
3.2244	52.9848
3.22239	52.931
3.22039	52.8362
3.21839	52.7654
3.2164	52.7387
3.2144	52.6445
3.21241	52.4718
3.21042	52.2264
3.20844	51.9721
3.20645	51.7134
3.20447	51.5071
3.20249	51.2694
3.20051	50.8995
3.19854	50.4557
3.19657	50.0054
3.1946	49.6011
3.19263	49.1159
3.19067	48.4567
3.1887	47.6995
3.18674	47.0539
3.18479	46.4111
3.18283	45.8504
3.18088	45.3892
3.17893	44.9674
3.17698	44.5536
3.17504	44.036
3.17309	43.499
3.17115	43.1883
3.16921	43.1922
3.16728	43.5703
3.16534	44.1998
3.16341	44.708
3.16148	45.1021
3.15956	45.4554
3.15763	45.7229
3.15571	45.915
3.15379	46.1432
3.15187	46.4859
3.14996	46.9037
3.14805	47.3527
3.14614	47.8633
3.14423	48.3052
3.14232	48.4661
3.14042	48.4914
3.13852	48.4643
3.13662	48.4211
3.13472	48.3731
3.13283	48.3061
3.13094	48.2568
3.12905	48.155
3.12716	48.0367
3.12528	47.8165
3.12339	47.542
3.12151	47.377
3.11964	47.1607
3.11776	46.8962
3.11589	46.7024
3.11401	46.6063
3.11214	46.6597
3.11028	46.6389
3.10841	46.5942
3.10655	46.788
3.10469	46.9463
3.10283	46.9622
3.10098	46.9836
3.09912	46.8282
3.09727	46.6762
3.09542	46.5814
3.09358	46.614
3.09173	46.6569
3.08989	46.6597
3.08805	46.5636
3.08621	46.3647
3.08437	46.1339
3.08254	45.9153
3.08071	45.7543
3.07888	45.6573
3.07705	45.5151
3.07523	45.4581
3.0734	45.4705
3.07158	45.4518
3.06977	45.434
3.06795	45.4375
3.06613	45.4468
3.06432	45.4569
3.06251	45.381
3.0607	45.2617
3.0589	45.2053
3.0571	44.9968
3.05529	44.7965
3.05349	44.6286
3.0517	44.296
3.0499	44.1053
3.04811	44.146
3.04632	44.1151
3.04453	43.9526
3.04274	43.8428
3.04096	43.8031
3.03918	43.7764
3.0374	43.7684
3.03562	43.7444
3.03384	43.6051
3.03207	43.5289
3.03029	43.5132
3.02852	43.4502
3.02676	43.3887
3.02499	43.4682
3.02323	43.4379
3.02146	43.3838
3.0197	43.3017
3.01795	43.1501
3.01619	43.0432
3.01444	42.9298
3.01269	42.8208
3.01094	42.7114
3.00919	42.4864
3.00744	42.3441
3.0057	42.2564
3.00396	42.2683
3.00222	42.2918
3.00048	42.1581
2.99875	41.9234
2.99701	41.921
2.99528	41.9768
2.99355	41.9829
2.99183	42.0285
2.9901	41.898
2.98838	41.6752
2.98666	41.6013
2.98494	41.6174
2.98322	41.5577
2.9815	41.4138
2.97979	41.2185
2.97808	41.1068
2.97637	41.0394
2.97466	41.0288
2.97295	40.9475
2.97125	40.8463
2.96955	40.7185
2.96785	40.6481
2.96615	40.629
2.96446	40.6406
2.96276	40.7253
2.96107	40.8817
2.95938	41.1136
2.95769	41.2173
2.95601	41.2815
2.95432	41.3231
2.95264	41.2575
2.95096	41.225
2.94928	41.3199
2.9476	41.3293
2.94593	41.2591
2.94425	41.0956
2.94258	40.9721
2.94092	40.9584
2.93925	40.923
2.93758	40.8471
2.93592	40.8929
2.93426	40.8674
2.9326	40.9036
2.93094	40.9618
2.92928	40.8674
2.92763	40.741
2.92598	40.6117
2.92433	40.5859
2.92268	40.5014
2.92103	40.3925
2.91939	40.3268
2.91775	40.3206
2.9161	40.2991
2.91447	40.1824
2.91283	40.1484
2.91119	40.0778
2.90956	39.971
2.90793	40.0503
2.9063	40.0126
2.90467	39.9547
2.90304	39.9712
2.90142	39.9445
2.89979	39.8959
2.89817	39.883
2.89656	39.7292
2.89494	39.5455
2.89332	39.6565
2.89171	39.8333
2.8901	39.8944
2.88849	39.9138
2.88688	40.0677
2.88527	40.1272
2.88367	40.2137
2.88206	40.2812
2.88046	40.2954
2.87886	40.3589
2.87727	40.3488
2.87567	40.2434
2.87408	40.1262
2.87248	40.065
2.87089	39.9959
2.8693	40.0402
2.86772	40.0542
2.86613	40.1538
2.86455	40.2961
2.86297	40.2913
2.86139	40.2902
2.85981	40.3581
2.85823	40.3319
2.85666	40.32
2.85508	40.3971
2.85351	40.3394
2.85194	40.2512
2.85038	40.4082
2.84881	40.527
2.84724	40.672
2.84568	41.0011
2.84412	41.299
2.84256	41.3843
2.841	41.3942
2.83945	41.4154
2.83789	41.4543
2.83634	41.4752
2.83479	41.3685
2.83324	41.2879
2.83169	41.2176
2.83015	41.1244
2.82861	41.1062
2.82706	41.2344
2.82552	41.3866
2.82398	41.5244
2.82245	41.4817
2.82091	41.4095
2.81938	41.3295
2.81784	41.1259
2.81631	40.9883
2.81479	40.9222
2.81326	40.8005
2.81173	40.736
2.81021	40.7512
2.80869	40.7226
2.80716	40.6322
2.80565	40.6487
2.80413	40.7272
2.80261	40.8602
2.8011	40.8026
2.79959	40.6086
2.79808	40.432
2.79657	40.1373
2.79506	39.8838
2.79355	39.7035
2.79205	39.4137
2.79055	39.2007
2.78904	39.2709
2.78754	39.4364
2.78605	39.4758
2.78455	39.4385
2.78306	39.3139
2.78156	39.18
2.78007	38.8515
2.77858	38.4339
2.77709	37.9906
2.77561	37.4373
2.77412	36.9791
2.77264	36.5544
2.77116	36.1944
2.76968	35.2971
2.7682	34.0493
2.76672	33.2643
2.76524	33.5787
2.76377	34.7372
2.7623	35.6467
2.76083	35.8277
2.75936	36.3877
2.75789	37.2305
2.75642	37.8922
2.75496	38.0822
2.7535	37.9689
2.75203	38.1877
2.75057	38.434
2.74912	38.7346
2.74766	38.6941
2.7462	37.8809
2.74475	36.4531
2.7433	34.2726
2.74185	32.5662
2.7404	31.5891
2.73895	29.4964
2.7375	26.7638
2.73606	23.6111
2.73462	20.7006
2.73318	18.1317
2.73174	15.6778
2.7303	14.7823
2.72886	14.5069
2.72742	12.7057
2.72599	10.3923
2.72456	8.67234
2.72313	7.46183
2.7217	7.0094
2.72027	7.92231
2.71884	9.94542
2.71742	13.794
2.71599	19.2767
2.71457	24.1704
2.71315	28.0023
2.71173	31.4492
2.71032	34.0587
2.7089	35.4719
2.70748	36.0568
2.70607	36.6696
2.70466	37.5395
2.70325	37.8043
2.70184	36.7284
2.70043	34.2991
2.69903	31.7769
2.69762	30.721
2.69622	31.3669
2.69482	31.975
2.69342	31.3033
2.69202	29.9921
2.69062	29.7393
2.68923	31.3723
2.68783	34.5795
2.68644	38.8314
2.68505	42.8888
2.68366	46.0144
2.68227	47.6866
2.68089	48.3533
2.6795	49.1228
2.67812	49.7926
2.67673	50.2575
2.67535	50.4392
2.67397	51.0553
2.6726	53.2611
2.67122	57.4105
2.66984	61.1818
2.66847	63.0294
2.6671	64.9033
2.66572	65.963
2.66435	66.0467
2.66299	65.6555
2.66162	65.4892
2.66025	65.1503
2.65889	64.7446
2.65753	64.3449
2.65616	64.4938
2.65481	64.7171
2.65345	65.1807
2.65209	65.4315
2.65073	65.3155
2.64938	65.1857
2.64803	64.9408
2.64667	64.541
2.64532	63.9866
2.64397	63.2357
2.64263	62.8139
2.64128	62.3289
2.63994	61.6734
2.63859	61.2414
2.63725	61.2614
2.63591	61.1942
2.63457	61.1099
2.63323	60.9783
2.6319	61.1769
2.63056	61.7833
2.62923	61.6526
2.62789	61.4009
2.62656	61.205
2.62523	60.325
2.6239	59.5979
2.62258	59.3826
2.62125	59.7716
2.61993	59.9572
2.6186	59.8087
2.61728	60.196
2.61596	60.0593
2.61464	59.6659
2.61332	59.4897
2.61201	59.2354
2.61069	59.0105
2.60938	58.5742
2.60807	57.9459
2.60675	57.554
2.60544	57.3287
2.60414	56.8076
2.60283	56.7357
2.60152	56.9455
2.60022	57.0177
2.59891	57.2321
2.59761	57.4821
2.59631	58.0123
2.59501	58.6501
2.59371	57.9975
2.59242	56.9272
2.59112	56.1546
2.58983	55.7156
2.58853	55.5606
2.58724	55.7266
2.58595	55.9229
2.58466	56.4953
2.58338	56.6392
2.58209	56.3839
2.5808	56.2842
2.57952	55.972
2.57824	55.8776
2.57695	55.6734
2.57567	55.074
2.5744	54.3778
2.57312	53.4821
2.57184	52.345
2.57057	51.754
2.56929	51.5763
2.56802	51.4789
2.56675	51.3635
2.56548	51.1986
2.56421	51.172
2.56294	51.113
2.56168	51.0009
2.56041	50.7048
2.55915	50.3993
2.55789	50.084
2.55662	50.1266
2.55536	50.7464
2.5541	51.6434
2.55285	52.3626
2.55159	52.7909
2.55034	53.1365
2.54908	53.517
2.54783	53.9799
2.54658	54.0982
2.54533	54.0642
2.54408	54.0376
2.54283	54.0544
2.54159	54.0861
2.54034	54.1554
2.5391	54.2955
2.53785	54.2689
2.53661	54.1916
2.53537	54.0035
2.53413	53.6504
2.53289	53.5311
2.53166	53.8631
2.53042	54.5354
2.52919	55.1349
2.52795	55.2759
2.52672	55.0163
2.52549	54.7865
2.52426	54.592
2.52303	54.2423
2.52181	53.7909
2.52058	53.1521
2.51936	52.1939
2.51813	51.0938
2.51691	50.1271
2.51569	49.5548
2.51447	49.5184
2.51325	49.8509
2.51203	50.364
2.51082	50.8613
2.5096	51.0854
2.50839	51.0722
2.50717	50.8567
2.50596	50.7916
2.50475	50.8886
2.50354	50.8956
2.50233	50.6844
2.50113	50.2375
2.49992	49.7733
2.49872	49.5446
2.49751	49.3579
2.49631	49.0407
2.49511	48.9418
2.49391	48.9575
2.49271	48.8868
2.49151	48.8753
2.49031	48.9499
2.48912	48.8369
2.48792	48.7849
2.48673	48.8349
2.48554	48.769
2.48435	48.5083
2.48316	48.0147
2.48197	47.5195
2.48078	47.0004
2.4796	46.6859
2.47841	46.6684
2.47723	46.9545
2.47604	47.307
2.47486	47.4836
2.47368	47.6162
2.4725	47.6016
2.47132	47.443
2.47014	47.3607
2.46897	47.2346
2.46779	46.903
2.46662	46.5923
2.46545	46.2332
2.46427	45.8454
2.4631	45.3866
2.46193	45.2314
2.46077	45.1844
2.4596	45.1715
2.45843	45.3669
2.45727	45.8649
2.4561	46.7464
2.45494	47.7562
2.45378	48.4079
2.45262	48.8192
2.45146	49.1978
2.4503	49.35
2.44914	49.3596
2.44799	49.261
2.44683	48.8938
2.44568	48.1494
2.44452	47.2852
2.44337	46.7078
2.44222	46.6868
2.44107	46.8757
2.43992	47.4762
2.43877	48.7397
2.43763	50.1204
2.43648	51.425
2.43534	52.724
2.43419	53.9781
2.43305	54.8256
2.43191	54.8821
2.43077	54.6444
2.42963	54.4848
2.42849	54.3356
2.42736	54.3775
2.42622	54.6225
2.42509	54.5806
2.42395	53.9164
2.42282	52.9406
2.42169	51.8658
2.42056	50.6359
2.41943	49.4253
2.4183	48.8025
2.41717	48.6583
2.41605	48.7461
2.41492	49.1313
2.4138	49.9737
2.41267	50.9746
2.41155	51.8926
2.41043	52.7018
2.40931	52.9773
2.40819	53.0002
2.40707	53.0861
2.40595	53.3654
2.40484	53.6652
2.40372	53.6017
2.40261	53.0804
2.4015	52.0331
2.40039	50.3019
2.39928	48.1387
2.39817	45.6056
2.39706	42.7517
2.39595	40.3105
2.39484	38.6413
2.39374	37.2765
2.39263	36.0448
2.39153	35.0282
2.39043	34.0014
2.38932	32.877
2.38822	31.8468
2.38712	30.9399
2.38603	30.2904
2.38493	30.092
2.38383	30.4195
2.38274	31.1788
2.38164	32.3607
2.38055	33.5133
2.37946	34.4647
2.37836	35.7343
2.37727	37.2133
2.37618	38.8784
2.3751	40.4585
2.37401	41.9141
2.37292	43.1723
2.37184	44.2073
2.37075	45.3051
2.36967	46.3527
2.36859	47.3635
2.3675	48.273
2.36642	49.169
2.36534	50.2331
2.36427	51.4261
2.36319	52.6121
2.36211	53.8207
2.36104	54.8568
2.35996	55.4468
2.35889	55.7696
2.35781	55.8077
2.35674	55.7245
2.35567	55.5739
2.3546	55.3006
2.35353	55.2636
2.35247	55.5604
2.3514	56.0815
2.35033	56.8428
2.34927	57.5625
2.3482	58.3743
2.34714	59.2028
2.34608	59.964
2.34502	60.8072
2.34396	61.4408
2.3429	61.7796
2.34184	61.8502
2.34078	61.7005
2.33973	61.6035
2.33867	61.6025
2.33762	61.2889
2.33656	60.7724
2.33551	60.0241
2.33446	59.0742
2.33341	58.0392
2.33236	57.0014
2.33131	55.7468
2.33026	54.127
2.32922	52.0802
2.32817	49.6804
2.32712	46.5971
2.32608	42.744
2.32504	38.6075
2.324	34.4822
2.32295	31.1203
2.32191	28.8973
2.32087	27.6387
2.31984	26.9866
2.3188	26.4159
2.31776	25.7969
2.31673	25.2809
2.31569	24.7793
2.31466	24.3317
2.31362	24.3295
2.31259	24.6335
2.31156	25.2875
2.31053	26.3764
2.3095	27.5072
2.30847	28.3121
2.30745	28.9851
2.30642	29.6235
2.3054	30.1335
2.30437	30.3373
2.30335	30.1675
2.30232	29.4089
2.3013	28.1386
2.30028	26.8376
2.29926	26.1151
2.29824	26.2353
2.29722	26.931
2.29621	27.8451
2.29519	28.8425
2.29417	29.8884
2.29316	30.9688
2.29215	32.273
2.29113	33.9003
2.29012	35.4878
2.28911	37.002
2.2881	38.3846
2.28709	39.1576
2.28608	39.4997
2.28507	39.7819
2.28407	40.1064
2.28306	40.5366
2.28206	40.9303
2.28105	41.494
2.28005	42.4537
2.27905	43.4667
2.27805	44.4108
2.27705	45.4366
2.27605	46.3297
2.27505	47.1336
2.27405	47.9491
2.27305	48.838
2.27206	49.6215
2.27106	50.4252
2.27007	51.3736
2.26907	52.2992
2.26808	53.2867
2.26709	54.514
2.2661	56.1442
2.26511	57.8774
2.26412	59.3464
2.26313	60.5772
2.26214	61.5575
2.26116	62.4719
2.26017	63.3375
2.25919	64.2218
2.2582	65.1307
2.25722	65.8907
2.25624	66.345
2.25526	66.6501
2.25428	66.8976
2.2533	67.4161
2.25232	67.9449
2.25134	68.2146
2.25036	68.3856
2.24939	68.4992
2.24841	68.6211
2.24744	68.5971
2.24646	68.4497
2.24549	68.4547
2.24452	68.7415
2.24355	69.0818
2.24257	69.4793
2.24161	69.7596
2.24064	69.9116
2.23967	70.0436
2.2387	70.2049
2.23774	70.3955
2.23677	70.6826
2.23581	70.9853
2.23484	71.2596
2.23388	71.5531
2.23292	71.6371
2.23196	71.7473
2.231	71.7802
2.23004	71.7018
2.22908	71.7549
2.22812	71.7838
2.22716	71.8324
2.22621	71.8569
2.22525	71.8374
2.2243	71.928
2.22334	72.0357
2.22239	71.9507
2.22144	71.7511
2.22049	71.7869
2.21953	72.0169
2.21859	72.0723
2.21764	72.1073
2.21669	72.1574
2.21574	72.1174
2.21479	72.0972
2.21385	72.1176
2.2129	72.0691
2.21196	72.0087
2.21102	72.0082
2.21007	72.1026
2.20913	72.1938
2.20819	72.0958
2.20725	71.946
2.20631	71.9786
2.20537	72.0746
2.20444	71.9683
2.2035	71.9186
2.20256	72.0196
2.20163	72.0801
2.20069	71.9779
2.19976	71.9927
2.19883	72.1138
2.19789	72.0902
2.19696	71.9827
2.19603	71.8512
2.1951	71.7864
2.19417	71.8635
2.19325	71.9109
2.19232	71.8329
2.19139	71.7789
2.19047	71.7621
2.18954	71.7791
2.18862	71.7627
2.18769	71.7357
2.18677	71.677
2.18585	71.5973
2.18493	71.4457
2.18401	71.3194
2.18309	71.2018
2.18217	71.0874
2.18125	70.9381
2.18033	70.7364
2.17942	70.7766
2.1785	70.8007
2.17759	70.7389
2.17667	70.733
2.17576	70.8897
2.17485	71.0165
2.17393	71.0456
2.17302	71.163
2.17211	71.2851
2.1712	71.2972
2.17029	71.4284
2.16939	71.6518
2.16848	71.7659
2.16757	71.7805
2.16667	71.645
2.16576	71.4824
2.16486	71.3699
2.16395	71.2062
2.16305	70.9347
2.16215	70.7182
2.16125	70.5722
2.16035	70.4171
2.15945	70.2559
2.15855	70.2088
2.15765	70.2514
2.15675	70.1196
2.15586	69.9485
2.15496	69.9641
2.15406	69.9654
2.15317	69.8572
2.15228	69.6601
2.15138	69.5719
2.15049	69.5034
2.1496	69.0381
2.14871	68.5857
2.14782	68.3844
2.14693	68.1329
2.14604	67.8495
2.14515	67.803
2.14427	68.1304
2.14338	68.4278
2.14249	68.7277
2.14161	69.1158
2.14072	69.5135
2.13984	69.6519
2.13896	69.6982
2.13808	69.6868
2.13719	69.4856
2.13631	69.2087
2.13543	68.5545
2.13455	67.6372
2.13368	66.8808
2.1328	65.953
2.13192	65.0165
2.13105	64.4213
2.13017	64.2273
2.1293	64.5112
2.12842	65.13
2.12755	65.7566
2.12668	66.3721
2.1258	66.4318
2.12493	66.2256
2.12406	66.0743
2.12319	65.9989
2.12232	65.7327
2.12145	65.2627
2.12059	65.0241
2.11972	65.1572
2.11885	65.3823
2.11799	65.6262
2.11712	65.8292
2.11626	65.7838
2.1154	65.305
2.11453	64.7833
2.11367	64.2131
2.11281	63.6322
2.11195	63.0442
2.11109	62.2883
2.11023	61.4246
2.10937	61.342
2.10851	62.3723
2.10766	64.0238
2.1068	65.7955
2.10594	67.3562
2.10509	68.6064
2.10423	69.5322
2.10338	70.39
2.10253	71.0553
2.10168	71.548
2.10082	71.7125
2.09997	71.8535
2.09912	72.0788
2.09827	72.0778
2.09742	71.9041
2.09658	71.9067
2.09573	72.1276
2.09488	72.1997
2.09404	72.0767
2.09319	71.7038
2.09235	71.434
2.0915	71.5098
2.09066	71.4666
2.08982	71.3564
2.08897	71.392
2.08813	71.3325
2.08729	71.1838
2.08645	71.2117
2.08561	71.284
2.08477	71.1583
2.08394	71.2546
2.0831	71.5501
2.08226	71.5742
2.08143	71.5894
2.08059	72.0173
2.07976	72.3085
2.07892	72.2476
2.07809	72.3187
2.07726	72.5118
2.07643	72.4094
2.07559	72.1536
2.07476	72.3277
2.07393	72.4639
2.0731	72.6152
2.07228	72.6587
2.07145	72.6454
2.07062	72.7791
2.06979	72.9843
2.06897	73.2121
2.06814	73.2846
2.06732	73.2008
2.06649	73.1177
2.06567	73.3109
2.06485	73.4285
2.06403	73.5029
2.0632	73.3944
2.06238	73.2715
2.06156	73.2616
2.06074	73.2658
2.05993	73.1346
2.05911	73.0962
2.05829	73.156
2.05747	73.118
2.05666	72.9321
2.05584	72.9074
2.05503	72.8943
2.05421	72.9397
2.0534	73.1542
2.05259	73.3111
2.05177	73.4459
2.05096	73.4979
2.05015	73.4611
2.04934	73.616
2.04853	73.9229
2.04772	74.1601
2.04691	74.2713
2.04611	74.4614
2.0453	74.6677
2.04449	74.8766
2.04369	75.1802
2.04288	75.3127
2.04208	75.2336
2.04127	75.2592
2.04047	75.6021
2.03967	75.8369
2.03886	75.8794
2.03806	76.0707
2.03726	76.0867
2.03646	76.1695
2.03566	76.3138
2.03486	76.3468
2.03407	76.466
2.03327	76.6108
2.03247	76.5379
2.03167	76.4814
2.03088	76.5659
2.03008	76.5671
2.02929	76.4861
2.0285	76.512
2.0277	76.722
2.02691	76.8771
2.02612	76.7854
2.02533	76.6557
2.02453	76.51
2.02374	76.3821
2.02295	76.2573
2.02217	75.9779
2.02138	75.7682
2.02059	75.7518
2.0198	75.5532
2.01902	75.2839
2.01823	75.3129
2.01744	75.3408
2.01666	75.2582
2.01588	75.3273
2.01509	75.1919
2.01431	75.0488
2.01353	75.0472
2.01275	75.1159
2.01196	75.0389
2.01118	74.9681
2.0104	74.8918
2.00963	74.865
2.00885	74.8957
2.00807	74.9553
2.00729	74.9964
2.00651	75.097
2.00574	75.1103
2.00496	75.1018
2.00419	75.0721
2.00341	75.0428
2.00264	75.187
2.00187	75.1764
2.00109	75.0104
2.00032	75.0562
