Name: Quartz-Sericite Schist
Type: Rock
Class: Metamorphic
Subclass:  Schist 
Particle Size: Solid surface
Sample No.: Ward90.txt
Owner: JPL
Wavelength range:  IR 
Origin: Ward's Collection of American Rocks.  Sample locality - Edge Hill, Montgomery County, Pennsylvania.  Collected by - JPL.
Collected by:  Ward's Natural Science
Description: A thinly laminated rock consisting principally of quartz
with a small amount of white mica and a few black specks of a metallic
mineral.  Geologic age - Cambrian



Measurement: Hemispherical reflectance
First Column: X
Second Column: Y
X Units: Wavelength (micrometers)
Y Units: Reflectance (percent)
First X Value: 15.3871
Last X Value: 1.9998
Number of X Values: 2257
Additional information: None

15.3871   2.95593
15.3416   2.96935
15.2964   2.92233
15.2514   2.78760
15.2066   2.72287
15.1622   2.94313
15.1180   3.32002
15.0740   3.33789
15.0303   2.98138
14.9869   2.83559
14.9437   3.16109
14.9008   3.21846
14.8581   3.07364
14.8156   2.98768
14.7734   3.04183
14.7314   3.11802
14.6897   3.23218
14.6482   3.39992
14.6069   3.47178
14.5659   3.31348
14.5251   3.23345
14.4845   3.27929
14.4442   3.43812
14.4041   3.19047
14.3642   2.85750
14.3245   2.87779
14.2850   2.76823
14.2458   2.87847
14.2068   3.10267
14.1679   3.02245
14.1293   3.03748
14.0909   3.21241
14.0528   3.26294
14.0148   3.35231
13.9770   3.49041
13.9394   3.70809
13.9021   3.83116
13.8649   3.87212
13.8279   3.87345
13.7911   3.92564
13.7546   4.03581
13.7182   4.02943
13.6820   4.11970
13.6460   4.14643
13.6101   4.19159
13.5745   4.20991
13.5391   4.27365
13.5038   4.33805
13.4687   4.31377
13.4339   4.45504
13.3991   4.51024
13.3646   4.31415
13.3302   4.18900
13.2961   4.30140
13.2621   4.38811
13.2282   4.35822
13.1946   4.46111
13.1611   4.55549
13.1278   4.79196
13.0946   4.94692
13.0616   5.24552
13.0288   5.37813
12.9962   5.55662
12.9637   5.90371
12.9313   6.20697
12.8992   6.55579
12.8672   7.02808
12.8353   7.36674
12.8036   7.55519
12.7721   7.47544
12.7407   6.88284
12.7095   6.25355
12.6784   6.04008
12.6475   5.94874
12.6167   5.96735
12.5861   6.12183
12.5556   6.41544
12.5253   6.58935
12.4951   6.89707
12.4651   6.90549
12.4352   6.46415
12.4054   5.53795
12.3758   4.46667
12.3463   3.83718
12.3170   3.59372
12.2878   3.54194
12.2588   3.56036
12.2299   3.71432
12.2011   4.02001
12.1725   4.23548
12.1439   4.22316
12.1156   4.26355
12.0873   4.52055
12.0592   4.79559
12.0312   4.80387
12.0034   4.80033
11.9757   4.99362
11.9481   5.10904
11.9206   5.20018
11.8933   5.36364
11.8661   5.53076
11.8390   5.56887
11.8120   5.57933
11.7852   5.63315
11.7584   5.69067
11.7318   5.82118
11.7053   6.01432
11.6790   6.11639
11.6527   6.21646
11.6266   6.30093
11.6006   6.29525
11.5747   6.44775
11.5489   6.45720
11.5233   6.33425
11.4977   6.49356
11.4723   6.56685
11.4469   6.45818
11.4217   6.48838
11.3966   6.60661
11.3716   6.63131
11.3468   6.64719
11.3220   6.64117
11.2973   6.77916
11.2728   6.81942
11.2483   6.90498
11.2240   7.02321
11.1997   7.04938
11.1756   7.22861
11.1515   7.33980
11.1276   7.34899
11.1038   7.42585
11.0801   7.57229
11.0564   7.69730
11.0329   7.87490
11.0095   8.03998
10.9862   8.03305
10.9629   8.00090
10.9398   7.87040
10.9168   7.72708
10.8938   7.74964
10.8710   7.74450
10.8483   7.48084
10.8256   7.24013
10.8031   7.05092
10.7806   6.95405
10.7582   6.95610
10.7360   6.93907
10.7138   7.10132
10.6917   7.25897
10.6697   7.18535
10.6478   7.21242
10.6260   7.43359
10.6042   7.39572
10.5826   7.25628
10.5610   7.41696
10.5396   7.72757
10.5182   7.92681
10.4969   8.02588
10.4757   8.16844
10.4546   8.42661
10.4335   8.65296
10.4126   8.78606
10.3917   9.08773
10.3709   9.42147
10.3502   9.55950
10.3296   9.84035
10.3091  10.09260
10.2886  10.30400
10.2683  10.52260
10.2480  10.72010
10.2277  11.00450
10.2076  11.23410
10.1876  11.38640
10.1676  11.51460
10.1477  11.81680
10.1279  12.04440
10.1081  12.14180
10.0885  12.34810
10.0689  12.78460
10.0494  13.15690
10.0299  13.55470
10.0106  13.87590
 9.9913  14.32410
 9.9720  14.92270
 9.9529  15.56480
 9.9338  15.93280
 9.9148  16.14050
 9.8959  16.23520
 9.8771  16.11390
 9.8583  15.91650
 9.8396  15.89590
 9.8210  15.94910
 9.8024  16.20390
 9.7839  16.71560
 9.7655  17.31850
 9.7471  18.25220
 9.7288  19.50490
 9.7106  20.96030
 9.6925  22.49880
 9.6744  23.76110
 9.6564  24.65050
 9.6384  25.43950
 9.6205  26.29200
 9.6027  26.75300
 9.5850  26.84200
 9.5673  26.88480
 9.5497  26.85670
 9.5321  26.55690
 9.5146  26.14630
 9.4972  25.76000
 9.4798  25.57890
 9.4625  25.37680
 9.4453  25.35850
 9.4281  25.60610
 9.4110  26.20300
 9.3940  26.92090
 9.3770  27.82710
 9.3600  29.01500
 9.3432  30.15200
 9.3264  31.08350
 9.3096  31.79980
 9.2930  32.48240
 9.2763  33.12360
 9.2598  33.34890
 9.2432  33.49540
 9.2268  33.72400
 9.2104  33.69010
 9.1941  33.48380
 9.1778  33.31980
 9.1616  33.08550
 9.1454  32.69330
 9.1293  32.11360
 9.1133  31.30710
 9.0973  30.34310
 9.0814  29.30650
 9.0655  28.01810
 9.0497  26.75140
 9.0339  25.40270
 9.0182  24.14740
 9.0025  23.29550
 8.9870  23.20900
 8.9714  23.85900
 8.9559  24.88840
 8.9405  25.80740
 8.9251  26.56490
 8.9097  26.87430
 8.8945  27.03740
 8.8792  27.06810
 8.8641  26.78520
 8.8489  26.25480
 8.8338  25.73600
 8.8188  25.31100
 8.8039  24.84240
 8.7889  24.38660
 8.7741  23.80980
 8.7592  23.18100
 8.7445  22.57290
 8.7297  21.82590
 8.7151  21.19060
 8.7005  20.57820
 8.6859  19.69410
 8.6714  18.56050
 8.6569  17.46890
 8.6425  16.56480
 8.6281  16.18710
 8.6137  16.48090
 8.5994  17.25420
 8.5852  18.17990
 8.5710  19.07360
 8.5569  19.70070
 8.5428  20.23160
 8.5287  20.70580
 8.5147  21.02570
 8.5008  21.20400
 8.4869  21.49220
 8.4730  21.69400
 8.4592  21.83180
 8.4454  22.08420
 8.4316  22.23040
 8.4180  22.45910
 8.4043  22.76480
 8.3907  22.82760
 8.3772  23.00400
 8.3637  23.33980
 8.3502  23.46880
 8.3368  23.58270
 8.3234  23.92870
 8.3100  24.18630
 8.2967  24.40110
 8.2835  24.64580
 8.2703  24.97550
 8.2571  25.13850
 8.2440  25.15990
 8.2309  25.06220
 8.2179  25.14630
 8.2049  25.06210
 8.1919  24.77340
 8.1790  24.31980
 8.1661  23.67240
 8.1532  22.75500
 8.1404  21.54210
 8.1277  20.26860
 8.1150  18.99750
 8.1023  17.80290
 8.0897  16.50720
 8.0770  15.31710
 8.0645  14.33140
 8.0520  13.32290
 8.0395  12.58740
 8.0270  11.92060
 8.0146  11.04780
 8.0023  10.24400
 7.9899   9.46800
 7.9776   8.85455
 7.9654   8.26778
 7.9532   7.69981
 7.9410   7.16700
 7.9288   6.57463
 7.9167   6.14499
 7.9047   5.80831
 7.8926   5.48359
 7.8807   5.17232
 7.8687   4.86832
 7.8568   4.57784
 7.8449   4.47689
 7.8330   4.33977
 7.8212   4.14747
 7.8094   4.04198
 7.7977   3.87110
 7.7860   3.75963
 7.7743   3.69002
 7.7627   3.57332
 7.7511   3.52928
 7.7395   3.42952
 7.7280   3.33175
 7.7165   3.26773
 7.7050   3.20486
 7.6936   3.04524
 7.6822   2.97902
 7.6708   3.04861
 7.6595   3.04316
 7.6482   2.89142
 7.6369   2.69578
 7.6257   2.64568
 7.6145   2.60903
 7.6033   2.60176
 7.5922   2.70273
 7.5811   2.73065
 7.5700   2.70794
 7.5590   2.69249
 7.5480   2.57588
 7.5370   2.50390
 7.5261   2.53037
 7.5152   2.50154
 7.5043   2.53885
 7.4935   2.59734
 7.4826   2.61588
 7.4718   2.56598
 7.4611   2.50080
 7.4504   2.53839
 7.4397   2.58629
 7.4290   2.75370
 7.4184   2.81128
 7.4078   2.75698
 7.3972   2.74533
 7.3867   2.68425
 7.3762   2.60524
 7.3657   2.62910
 7.3553   2.72586
 7.3449   2.73282
 7.3345   2.65008
 7.3241   2.59984
 7.3138   2.67189
 7.3035   2.82628
 7.2932   2.89988
 7.2830   2.93270
 7.2727   2.97780
 7.2626   2.94660
 7.2524   2.86568
 7.2423   2.90994
 7.2322   2.99572
 7.2221   3.06522
 7.2120   3.11868
 7.2020   3.22457
 7.1921   3.28718
 7.1821   3.31904
 7.1722   3.35121
 7.1623   3.42069
 7.1524   3.48715
 7.1425   3.43001
 7.1327   3.35721
 7.1229   3.38994
 7.1131   3.48394
 7.1034   3.58621
 7.0937   3.57676
 7.0840   3.49380
 7.0743   3.51083
 7.0647   3.60242
 7.0551   3.74465
 7.0455   3.82755
 7.0359   3.76457
 7.0264   3.69368
 7.0169   3.73739
 7.0074   3.85958
 6.9979   3.89932
 6.9885   3.90475
 6.9791   3.90446
 6.9697   3.88462
 6.9604   3.95553
 6.9510   4.04288
 6.9417   4.15701
 6.9324   4.19717
 6.9232   4.18938
 6.9140   4.18859
 6.9047   4.20789
 6.8956   4.25092
 6.8864   4.22134
 6.8773   4.20694
 6.8682   4.43297
 6.8591   4.51223
 6.8500   4.38590
 6.8410   4.28828
 6.8320   4.31422
 6.8230   4.41221
 6.8140   4.39744
 6.8051   4.42462
 6.7962   4.52729
 6.7873   4.60595
 6.7784   4.63643
 6.7695   4.62006
 6.7607   4.59311
 6.7519   4.61757
 6.7431   4.64551
 6.7344   4.66035
 6.7256   4.65888
 6.7169   4.71353
 6.7082   4.70505
 6.6996   4.70135
 6.6909   4.84044
 6.6823   5.00105
 6.6737   5.05748
 6.6651   5.07423
 6.6566   5.11488
 6.6480   5.21012
 6.6395   5.32120
 6.6310   5.23513
 6.6226   5.17407
 6.6141   5.26105
 6.6057   5.21486
 6.5973   5.26293
 6.5889   5.33156
 6.5805   5.27546
 6.5722   5.34498
 6.5639   5.37979
 6.5556   5.36422
 6.5473   5.37409
 6.5390   5.37842
 6.5308   5.37587
 6.5226   5.49158
 6.5144   5.61259
 6.5062   5.80446
 6.4981   6.08894
 6.4900   6.19967
 6.4818   6.20800
 6.4737   6.25158
 6.4657   6.30055
 6.4576   6.30764
 6.4496   6.27052
 6.4416   6.34826
 6.4336   6.50683
 6.4256   6.61331
 6.4177   6.76467
 6.4097   6.78141
 6.4018   6.61831
 6.3939   6.55758
 6.3860   6.60652
 6.3782   6.53335
 6.3704   6.33889
 6.3625   6.28031
 6.3547   6.39795
 6.3470   6.44549
 6.3392   6.31140
 6.3315   6.19426
 6.3237   6.15273
 6.3160   6.18389
 6.3083   6.19462
 6.3007   6.12974
 6.2930   6.00080
 6.2854   5.96815
 6.2778   6.03613
 6.2702   6.00928
 6.2626   5.90116
 6.2551   5.88410
 6.2476   5.86602
 6.2400   5.85792
 6.2325   5.78346
 6.2251   5.70882
 6.2176   5.66770
 6.2101   5.62566
 6.2027   5.68601
 6.1953   5.73583
 6.1879   5.88767
 6.1805   5.98251
 6.1732   5.90385
 6.1658   5.90586
 6.1585   5.95162
 6.1512   5.97791
 6.1439   6.03034
 6.1367   6.01627
 6.1294   5.97723
 6.1222   6.09359
 6.1149   6.36090
 6.1077   6.33595
 6.1006   6.26419
 6.0934   6.33810
 6.0862   6.39483
 6.0791   6.52292
 6.0720   6.55976
 6.0649   6.43734
 6.0578   6.52258
 6.0507   6.69312
 6.0437   6.53207
 6.0366   6.39131
 6.0296   6.27291
 6.0226   6.21897
 6.0156   6.29628
 6.0087   6.19945
 6.0017   6.14833
 5.9948   6.17725
 5.9878   6.13969
 5.9809   6.10357
 5.9740   6.09409
 5.9672   6.05441
 5.9603   5.93347
 5.9535   5.90861
 5.9466   5.87964
 5.9398   5.99378
 5.9330   6.06159
 5.9262   5.93970
 5.9195   5.91647
 5.9127   5.99456
 5.9060   6.11756
 5.8993   6.25140
 5.8926   6.22222
 5.8859   6.34032
 5.8792   6.49886
 5.8726   6.37392
 5.8659   6.43129
 5.8593   6.42878
 5.8527   6.50430
 5.8461   6.60244
 5.8395   6.68461
 5.8329   6.76391
 5.8264   6.83491
 5.8198   6.90091
 5.8133   6.94201
 5.8068   6.99031
 5.8003   7.02606
 5.7938   7.07913
 5.7874   7.18001
 5.7809   7.23410
 5.7745   7.31348
 5.7680   7.40887
 5.7616   7.42745
 5.7552   7.41960
 5.7489   7.47876
 5.7425   7.59235
 5.7361   7.62927
 5.7298   7.69430
 5.7235   7.79863
 5.7172   7.77471
 5.7109   7.71071
 5.7046   7.72118
 5.6983   7.67118
 5.6921   7.57596
 5.6858   7.60569
 5.6796   7.63204
 5.6734   7.52471
 5.6672   7.43951
 5.6610   7.42779
 5.6548   7.30892
 5.6487   7.25693
 5.6425   7.20492
 5.6364   7.07813
 5.6303   7.00754
 5.6242   6.93772
 5.6181   6.94361
 5.6120   6.92645
 5.6059   6.94652
 5.5999   6.94877
 5.5938   6.85629
 5.5878   6.94805
 5.5818   7.03937
 5.5758   7.06336
 5.5698   7.04987
 5.5638   6.92235
 5.5578   6.88172
 5.5519   6.98233
 5.5460   7.01801
 5.5400   7.00291
 5.5341   7.03530
 5.5282   7.10624
 5.5223   7.17322
 5.5164   7.20188
 5.5106   7.20486
 5.5047   7.24468
 5.4989   7.33590
 5.4931   7.34638
 5.4873   7.29285
 5.4815   7.33478
 5.4757   7.52643
 5.4699   7.74807
 5.4641   7.85515
 5.4584   7.87986
 5.4527   7.88588
 5.4469   7.92378
 5.4412   8.02859
 5.4355   8.01229
 5.4298   7.92251
 5.4241   7.91379
 5.4185   7.82365
 5.4128   7.69739
 5.4072   7.57901
 5.4015   7.44601
 5.3959   7.43267
 5.3903   7.43558
 5.3847   7.38252
 5.3791   7.34707
 5.3735   7.32735
 5.3680   7.29510
 5.3624   7.31423
 5.3569   7.39885
 5.3514   7.45747
 5.3458   7.45024
 5.3403   7.50689
 5.3348   7.50697
 5.3294   7.49993
 5.3239   7.61553
 5.3184   7.72384
 5.3130   7.70614
 5.3075   7.70710
 5.3021   7.81595
 5.2967   7.98704
 5.2913   8.07025
 5.2859   8.02821
 5.2805   8.03949
 5.2751   8.14573
 5.2698   8.28219
 5.2644   8.33420
 5.2591   8.44316
 5.2538   8.58917
 5.2485   8.69237
 5.2431   8.84361
 5.2378   8.98461
 5.2326   9.14696
 5.2273   9.33424
 5.2220   9.45313
 5.2168   9.54721
 5.2115   9.70306
 5.2063   9.82086
 5.2011   9.92455
 5.1959  10.02160
 5.1907  10.13560
 5.1855  10.13430
 5.1803  10.02230
 5.1751  10.06180
 5.1700  10.13300
 5.1648  10.17900
 5.1597  10.23550
 5.1545  10.29060
 5.1494  10.30420
 5.1443  10.34540
 5.1392  10.42810
 5.1341  10.47850
 5.1291  10.53710
 5.1240  10.55930
 5.1189  10.59790
 5.1139  10.60070
 5.1088  10.60610
 5.1038  10.67340
 5.0988  10.76060
 5.0938  10.74580
 5.0888  10.72050
 5.0838  10.76960
 5.0788  10.73870
 5.0738  10.65690
 5.0689  10.67460
 5.0639  10.79570
 5.0590  10.84180
 5.0541  10.90360
 5.0491  10.78520
 5.0442  10.79320
 5.0393  10.95650
 5.0344  10.95640
 5.0296  10.96160
 5.0247  10.96580
 5.0198  10.96390
 5.0150  11.00710
 5.0101  11.01910
 5.0053  11.02500
 5.0004  11.07040
 4.9956  11.14290
 4.9908  11.18920
 4.9860  11.27430
 4.9812  11.38850
 4.9765  11.48730
 4.9717  11.56100
 4.9669  11.68930
 4.9622  11.91130
 4.9574  12.09380
 4.9527  12.25000
 4.9480  12.34030
 4.9432  12.53210
 4.9385  12.73180
 4.9338  12.78680
 4.9291  12.88420
 4.9245  12.98820
 4.9198  13.15490
 4.9151  13.52290
 4.9105  13.90850
 4.9058  14.20540
 4.9012  14.53180
 4.8966  14.96870
 4.8919  15.57730
 4.8873  16.13760
 4.8827  16.50210
 4.8781  16.92930
 4.8736  17.49300
 4.8690  17.89540
 4.8644  18.25680
 4.8599  18.68350
 4.8553  19.01310
 4.8508  19.21140
 4.8462  19.49310
 4.8417  19.78780
 4.8372  20.03270
 4.8327  20.23290
 4.8282  20.45380
 4.8237  20.81000
 4.8192  20.99880
 4.8147  21.17850
 4.8103  21.41280
 4.8058  21.68040
 4.8014  21.93150
 4.7969  22.15270
 4.7925  22.28470
 4.7881  22.41480
 4.7836  22.64250
 4.7792  22.91290
 4.7748  23.16260
 4.7704  23.28820
 4.7660  23.44160
 4.7617  23.57890
 4.7573  23.71980
 4.7530  23.98920
 4.7486  24.21000
 4.7443  24.30890
 4.7399  24.38700
 4.7356  24.49720
 4.7313  24.61990
 4.7270  24.62280
 4.7226  24.60900
 4.7184  24.67280
 4.7141  24.64730
 4.7098  24.49870
 4.7055  24.32830
 4.7012  24.16060
 4.6970  23.85450
 4.6927  23.54790
 4.6885  23.38470
 4.6842  23.26710
 4.6800  23.34010
 4.6758  23.59600
 4.6716  23.93210
 4.6674  24.38780
 4.6632  24.86550
 4.6590  25.31490
 4.6548  25.68340
 4.6506  26.09270
 4.6465  26.55330
 4.6423  26.96290
 4.6382  27.37020
 4.6340  27.78820
 4.6299  28.22740
 4.6258  28.62440
 4.6216  28.98980
 4.6175  29.42930
 4.6134  29.75640
 4.6093  30.04600
 4.6052  30.30810
 4.6011  30.42640
 4.5971  30.59980
 4.5930  30.72520
 4.5889  30.89220
 4.5849  31.16170
 4.5808  31.30580
 4.5768  31.33000
 4.5727  31.35490
 4.5687  31.31770
 4.5647  31.34820
 4.5607  31.38680
 4.5567  31.26580
 4.5526  31.15350
 4.5487  31.00050
 4.5447  30.77230
 4.5407  30.50050
 4.5367  30.14830
 4.5328  29.68870
 4.5288  29.26400
 4.5248  28.83060
 4.5209  28.35000
 4.5170  27.86250
 4.5130  27.31320
 4.5091  26.84640
 4.5052  26.53410
 4.5013  26.21640
 4.4974  25.88820
 4.4935  25.67830
 4.4896  25.53590
 4.4857  25.50620
 4.4818  25.48000
 4.4779  25.37420
 4.4741  25.22960
 4.4702  25.23230
 4.4664  25.27520
 4.4625  25.39190
 4.4587  25.69130
 4.4549  25.93220
 4.4510  26.21040
 4.4472  26.63970
 4.4434  26.86420
 4.4396  26.98440
 4.4358  27.23620
 4.4320  27.36520
 4.4282  27.53290
 4.4245  27.79030
 4.4207  28.07120
 4.4169  28.42250
 4.4132  28.70520
 4.4094  28.99650
 4.4057  29.40370
 4.4019  29.67780
 4.3982  29.95720
 4.3945  30.30490
 4.3907  30.69140
 4.3870  31.12960
 4.3833  31.54750
 4.3796  32.08320
 4.3759  32.58870
 4.3722  32.95570
 4.3685  33.27460
 4.3649  33.62850
 4.3612  34.04130
 4.3575  34.45970
 4.3539  34.77910
 4.3502  35.02680
 4.3466  35.28200
 4.3429  35.51140
 4.3393  35.63050
 4.3357  35.75290
 4.3320  35.85680
 4.3284  35.84280
 4.3248  35.79950
 4.3212  35.77930
 4.3176  35.58560
 4.3140  35.29990
 4.3105  35.00550
 4.3069  34.78080
 4.3033  34.55060
 4.2997  34.47540
 4.2962  34.38660
 4.2926  34.23630
 4.2890  34.08760
 4.2855  33.97480
 4.2820  34.01810
 4.2784  34.13490
 4.2749  34.30030
 4.2714  34.52550
 4.2679  34.90040
 4.2644  35.54260
 4.2609  36.40970
 4.2574  36.82570
 4.2539  36.41440
 4.2504  35.79090
 4.2469  35.27140
 4.2434  34.85450
 4.2400  34.61390
 4.2365  34.43980
 4.2330  34.32310
 4.2296  34.44270
 4.2261  34.70310
 4.2227  35.06240
 4.2193  35.55670
 4.2158  36.11480
 4.2124  36.66110
 4.2090  37.06330
 4.2056  37.34340
 4.2022  37.66190
 4.1988  37.94270
 4.1954  38.10970
 4.1920  38.32870
 4.1886  38.44110
 4.1852  38.57380
 4.1818  38.70590
 4.1785  38.84070
 4.1751  39.05740
 4.1717  39.21460
 4.1684  39.43280
 4.1650  39.50140
 4.1617  39.57910
 4.1584  39.75650
 4.1550  39.90460
 4.1517  40.09890
 4.1484  40.26260
 4.1451  40.26600
 4.1418  40.45480
 4.1384  40.76070
 4.1351  40.82260
 4.1319  40.89370
 4.1286  41.09530
 4.1253  41.32230
 4.1220  41.46600
 4.1187  41.57920
 4.1155  41.77240
 4.1122  41.99680
 4.1089  42.13720
 4.1057  42.36930
 4.1024  42.72220
 4.0992  42.99500
 4.0959  43.08270
 4.0927  43.14470
 4.0895  43.25080
 4.0863  43.41910
 4.0830  43.69980
 4.0798  43.91800
 4.0766  43.98400
 4.0734  44.09570
 4.0702  44.22420
 4.0670  44.33020
 4.0639  44.36100
 4.0607  44.33670
 4.0575  44.38040
 4.0543  44.36970
 4.0511  44.23480
 4.0480  44.31660
 4.0448  44.42850
 4.0417  44.30920
 4.0385  44.27800
 4.0354  44.36530
 4.0323  44.43180
 4.0291  44.31750
 4.0260  44.21830
 4.0229  44.13890
 4.0197  44.02660
 4.0166  44.01470
 4.0135  44.16960
 4.0104  44.32910
 4.0073  44.28130
 4.0042  44.19100
 4.0011  44.27370
 3.9981  44.31520
 3.9950  44.36900
 3.9919  44.41250
 3.9888  44.54480
 3.9857  44.69040
 3.9827  44.74910
 3.9796  44.76940
 3.9766  44.92330
 3.9735  45.17480
 3.9705  45.39650
 3.9675  45.42130
 3.9644  45.42580
 3.9614  45.57940
 3.9584  45.78250
 3.9554  46.06270
 3.9523  46.22980
 3.9493  46.21360
 3.9463  46.16860
 3.9433  46.36730
 3.9403  46.64960
 3.9373  46.85740
 3.9343  46.97450
 3.9314  47.00850
 3.9284  46.85000
 3.9254  46.74540
 3.9224  46.94240
 3.9195  47.14470
 3.9165  47.17050
 3.9136  47.13210
 3.9106  47.07110
 3.9077  47.06830
 3.9047  47.05880
 3.9018  47.00320
 3.8988  46.87840
 3.8959  46.82510
 3.8930  46.73340
 3.8901  46.71020
 3.8872  46.73050
 3.8842  46.60340
 3.8813  46.40410
 3.8784  46.20740
 3.8755  46.10280
 3.8726  46.07770
 3.8697  45.99860
 3.8669  45.95940
 3.8640  45.91010
 3.8611  45.87110
 3.8582  45.93040
 3.8554  45.91490
 3.8525  45.89350
 3.8496  45.81250
 3.8468  45.86650
 3.8439  46.05420
 3.8411  45.93740
 3.8382  46.00650
 3.8354  46.28970
 3.8326  46.22280
 3.8297  46.19780
 3.8269  46.29630
 3.8241  46.44430
 3.8213  46.39270
 3.8185  46.41660
 3.8157  46.56850
 3.8128  46.57260
 3.8100  46.50550
 3.8072  46.54880
 3.8045  46.57300
 3.8017  46.56810
 3.7989  46.41440
 3.7961  46.46190
 3.7933  46.49600
 3.7906  46.36710
 3.7878  46.23670
 3.7850  46.19690
 3.7822  46.06560
 3.7795  45.91730
 3.7767  45.97860
 3.7740  45.91420
 3.7713  45.56950
 3.7685  45.37450
 3.7658  45.38310
 3.7630  45.31590
 3.7603  45.09500
 3.7576  44.92350
 3.7549  44.89390
 3.7521  44.81550
 3.7494  44.66080
 3.7467  44.36180
 3.7440  44.10410
 3.7413  44.25590
 3.7386  44.41090
 3.7359  44.32240
 3.7332  44.19190
 3.7306  44.25590
 3.7279  44.34840
 3.7252  44.37770
 3.7225  44.48110
 3.7199  44.44970
 3.7172  44.38640
 3.7145  44.39850
 3.7119  44.42000
 3.7092  44.38540
 3.7066  44.27540
 3.7039  44.39230
 3.7013  44.54200
 3.6986  44.63680
 3.6960  44.77960
 3.6934  44.90670
 3.6907  44.91820
 3.6881  45.13240
 3.6855  45.35130
 3.6829  45.46280
 3.6803  45.64790
 3.6776  45.88460
 3.6750  46.06960
 3.6724  46.28630
 3.6698  46.31980
 3.6672  46.30510
 3.6646  46.43140
 3.6620  46.48940
 3.6595  46.36730
 3.6569  46.44570
 3.6543  46.60810
 3.6517  46.62950
 3.6492  46.62000
 3.6466  46.64700
 3.6440  46.78910
 3.6415  46.93840
 3.6389  46.74900
 3.6364  46.65770
 3.6338  46.76670
 3.6313  46.81560
 3.6287  46.78220
 3.6262  46.65180
 3.6237  46.74490
 3.6211  46.84780
 3.6186  46.74560
 3.6161  46.83760
 3.6136  46.96820
 3.6111  46.87260
 3.6085  46.75990
 3.6060  46.71810
 3.6035  46.64140
 3.6010  46.61260
 3.5985  46.71680
 3.5960  46.82880
 3.5935  46.72650
 3.5910  46.64320
 3.5886  46.56910
 3.5861  46.44440
 3.5836  46.41830
 3.5811  46.49860
 3.5787  46.53990
 3.5762  46.41680
 3.5737  46.30000
 3.5713  46.40780
 3.5688  46.52960
 3.5663  46.39570
 3.5639  46.28520
 3.5614  46.25750
 3.5590  46.21160
 3.5566  46.19510
 3.5541  46.19850
 3.5517  46.21190
 3.5493  46.16510
 3.5468  46.19160
 3.5444  46.11100
 3.5420  45.98880
 3.5396  45.99620
 3.5372  45.98180
 3.5347  45.99880
 3.5323  46.04530
 3.5299  45.93150
 3.5275  45.82650
 3.5251  45.74140
 3.5227  45.47760
 3.5203  45.25690
 3.5180  45.10500
 3.5156  44.89860
 3.5132  44.72190
 3.5108  44.51540
 3.5084  44.28680
 3.5061  44.16110
 3.5037  43.91630
 3.5013  43.90620
 3.4990  44.09330
 3.4966  44.10310
 3.4943  44.12780
 3.4919  44.26560
 3.4895  44.21460
 3.4872  44.09840
 3.4849  44.06310
 3.4825  44.14380
 3.4802  44.27300
 3.4778  44.30080
 3.4755  44.27640
 3.4732  44.35370
 3.4709  44.29420
 3.4685  43.99850
 3.4662  44.02170
 3.4639  44.17700
 3.4616  44.18940
 3.4593  44.05320
 3.4570  43.96350
 3.4547  44.02910
 3.4524  43.79710
 3.4501  43.47840
 3.4478  43.22970
 3.4455  43.05060
 3.4432  43.02300
 3.4409  43.10290
 3.4386  43.05480
 3.4364  42.74460
 3.4341  42.38390
 3.4318  42.23100
 3.4295  42.11300
 3.4273  41.73750
 3.4250  41.44130
 3.4228  41.24910
 3.4205  40.85140
 3.4182  40.69000
 3.4160  40.67560
 3.4137  40.48960
 3.4115  40.18080
 3.4093  40.22810
 3.4070  40.48120
 3.4048  40.42290
 3.4025  40.28930
 3.4003  40.34190
 3.3981  40.45170
 3.3958  40.42880
 3.3936  40.33990
 3.3914  40.31830
 3.3892  40.35840
 3.3870  40.35980
 3.3848  40.36280
 3.3826  40.09540
 3.3804  39.82740
 3.3782  39.68680
 3.3760  39.48470
 3.3738  39.28600
 3.3716  39.27150
 3.3694  39.32010
 3.3672  39.37930
 3.3650  39.28680
 3.3628  39.52560
 3.3606  39.70230
 3.3585  39.63790
 3.3563  39.39650
 3.3541  39.54940
 3.3520  39.71930
 3.3498  39.67940
 3.3476  39.63280
 3.3455  39.61660
 3.3433  39.75260
 3.3411  39.58510
 3.3390  39.19110
 3.3369  39.14950
 3.3347  39.19050
 3.3326  39.10730
 3.3304  39.00380
 3.3283  38.85680
 3.3262  38.80660
 3.3240  38.85260
 3.3219  38.84340
 3.3198  38.52730
 3.3176  38.22610
 3.3155  38.10500
 3.3134  38.19210
 3.3113  38.23250
 3.3092  38.16090
 3.3071  37.99990
 3.3049  37.81990
 3.3028  37.61930
 3.3007  37.62990
 3.2986  37.75210
 3.2965  37.65360
 3.2944  37.39770
 3.2924  37.17120
 3.2903  36.91130
 3.2882  36.74220
 3.2861  36.84610
 3.2840  37.03050
 3.2819  37.02630
 3.2799  36.88980
 3.2778  36.55850
 3.2757  36.43850
 3.2736  36.35760
 3.2716  36.27990
 3.2695  36.38770
 3.2675  36.22150
 3.2654  36.11620
 3.2634  36.16330
 3.2613  35.96320
 3.2593  35.69860
 3.2572  35.44340
 3.2552  35.47250
 3.2531  35.40730
 3.2511  35.19350
 3.2490  35.08000
 3.2470  35.10760
 3.2450  35.08240
 3.2429  35.00050
 3.2409  34.86500
 3.2389  34.82380
 3.2369  34.81000
 3.2348  34.67540
 3.2328  34.49180
 3.2308  34.47490
 3.2288  34.17670
 3.2268  33.96160
 3.2248  34.06810
 3.2228  34.10930
 3.2208  33.77870
 3.2188  33.66500
 3.2168  33.60190
 3.2148  33.50380
 3.2128  33.59500
 3.2108  33.64460
 3.2088  33.29540
 3.2068  33.00920
 3.2049  33.08110
 3.2029  33.17580
 3.2009  33.09270
 3.1989  32.98360
 3.1970  32.97520
 3.1950  32.89640
 3.1930  32.65920
 3.1911  32.48110
 3.1891  32.32650
 3.1871  32.21040
 3.1852  32.21230
 3.1832  32.13720
 3.1813  31.90960
 3.1793  31.79230
 3.1774  31.67090
 3.1754  31.57620
 3.1735  31.72570
 3.1715  31.78540
 3.1696  31.44300
 3.1677  31.28520
 3.1657  31.40940
 3.1638  31.26470
 3.1619  31.21250
 3.1599  30.90420
 3.1580  30.60960
 3.1561  30.74470
 3.1542  30.85920
 3.1523  30.63860
 3.1503  30.44740
 3.1484  30.41140
 3.1465  30.21200
 3.1446  30.15550
 3.1427  30.15240
 3.1408  30.05840
 3.1389  29.86330
 3.1370  29.69780
 3.1351  29.69010
 3.1332  29.64700
 3.1313  29.34330
 3.1294  29.32500
 3.1275  29.25160
 3.1257  29.25210
 3.1238  29.27160
 3.1219  29.04920
 3.1200  28.94820
 3.1181  28.96750
 3.1163  29.00600
 3.1144  28.84040
 3.1125  28.80620
 3.1107  29.04820
 3.1088  29.00600
 3.1069  28.80360
 3.1051  28.87730
 3.1032  28.69690
 3.1014  28.48250
 3.0995  28.45370
 3.0976  28.57280
 3.0958  28.50650
 3.0940  28.30250
 3.0921  27.98170
 3.0903  27.81440
 3.0884  27.85290
 3.0866  27.80000
 3.0848  27.96650
 3.0829  28.15950
 3.0811  28.25000
 3.0793  27.97550
 3.0774  27.58830
 3.0756  27.66410
 3.0738  27.83810
 3.0720  27.90430
 3.0701  27.71050
 3.0683  27.45380
 3.0665  27.35100
 3.0647  27.59100
 3.0629  27.85200
 3.0611  27.83560
 3.0593  27.38580
 3.0575  27.22390
 3.0557  27.25410
 3.0539  27.33640
 3.0521  27.04310
 3.0503  27.02970
 3.0485  27.20890
 3.0467  27.42340
 3.0449  27.42500
 3.0431  26.94840
 3.0413  26.78720
 3.0396  26.97530
 3.0378  26.87910
 3.0360  27.04560
 3.0342  27.21480
 3.0324  27.29720
 3.0307  27.02620
 3.0289  26.88790
 3.0271  27.19470
 3.0254  27.45000
 3.0236  27.19860
 3.0218  27.19730
 3.0201  27.35160
 3.0183  27.37850
 3.0166  27.06760
 3.0148  27.03520
 3.0130  27.24670
 3.0113  27.23410
 3.0096  27.12280
 3.0078  26.95530
 3.0061  26.80910
 3.0043  27.01150
 3.0026  27.37460
 3.0008  27.43520
 2.9991  27.00200
 2.9974  26.90020
 2.9956  27.19270
 2.9939  27.23440
 2.9922  26.72520
 2.9905  26.79750
 2.9887  27.10250
 2.9870  26.89640
 2.9853  26.85890
 2.9836  27.00140
 2.9819  27.00300
 2.9802  26.94650
 2.9784  26.64690
 2.9767  26.94840
 2.9750  27.44980
 2.9733  27.21370
 2.9716  26.63210
 2.9699  26.02490
 2.9682  25.81350
 2.9665  26.14730
 2.9648  26.13310
 2.9631  26.13100
 2.9614  26.12610
 2.9597  26.09850
 2.9581  25.95700
 2.9564  25.78090
 2.9547  25.76290
 2.9530  25.85970
 2.9513  25.88390
 2.9496  25.68020
 2.9480  25.48210
 2.9463  25.54820
 2.9446  25.60220
 2.9429  25.51150
 2.9413  25.47860
 2.9396  25.67970
 2.9379  25.65200
 2.9363  25.31890
 2.9346  25.14400
 2.9330  25.27400
 2.9313  25.47230
 2.9296  25.45090
 2.9280  25.19070
 2.9263  25.35290
 2.9247  25.18740
 2.9230  25.02890
 2.9214  25.24720
 2.9197  25.38420
 2.9181  25.09690
 2.9165  25.03870
 2.9148  24.56460
 2.9132  23.98020
 2.9116  24.12630
 2.9099  24.52690
 2.9083  24.50650
 2.9067  24.49350
 2.9050  24.80780
 2.9034  24.70730
 2.9018  24.98780
 2.9002  24.90920
 2.8985  24.67540
 2.8969  24.78700
 2.8953  24.61960
 2.8937  24.76150
 2.8921  25.04670
 2.8905  24.97150
 2.8888  25.09670
 2.8872  24.99730
 2.8856  25.10670
 2.8840  25.02230
 2.8824  25.14630
 2.8808  25.34690
 2.8792  25.21260
 2.8776  25.18460
 2.8760  25.33910
 2.8744  25.73240
 2.8728  25.68780
 2.8712  25.45240
 2.8697  25.51860
 2.8681  25.58580
 2.8665  25.50350
 2.8649  25.49020
 2.8633  25.54520
 2.8617  25.60690
 2.8602  25.55990
 2.8586  25.25880
 2.8570  25.37880
 2.8554  25.44600
 2.8539  25.29080
 2.8523  25.17280
 2.8507  25.20600
 2.8492  25.39340
 2.8476  25.51030
 2.8460  25.06070
 2.8445  24.55610
 2.8429  24.64860
 2.8413  24.54490
 2.8398  24.33630
 2.8382  24.04530
 2.8367  23.59110
 2.8351  23.19590
 2.8336  22.79160
 2.8320  22.36520
 2.8305  22.18550
 2.8289  21.99690
 2.8274  21.11710
 2.8259  20.42630
 2.8243  20.29670
 2.8228  20.09070
 2.8213  19.38210
 2.8197  18.40990
 2.8182  17.37810
 2.8167  16.94330
 2.8151  16.65890
 2.8136  16.12000
 2.8121  15.75340
 2.8106  15.54440
 2.8090  14.83600
 2.8075  14.63760
 2.8060  14.24740
 2.8045  12.92770
 2.8030  12.15150
 2.8014  12.01410
 2.7999  12.06550
 2.7984  12.06680
 2.7969  12.22710
 2.7954  11.86990
 2.7939  11.12910
 2.7924  11.34490
 2.7909  11.36870
 2.7894  10.31940
 2.7879   9.55625
 2.7864   9.30173
 2.7849   9.61366
 2.7834   9.95357
 2.7819  10.04680
 2.7804   9.39810
 2.7789   8.56016
 2.7774   8.55085
 2.7759   9.02229
 2.7745   9.06814
 2.7730   8.73374
 2.7715   8.31719
 2.7700   8.26198
 2.7685   8.26669
 2.7671   7.89316
 2.7656   7.37798
 2.7641   7.11399
 2.7626   6.65387
 2.7612   6.35159
 2.7597   6.34236
 2.7582   6.29216
 2.7568   6.71087
 2.7553   7.40339
 2.7538   7.78544
 2.7524   7.97369
 2.7509   7.84093
 2.7494   8.20533
 2.7480   8.44313
 2.7465   7.84788
 2.7451   7.37613
 2.7436   7.43822
 2.7422   8.07186
 2.7407   7.96506
 2.7393   7.38262
 2.7378   7.18263
 2.7364   7.90053
 2.7350   8.40990
 2.7335   8.20124
 2.7321   8.74039
 2.7306   9.27135
 2.7292   9.43199
 2.7278   9.46503
 2.7263   9.66403
 2.7249  10.18850
 2.7235  10.83520
 2.7220  11.87070
 2.7206  12.71980
 2.7192  13.30440
 2.7178  14.41380
 2.7163  15.05940
 2.7149  15.29880
 2.7135  15.48740
 2.7121  15.36300
 2.7106  14.97530
 2.7092  14.41390
 2.7078  13.69830
 2.7064  12.97190
 2.7050  12.90040
 2.7036  13.18560
 2.7022  14.16430
 2.7008  15.40660
 2.6994  16.83600
 2.6980  18.34840
 2.6965  19.54960
 2.6951  21.00880
 2.6938  22.06860
 2.6923  22.90580
 2.6910  24.33810
 2.6896  25.70780
 2.6882  26.80120
 2.6868  27.93230
 2.6854  28.81570
 2.6840  29.71680
 2.6826  30.57290
 2.6812  31.43290
 2.6798  32.02170
 2.6784  32.62270
 2.6771  33.61950
 2.6757  34.06130
 2.6743  34.28680
 2.6729  35.08370
 2.6715  36.27050
 2.6702  36.82510
 2.6688  36.59430
 2.6674  37.35530
 2.6660  38.25100
 2.6647  38.66990
 2.6633  38.67190
 2.6619  38.76920
 2.6606  39.00640
 2.6592  39.46890
 2.6578  39.85950
 2.6565  40.49060
 2.6551  40.74780
 2.6538  40.88940
 2.6524  40.90950
 2.6511  40.75870
 2.6497  41.05510
 2.6484  41.63030
 2.6470  42.05890
 2.6456  42.09540
 2.6443  42.02260
 2.6429  42.31380
 2.6416  42.54590
 2.6403  42.57080
 2.6389  42.73430
 2.6376  42.83520
 2.6362  43.02240
 2.6349  43.24710
 2.6336  43.40010
 2.6322  43.85290
 2.6309  44.39410
 2.6296  44.22070
 2.6282  44.22230
 2.6269  44.50030
 2.6256  44.33490
 2.6242  44.22650
 2.6229  44.23380
 2.6216  44.93380
 2.6203  45.04490
 2.6189  44.80650
 2.6176  45.24690
 2.6163  45.20640
 2.6150  44.85380
 2.6136  45.07370
 2.6123  44.99130
 2.6110  44.88510
 2.6097  45.16830
 2.6084  45.24580
 2.6071  45.33310
 2.6058  45.56790
 2.6044  45.30070
 2.6031  45.44990
 2.6018  45.62360
 2.6005  45.69770
 2.5992  45.42890
 2.5979  45.40710
 2.5966  46.27920
 2.5953  47.24540
 2.5940  46.91310
 2.5927  46.26670
 2.5914  45.97390
 2.5901  46.18590
 2.5888  46.60440
 2.5876  46.71840
 2.5863  46.51830
 2.5850  46.99860
 2.5837  46.91830
 2.5824  46.52410
 2.5811  46.95330
 2.5798  47.33730
 2.5785  47.21680
 2.5773  46.83490
 2.5760  46.67120
 2.5747  46.77880
 2.5734  46.97260
 2.5722  47.45980
 2.5709  48.24340
 2.5696  48.29120
 2.5683  47.94630
 2.5671  47.32860
 2.5658  47.34930
 2.5645  47.72290
 2.5633  48.23640
 2.5620  48.17620
 2.5607  47.76900
 2.5595  48.03270
 2.5582  48.05350
 2.5569  48.00640
 2.5557  48.13850
 2.5544  48.19110
 2.5532  48.19930
 2.5519  48.08720
 2.5507  47.91240
 2.5494  47.90010
 2.5481  47.52910
 2.5469  47.65230
 2.5456  47.70080
 2.5444  47.86870
 2.5431  48.09370
 2.5419  47.76590
 2.5406  47.54900
 2.5394  47.86230
 2.5382  48.40440
 2.5369  48.32490
 2.5357  48.05420
 2.5344  48.18010
 2.5332  48.08260
 2.5320  47.59290
 2.5307  47.38220
 2.5295  47.63900
 2.5283  47.74820
 2.5270  47.78180
 2.5258  47.96390
 2.5246  47.91010
 2.5233  47.35400
 2.5221  47.22930
 2.5209  47.71980
 2.5197  47.69210
 2.5184  47.41270
 2.5172  47.58000
 2.5160  46.84890
 2.5148  46.49290
 2.5136  46.66440
 2.5123  46.70590
 2.5111  46.84960
 2.5099  46.96990
 2.5087  46.67780
 2.5075  46.62080
 2.5063  46.79970
 2.5051  46.83850
 2.5038  46.84740
 2.5026  46.81000
 2.5014  46.65860
 2.5002  46.60430
 2.4990  46.75090
 2.4978  46.99600
 2.4966  46.91570
 2.4954  46.39730
 2.4942  46.27730
 2.4930  46.63940
 2.4918  46.78550
 2.4906  46.51960
 2.4894  46.29190
 2.4882  46.51270
 2.4870  46.67640
 2.4858  46.87320
 2.4846  46.92410
 2.4835  46.47450
 2.4823  46.39090
 2.4811  46.70020
 2.4799  46.91470
 2.4787  46.83370
 2.4775  46.39560
 2.4764  46.37970
 2.4752  46.36510
 2.4740  46.33350
 2.4728  46.63070
 2.4716  46.69990
 2.4705  46.94680
 2.4693  47.03310
 2.4681  46.76160
 2.4669  46.38280
 2.4657  46.48100
 2.4646  46.42090
 2.4634  46.33970
 2.4622  46.11520
 2.4611  45.49040
 2.4599  45.11670
 2.4587  45.32370
 2.4576  45.93730
 2.4564  46.20270
 2.4552  45.84710
 2.4541  45.93760
 2.4529  45.71510
 2.4518  45.63370
 2.4506  45.95150
 2.4494  45.99080
 2.4483  46.00210
 2.4471  45.79470
 2.4460  45.75870
 2.4448  45.60370
 2.4437  45.80150
 2.4425  46.02470
 2.4414  46.06980
 2.4402  45.91020
 2.4391  45.97020
 2.4379  46.52390
 2.4368  46.69330
 2.4356  46.84720
 2.4345  47.05290
 2.4333  47.06090
 2.4322  47.15030
 2.4311  47.12160
 2.4299  47.39690
 2.4288  47.09270
 2.4276  46.69550
 2.4265  47.22100
 2.4254  47.80090
 2.4242  48.59630
 2.4231  48.57910
 2.4220  48.38750
 2.4209  48.61660
 2.4197  48.93800
 2.4186  49.07800
 2.4175  49.22250
 2.4163  49.32740
 2.4152  48.93430
 2.4141  48.49180
 2.4130  48.64540
 2.4118  49.17290
 2.4107  49.59620
 2.4096  49.86110
 2.4085  49.79360
 2.4074  49.50750
 2.4063  49.33720
 2.4051  49.38620
 2.4040  49.49440
 2.4029  49.86860
 2.4018  49.77680
 2.4007  49.81120
 2.3996  49.62160
 2.3985  49.35050
 2.3973  49.35430
 2.3962  49.25980
 2.3951  48.87850
 2.3940  48.46660
 2.3929  48.15400
 2.3918  48.64660
 2.3907  48.84290
 2.3896  48.35640
 2.3885  48.05060
 2.3874  47.77280
 2.3863  47.30530
 2.3852  47.21880
 2.3841  47.69310
 2.3830  47.76530
 2.3819  47.53240
 2.3808  47.61640
 2.3798  47.83560
 2.3786  48.15010
 2.3776  48.04870
 2.3765  47.90680
 2.3754  48.09260
 2.3743  48.26520
 2.3732  48.41280
 2.3721  48.59280
 2.3710  48.74690
 2.3700  48.89100
 2.3689  48.96470
 2.3678  49.29020
 2.3667  49.32240
 2.3656  49.20590
 2.3645  49.24870
 2.3635  49.12830
 2.3624  49.06750
 2.3613  48.91940
 2.3603  48.93140
 2.3592  49.15150
 2.3581  49.35700
 2.3570  49.17350
 2.3560  48.98990
 2.3549  49.18290
 2.3538  49.36820
 2.3527  49.78570
 2.3517  50.05540
 2.3506  50.12530
 2.3495  49.84820
 2.3485  49.55690
 2.3474  49.80030
 2.3464  50.04750
 2.3453  50.47110
 2.3442  50.75770
 2.3432  50.56390
 2.3421  50.78000
 2.3411  50.96250
 2.3400  51.34890
 2.3390  51.23670
 2.3379  50.93570
 2.3369  51.60570
 2.3358  52.36930
 2.3347  52.39880
 2.3337  52.56150
 2.3326  53.27680
 2.3316  53.19940
 2.3306  52.67360
 2.3295  53.34000
 2.3285  53.48760
 2.3274  53.13650
 2.3264  53.28460
 2.3253  53.92290
 2.3243  54.63750
 2.3232  55.14420
 2.3222  55.13710
 2.3212  55.21050
 2.3201  55.22420
 2.3191  55.26750
 2.3180  55.70490
 2.3170  56.22540
 2.3160  56.54980
 2.3149  57.00830
 2.3139  57.17020
 2.3129  56.86740
 2.3118  56.89580
 2.3108  57.35470
 2.3098  58.01330
 2.3088  58.41540
 2.3077  58.20280
 2.3067  58.49400
 2.3057  59.00950
 2.3047  58.71820
 2.3036  58.68890
 2.3026  58.80090
 2.3016  59.17780
 2.3006  59.35170
 2.2995  59.15260
 2.2985  59.27690
 2.2975  59.44480
 2.2965  59.83700
 2.2955  60.07640
 2.2944  59.95060
 2.2934  59.59330
 2.2924  59.63490
 2.2914  60.03360
 2.2904  59.92110
 2.2894  59.99570
 2.2884  59.75190
 2.2874  59.50600
 2.2864  59.41450
 2.2854  59.42250
 2.2843  59.52760
 2.2833  59.71860
 2.2823  60.19100
 2.2813  60.38440
 2.2803  60.58000
 2.2793  60.30980
 2.2783  59.86630
 2.2773  60.21380
 2.2763  60.26080
 2.2753  60.01070
 2.2743  59.76980
 2.2733  59.33610
 2.2723  59.32530
 2.2713  59.60660
 2.2703  60.17320
 2.2694  60.23700
 2.2684  59.43520
 2.2674  58.73080
 2.2664  59.17150
 2.2654  60.13600
 2.2644  59.85690
 2.2634  58.99020
 2.2624  58.69730
 2.2614  58.62900
 2.2605  58.21440
 2.2595  57.65720
 2.2585  57.17370
 2.2575  57.06890
 2.2565  57.23200
 2.2555  56.53260
 2.2546  55.16400
 2.2536  54.96190
 2.2526  54.96580
 2.2516  54.47440
 2.2506  54.36260
 2.2497  53.80350
 2.2487  53.34270
 2.2477  53.35800
 2.2467  52.67630
 2.2458  51.96080
 2.2448  52.62130
 2.2438  53.15990
 2.2428  52.82560
 2.2419  52.17330
 2.2409  52.12030
 2.2399  51.93090
 2.2390  51.80100
 2.2380  52.13810
 2.2370  52.18400
 2.2361  52.19640
 2.2351  52.71930
 2.2342  52.83500
 2.2332  52.54620
 2.2322  52.47500
 2.2313  52.86100
 2.2303  52.31490
 2.2294  51.81100
 2.2284  52.37070
 2.2274  52.92770
 2.2265  53.01240
 2.2255  52.64220
 2.2246  52.49990
 2.2236  52.11710
 2.2227  51.54360
 2.2217  51.55060
 2.2208  51.55170
 2.2198  51.31930
 2.2189  50.70710
 2.2179  49.97090
 2.2170  49.31940
 2.2160  48.48350
 2.2151  48.00320
 2.2141  47.54360
 2.2132  46.64880
 2.2122  45.44770
 2.2113  44.46480
 2.2103  43.85130
 2.2094  43.29920
 2.2085  43.37850
 2.2075  43.95350
 2.2066  44.94060
 2.2056  45.71530
 2.2047  46.33520
 2.2038  47.29910
 2.2028  48.04790
 2.2019  48.57860
 2.2010  48.67820
 2.2000  49.27920
 2.1991  50.07250
 2.1982  49.95670
 2.1972  49.96060
 2.1963  50.19620
 2.1954  50.32750
 2.1944  50.81950
 2.1935  51.30330
 2.1926  51.97290
 2.1917  52.40490
 2.1907  52.83940
 2.1898  53.84630
 2.1889  55.04930
 2.1880  56.10460
 2.1870  56.25130
 2.1861  55.83300
 2.1852  56.17870
 2.1843  57.06530
 2.1833  57.30070
 2.1824  57.45480
 2.1815  58.13830
 2.1806  58.73100
 2.1797  59.07820
 2.1788  58.60440
 2.1778  58.65980
 2.1769  58.97910
 2.1760  59.19760
 2.1751  59.82180
 2.1742  59.78820
 2.1733  59.36600
 2.1724  59.46080
 2.1715  60.07600
 2.1706  59.87680
 2.1696  59.75400
 2.1687  60.14470
 2.1678  60.93940
 2.1669  61.02260
 2.1660  60.00030
 2.1651  59.56690
 2.1642  60.44850
 2.1633  60.49020
 2.1624  60.31730
 2.1615  60.58560
 2.1606  60.46260
 2.1597  60.40820
 2.1588  60.73500
 2.1579  61.26450
 2.1570  61.38230
 2.1561  61.39830
 2.1552  61.37030
 2.1543  61.34060
 2.1534  62.09880
 2.1525  62.89740
 2.1517  63.42190
 2.1507  63.51690
 2.1499  63.64810
 2.1490  63.73750
 2.1481  63.84020
 2.1472  64.24310
 2.1463  64.53060
 2.1454  65.14240
 2.1445  65.86270
 2.1436  65.56380
 2.1428  65.52100
 2.1419  66.15790
 2.1410  66.42930
 2.1401  66.18810
 2.1392  66.67310
 2.1383  66.51620
 2.1375  66.72370
 2.1366  67.05410
 2.1357  66.83740
 2.1348  66.99950
 2.1339  66.76190
 2.1331  66.19950
 2.1322  66.36970
 2.1313  67.39870
 2.1304  67.83380
 2.1296  67.09860
 2.1287  66.73760
 2.1278  67.07190
 2.1269  67.25770
 2.1261  67.66540
 2.1252  68.40680
 2.1243  68.56330
 2.1235  68.01310
 2.1226  67.84500
 2.1217  68.64760
 2.1208  68.84020
 2.1200  67.66890
 2.1191  66.69050
 2.1183  66.71100
 2.1174  67.16020
 2.1165  67.18350
 2.1157  67.80970
 2.1148  68.78390
 2.1139  68.46260
 2.1131  67.80490
 2.1122  68.08510
 2.1113  68.66070
 2.1105  68.70980
 2.1096  69.08620
 2.1088  68.87610
 2.1079  69.02490
 2.1071  69.04650
 2.1062  69.40520
 2.1054  69.38530
 2.1045  68.96710
 2.1036  69.61750
 2.1028  70.17460
 2.1019  70.03300
 2.1011  70.60720
 2.1002  70.71000
 2.0994  70.33450
 2.0985  69.79470
 2.0977  69.44520
 2.0968  69.56480
 2.0960  69.85530
 2.0951  69.95950
 2.0943  70.50180
 2.0934  70.94940
 2.0926  71.38120
 2.0918  70.94880
 2.0909  70.61830
 2.0901  71.11280
 2.0892  71.39460
 2.0884  71.03790
 2.0875  70.75020
 2.0867  70.69500
 2.0859  70.93120
 2.0850  71.62650
 2.0842  71.66600
 2.0833  71.00070
 2.0825  70.97440
 2.0817  71.40460
 2.0808  72.43270
 2.0800  73.37200
 2.0792  72.85990
 2.0783  71.84590
 2.0775  71.67710
 2.0767  72.23170
 2.0759  71.26470
 2.0750  71.72010
 2.0742  73.20490
 2.0734  73.14610
 2.0725  72.94610
 2.0717  72.56880
 2.0709  72.79620
 2.0701  72.54070
 2.0692  72.25150
 2.0684  72.66080
 2.0676  72.23990
 2.0667  71.66970
 2.0659  71.52090
 2.0651  71.92670
 2.0643  72.08970
 2.0635  71.95490
 2.0626  72.54100
 2.0618  72.39870
 2.0610  72.74560
 2.0602  72.85490
 2.0594  72.73630
 2.0585  71.99160
 2.0577  71.04960
 2.0569  70.86050
 2.0561  71.50300
 2.0553  72.90580
 2.0545  73.46970
 2.0537  72.44540
 2.0528  72.08800
 2.0520  72.95200
 2.0512  72.09370
 2.0504  70.35870
 2.0496  71.07320
 2.0488  72.33550
 2.0480  72.95770
 2.0472  72.53950
 2.0464  73.15070
 2.0456  73.88100
 2.0447  70.90070
 2.0439  72.24710
 2.0431  73.10810
 2.0423  71.96640
 2.0415  71.66900
 2.0407  70.56250
 2.0399  72.23370
 2.0391  73.15060
 2.0383  72.16560
 2.0375  73.51170
 2.0367  74.05780
 2.0359  73.86150
 2.0351  74.08670
 2.0343  73.52110
 2.0335  72.93840
 2.0327  72.38070
 2.0319  72.86460
 2.0311  73.20200
 2.0303  73.37490
 2.0295  74.62340
 2.0287  75.46360
 2.0280  74.31780
 2.0272  72.96140
 2.0264  71.66050
 2.0256  71.71510
 2.0248  73.53360
 2.0240  75.63820
 2.0232  75.21150
 2.0224  73.04520
 2.0216  72.29880
 2.0208  72.24160
 2.0200  72.28070
 2.0193  73.03270
 2.0185  73.75560
 2.0177  74.67750
 2.0169  74.70740
 2.0161  74.59970
 2.0153  74.76520
 2.0146  73.48460
 2.0138  73.25430
 2.0130  72.81670
 2.0122  72.06510
 2.0114  72.45390
 2.0107  72.83690
 2.0099  72.99740
 2.0091  73.16040
 2.0083  72.36440
 2.0075  72.41280
 2.0068  72.33200
 2.0060  72.91610
 2.0052  73.50800
 2.0044  73.72660
 2.0037  73.52320
 2.0029  73.40880
 2.0021  73.06370
 2.0013  73.02520
 2.0006  73.59280
 1.9998  74.37100
