Name: Glauberite Na_2Ca(SO_4)_2
Type: Mineral
Class: Sulfates
Subclass: 
Particle Size: 45-125um
Sample No.: SO-8A
Owner: JPL
Wavelength range: IR
Origin: USA, Arizona, Yavapai County, Campe Verde
Collected by Burminco
Description: 





Measurement: Hemispherical reflectance
First Column: X
Second Column: Y
X Units:  Wavelength (micrometers)
Y Units:  Reflectance (percent)
First X Value: 15.3853
Last X Value: 2.00032
Number of X Values: 2256
Additional information: so08aa.txt
 
15.3853	8.91723
15.3397	8.94237
15.2945	7.2408
15.2495	4.27852
15.2048	1.98101
15.1603	1.24158
15.1161	1.25148
15.0722	1.6402
15.0285	1.66452
14.9851	1.76908
14.9419	2.16244
14.8989	2.34854
14.8563	2.65264
14.8138	2.93017
14.7716	3.23195
14.7296	3.76074
14.6879	4.09838
14.6464	4.31064
14.6052	4.65814
14.5641	5.02949
14.5233	5.43284
14.4828	5.8142
14.4424	6.18971
14.4023	6.78923
14.3624	7.21008
14.3227	7.37313
14.2833	7.60993
14.244	8.05935
14.205	8.2179
14.1662	8.17533
14.1276	8.2602
14.0892	8.63707
14.051	8.91038
14.0131	8.96248
13.9753	8.98266
13.9377	9.04087
13.9004	9.30489
13.8632	9.42512
13.8262	9.45576
13.7895	9.62851
13.7529	9.90423
13.7165	10.2424
13.6803	10.4306
13.6443	10.4036
13.6085	10.3636
13.5729	10.3728
13.5374	10.6039
13.5022	10.8017
13.4671	10.5975
13.4322	10.5794
13.3975	10.5119
13.363	10.6567
13.3286	10.8016
13.2944	10.815
13.2604	10.7726
13.2266	10.8043
13.193	10.9053
13.1595	11.0982
13.1262	11.2795
13.093	11.3562
13.06	11.4207
13.0272	11.7575
12.9946	12.2417
12.9621	12.5178
12.9298	12.7632
12.8976	13.0675
12.8656	13.3673
12.8337	13.6362
12.8021	13.8025
12.7705	14.1162
12.7391	14.504
12.7079	14.8493
12.6769	15.1737
12.6459	15.5574
12.6152	15.6858
12.5845	15.9865
12.5541	16.3357
12.5238	16.421
12.4936	16.6287
12.4635	17.0693
12.4337	17.4219
12.4039	17.6485
12.3743	17.875
12.3448	18.0056
12.3155	18.031
12.2863	18.0788
12.2573	18.3155
12.2284	18.5311
12.1996	18.5411
12.171	18.4218
12.1425	18.3142
12.1141	18.2476
12.0859	18.1851
12.0578	18.1413
12.0298	18.2377
12.0019	18.352
11.9742	18.1996
11.9466	17.9669
11.9192	17.986
11.8918	18.0549
11.8646	18.1309
11.8375	18.1258
11.8106	18.086
11.7837	18.2594
11.757	18.2998
11.7304	18.1696
11.7039	18.2868
11.6776	18.3807
11.6513	18.3403
11.6252	18.3671
11.5992	18.5465
11.5733	18.6123
11.5475	18.5827
11.5219	18.5939
11.4963	18.5707
11.4709	18.4045
11.4455	18.1538
11.4203	18.1637
11.3952	18.1669
11.3702	18.1028
11.3454	18.0622
11.3206	18.0614
11.2959	18.0681
11.2714	18.1099
11.2469	18.083
11.2226	17.9322
11.1983	17.8764
11.1742	17.7413
11.1502	17.4557
11.1263	17.118
11.1024	16.6411
11.0787	16.1742
11.0551	15.8637
11.0316	15.6379
11.0081	15.5337
10.9848	15.433
10.9616	15.1885
10.9385	15.0627
10.9154	14.7494
10.8925	14.4643
10.8697	14.4024
10.8469	14.2188
10.8243	14.1082
10.8017	14.1293
10.7793	13.9845
10.7569	13.9184
10.7346	13.8952
10.7125	13.8916
10.6904	13.8926
10.6684	13.8366
10.6465	13.7368
10.6247	13.6179
10.6029	13.4982
10.5813	13.3826
10.5597	13.267
10.5383	13.1125
10.5169	12.9384
10.4956	12.7422
10.4744	12.6109
10.4533	12.5531
10.4323	12.3751
10.4113	12.2262
10.3904	12.0181
10.3697	11.6329
10.349	11.3251
10.3284	11.1696
10.3078	10.8232
10.2874	10.4533
10.267	10.1593
10.2467	9.89483
10.2265	9.51529
10.2064	9.07202
10.1863	8.67837
10.1663	8.36022
10.1464	8.27537
10.1266	8.2651
10.1069	8.01649
10.0872	7.79302
10.0676	7.56229
10.0481	7.24365
10.0287	6.99854
10.0093	7.00989
9.99005	7.13411
9.97084	7.15321
9.95169	7.06584
9.93263	7.06626
9.91364	7.13943
9.89472	7.09594
9.87587	7.10191
9.8571	7.1279
9.83839	7.11282
9.81976	7.06015
9.80119	6.92421
9.78271	6.89501
9.76428	6.9682
9.74592	6.90293
9.72764	6.90666
9.70943	6.92373
9.69128	6.99115
9.6732	7.16398
9.65518	7.13037
9.63724	7.0055
9.61935	7.11335
9.60155	7.28976
9.5838	7.32062
9.56611	7.32363
9.5485	7.37222
9.53094	7.44551
9.51345	7.52897
9.49604	7.69336
9.47867	7.85825
9.46137	7.98946
9.44414	8.10267
9.42697	8.21517
9.40986	8.44848
9.39281	8.88595
9.37583	9.26049
9.35891	9.52193
9.34204	9.83527
9.32524	10.1086
9.3085	10.5146
9.29182	11.2176
9.27519	11.8445
9.25863	12.4308
9.24213	13.1517
9.22568	14.2025
9.2093	15.2099
9.19297	15.9265
9.17669	16.6572
9.16048	17.6493
9.14433	18.5502
9.12823	19.4275
9.11218	20.3248
9.0962	21.2882
9.08027	22.2061
9.06439	23.1508
9.04858	24.0785
9.03281	24.3139
9.0171	23.5903
9.00145	22.5798
8.98585	22.4388
8.9703	23.2093
8.9548	24.3396
8.93937	25.6748
8.92398	27.179
8.90865	28.7924
8.89337	30.5317
8.87814	32.4904
8.86296	34.838
8.84784	37.2014
8.83277	39.0719
8.81774	40.1811
8.80277	40.6036
8.78786	40.5855
8.77298	40.2153
8.75816	39.3426
8.7434	37.8766
8.72868	35.7118
8.714	33.8899
8.69938	34.4123
8.68481	37.1909
8.67029	39.9091
8.65581	41.231
8.64139	41.518
8.62701	41.3341
8.61268	40.7765
8.5984	40.1173
8.58416	39.5147
8.56997	38.8315
8.55583	37.9659
8.54174	36.8532
8.52769	35.3608
8.51368	33.5763
8.49973	31.7465
8.48582	30.0254
8.47195	28.5637
8.45813	27.56
8.44436	26.9432
8.43062	26.5587
8.41693	26.3494
8.4033	26.2094
8.3897	26.0033
8.37614	26.0643
8.36264	26.2614
8.34917	26.3587
8.33574	26.2748
8.32236	25.9357
8.30903	25.4966
8.29573	25.1125
8.28248	24.5931
8.26927	23.865
8.2561	22.8669
8.24298	21.4667
8.2299	19.902
8.21685	18.3951
8.20385	16.7454
8.19089	14.7917
8.17797	12.972
8.16509	11.2047
8.15225	9.48778
8.13946	8.06686
8.1267	6.78833
8.11398	5.72407
8.10131	5.02363
8.08867	4.25437
8.07606	3.51007
8.0635	2.99636
8.05099	2.58555
8.0385	2.14803
8.02606	1.72357
8.01366	1.43658
8.00129	1.22335
7.98896	1.02039
7.97667	0.885581
7.96442	0.720915
7.9522	0.589063
7.94002	0.484086
7.92788	0.447926
7.91578	0.39423
7.90371	0.27481
7.89168	0.235853
7.87969	0.22336
7.86773	0.183869
7.85581	0.118027
7.84392	0.111161
7.83207	0.1962
7.82026	0.241175
7.80849	0.209264
7.79674	0.219119
7.78503	0.189751
7.77337	0.124002
7.76173	0.174202
7.75012	0.287327
7.73856	0.263498
7.72703	0.244553
7.71553	0.32086
7.70406	0.324111
7.69263	0.388586
7.68123	0.404715
7.66987	0.395679
7.65855	0.45247
7.64725	0.547066
7.63598	0.501652
7.62475	0.520367
7.61356	0.612975
7.60239	0.641614
7.59126	0.642273
7.58017	0.752212
7.5691	0.925427
7.55806	1.07845
7.54707	1.06523
7.5361	1.12288
7.52516	1.20491
7.51425	1.3283
7.50338	1.46407
7.49253	1.59055
7.48172	1.7601
7.47094	2.02755
7.46019	2.24614
7.44947	2.40359
7.43879	2.62005
7.42813	2.88541
7.4175	3.04855
7.4069	3.31652
7.39634	3.65037
7.3858	3.9054
7.37529	4.12874
7.36482	4.32995
7.35437	4.59322
7.34396	4.83831
7.33357	5.05262
7.32321	5.29569
7.31288	5.6278
7.30258	5.84848
7.29231	6.11209
7.28207	6.34906
7.27185	6.50305
7.26167	6.78857
7.25152	7.09026
7.24139	7.51254
7.23129	7.89431
7.22122	8.11265
7.21117	8.37715
7.20116	8.71099
7.19117	8.96505
7.18121	9.21835
7.17128	9.57951
7.16137	9.85681
7.1515	10.1307
7.14164	10.5109
7.13182	10.7942
7.12203	11.134
7.11225	11.6063
7.10251	12.0926
7.0928	12.5315
7.08311	13.1136
7.07344	13.6789
7.06381	14.2446
7.0542	14.9494
7.04461	15.6674
7.03506	16.0942
7.02552	16.6638
7.01601	17.346
7.00653	17.9396
6.99708	18.5736
6.98765	19.1496
6.97824	19.6587
6.96886	20.3051
6.95951	20.9369
6.95018	21.1733
6.94087	21.4555
6.9316	21.7905
6.92234	22.0929
6.91311	22.4172
6.90391	22.5656
6.89473	22.5991
6.88557	22.7673
6.87644	23.1353
6.86733	23.9228
6.85824	24.4308
6.84918	24.5378
6.84015	24.7841
6.83114	25.0362
6.82215	24.9047
6.81319	24.3789
6.80424	23.7745
6.79532	23.358
6.78643	23.0049
6.77756	22.6457
6.76871	22.5319
6.75989	22.5013
6.75109	22.4884
6.74231	22.4881
6.73355	22.8886
6.72482	23.6967
6.71611	24.7679
6.70742	25.8811
6.69875	26.96
6.69011	28.2001
6.68149	29.2422
6.67289	29.7117
6.66431	29.9176
6.65576	30.1047
6.64722	30.786
6.63871	31.6888
6.63022	31.7841
6.62175	31.7039
6.61331	32.0201
6.60488	32.4579
6.59648	32.9303
6.5881	33.2691
6.57974	33.747
6.5714	34.0843
6.56308	33.7018
6.55478	33.3974
6.54651	32.9402
6.53825	32.2018
6.53001	31.3554
6.5218	30.3996
6.51361	28.9516
6.50544	27.7604
6.49729	27.037
6.48915	25.9046
6.48104	24.5614
6.47295	23.5825
6.46488	22.8931
6.45683	22.5703
6.4488	22.5626
6.44079	22.6793
6.4328	22.8733
6.42482	22.9693
6.41687	23.2964
6.40894	22.9765
6.40103	22.2273
6.39314	21.7528
6.38526	21.3336
6.37741	20.9352
6.36957	20.4741
6.36176	19.6797
6.35396	19.1917
6.34618	19.061
6.33843	18.5264
6.33069	17.9395
6.32297	17.6467
6.31527	17.4008
6.30758	17.1733
6.29992	16.8667
6.29227	16.6437
6.28465	16.5082
6.27704	16.3713
6.26945	16.2453
6.26188	16.0751
6.25432	15.8324
6.24679	15.5163
6.23927	15.0189
6.23177	14.3426
6.22429	13.6589
6.21683	13.412
6.20938	13.7772
6.20195	14.5111
6.19454	15.1194
6.18715	15.4227
6.17978	15.4925
6.17242	16.015
6.16508	17.4649
6.15776	18.9452
6.15045	19.5642
6.14317	19.5054
6.1359	19.0696
6.12864	18.8449
6.12141	19.1727
6.11419	19.5953
6.10699	19.2395
6.0998	18.593
6.09263	18.2742
6.08549	18.4467
6.07835	19.2182
6.07123	20.2119
6.06413	21.0022
6.05705	22.4762
6.04998	25.0917
6.04293	27.4638
6.0359	29.5754
6.02888	31.9176
6.02187	33.8071
6.01489	35.2355
6.00792	35.9885
6.00096	36.6736
5.99403	37.5675
5.98711	38.0395
5.9802	37.9358
5.97331	38.196
5.96644	38.7161
5.95958	39.2741
5.95274	40.2093
5.94591	41.2691
5.9391	42.6965
5.9323	43.3293
5.92552	43.4136
5.91876	43.9022
5.91201	44.4377
5.90528	45.2139
5.89856	46.4152
5.89186	46.737
5.88517	47.1731
5.8785	47.335
5.87184	46.4041
5.8652	46.0513
5.85857	45.5798
5.85196	45.1777
5.84536	44.9828
5.83878	44.9563
5.83221	45.1463
5.82566	45.4701
5.81912	45.2625
5.81259	44.4608
5.80608	44.0181
5.79959	43.731
5.79311	43.1781
5.78665	42.5867
5.78019	41.9798
5.77376	41.5896
5.76734	41.3529
5.76093	40.3449
5.75453	39.5786
5.74815	39.3843
5.74179	39.0604
5.73543	38.8587
5.7291	38.7509
5.72277	38.722
5.71646	38.7524
5.71017	38.7577
5.70389	38.5023
5.69762	38.3103
5.69136	38.1868
5.68513	37.9802
5.6789	37.9904
5.67268	37.9612
5.66648	37.9354
5.6603	38.3182
5.65413	38.6333
5.64797	38.7392
5.64182	38.8964
5.63569	38.6519
5.62957	38.476
5.62347	38.4527
5.61737	38.4638
5.61129	38.4163
5.60522	38.6341
5.59917	39.1244
5.59313	39.6588
5.5871	40.4591
5.58109	41.427
5.57509	42.148
5.5691	42.7924
5.56312	43.7119
5.55716	44.5105
5.55121	45.0307
5.54528	45.326
5.53935	45.5664
5.53344	45.6246
5.52754	45.6274
5.52166	45.6291
5.51578	45.5956
5.50992	45.5777
5.50407	45.6814
5.49823	45.8622
5.49241	46.2192
5.4866	46.5782
5.4808	46.9539
5.47501	47.2261
5.46923	47.6619
5.46347	48.0905
5.45772	48.3031
5.45198	48.6468
5.44625	49.1535
5.44054	49.6331
5.43484	50.1177
5.42914	50.7668
5.42347	51.5379
5.4178	51.9282
5.41214	52.3408
5.4065	53.0083
5.40087	53.8854
5.39525	54.7855
5.38964	55.6208
5.38404	56.446
5.37846	57.2715
5.37288	57.9832
5.36732	58.5965
5.36177	59.1858
5.35623	59.8557
5.35071	60.4391
5.34519	60.6367
5.33968	60.7356
5.33419	61.0118
5.32871	61.2799
5.32324	61.4608
5.31778	61.6118
5.31233	61.7459
5.30689	61.8033
5.30147	61.8824
5.29605	62.0007
5.29065	62.1039
5.28525	62.131
5.27987	62.2388
5.2745	62.3166
5.26914	62.3894
5.26379	62.4082
5.25845	62.4225
5.25312	62.509
5.24781	62.6291
5.2425	62.6557
5.23721	62.6782
5.23192	62.6531
5.22665	62.6443
5.22138	62.6723
5.21613	62.8178
5.21089	62.8021
5.20566	62.7177
5.20044	62.8079
5.19522	62.7812
5.19002	62.7115
5.18483	62.653
5.17965	62.6545
5.17448	62.6633
5.16933	62.5443
5.16418	62.4633
5.15904	62.4595
5.15391	62.4205
5.14879	62.3739
5.14368	62.2461
5.13859	62.0448
5.1335	61.8842
5.12842	61.7451
5.12335	61.6002
5.1183	61.3732
5.11325	61.0448
5.10821	60.7843
5.10318	60.6621
5.09817	60.5356
5.09316	60.4575
5.08816	60.3435
5.08317	60.1586
5.07819	59.8852
5.07322	59.5887
5.06826	59.2391
5.06331	58.8155
5.05837	58.2836
5.05344	57.7409
5.04852	57.0537
5.04361	56.1298
5.03871	54.9777
5.03382	53.4268
5.02894	51.281
5.02406	48.2714
5.0192	44.2907
5.01435	40.0764
5.0095	37.9034
5.00467	39.2082
4.99984	42.4593
4.99502	45.6809
4.99021	48.1819
4.98542	49.8262
4.98063	50.7458
4.97585	51.1477
4.97108	51.2916
4.96632	51.3228
4.96156	51.2333
4.95682	51.0265
4.95209	50.707
4.94736	50.3873
4.94264	49.9782
4.93794	49.5567
4.93324	49.151
4.92855	48.6879
4.92387	48.1609
4.9192	47.6108
4.91453	47.0165
4.90988	46.3216
4.90524	45.5958
4.9006	44.847
4.89597	44.0915
4.89135	43.3332
4.88674	42.502
4.88214	41.62
4.87755	40.6866
4.87296	39.7849
4.86839	38.7655
4.86382	37.5303
4.85926	36.281
4.85471	34.9839
4.85017	33.5702
4.84564	32.0747
4.84111	30.5465
4.8366	28.962
4.83209	27.2424
4.82759	25.4061
4.8231	23.4459
4.81862	21.359
4.81415	19.2168
4.80968	16.9732
4.80522	14.6131
4.80077	12.3732
4.79633	10.3822
4.7919	8.83697
4.78747	7.71342
4.78306	6.87684
4.77865	6.27315
4.77425	5.81087
4.76986	5.4259
4.76547	5.2521
4.7611	5.20538
4.75673	5.16462
4.75237	5.06211
4.74802	4.86713
4.74367	4.65164
4.73934	4.36084
4.73501	4.2202
4.73069	4.12687
4.72638	4.04738
4.72207	4.01749
4.71777	3.95309
4.71348	3.98124
4.7092	4.0528
4.70493	4.01897
4.70066	4.06432
4.69641	4.17931
4.69216	4.34428
4.68791	4.57186
4.68368	4.9022
4.67945	5.20935
4.67523	5.50836
4.67102	5.85828
4.66682	6.33953
4.66262	6.95491
4.65843	7.54453
4.65425	7.92886
4.65007	8.06677
4.64591	8.21025
4.64175	8.26685
4.6376	8.2718
4.63345	8.24548
4.62932	8.15236
4.62519	8.12372
4.62106	8.24234
4.61695	8.44639
4.61284	8.66598
4.60874	8.90814
4.60465	9.2267
4.60056	9.59058
4.59648	9.95616
4.59241	10.1319
4.58835	10.1457
4.58429	10.1487
4.58024	9.98851
4.5762	9.65684
4.57216	9.27954
4.56814	8.9085
4.56411	8.60629
4.5601	8.42614
4.55609	8.31792
4.55209	8.26738
4.5481	8.38499
4.54411	8.47978
4.54013	8.64713
4.53616	8.89317
4.5322	9.02909
4.52824	9.18383
4.52429	9.40203
4.52034	9.62565
4.51641	9.81232
4.51247	10.0519
4.50855	10.4184
4.50463	10.8312
4.50072	11.2966
4.49682	11.7036
4.49292	12.0166
4.48903	12.1885
4.48515	12.3436
4.48127	12.4772
4.4774	12.428
4.47354	12.3986
4.46968	12.4255
4.46584	12.3825
4.46199	12.2075
4.45815	12.049
4.45432	11.8852
4.4505	11.5773
4.44668	11.3294
4.44287	11.0521
4.43907	10.8182
4.43527	10.7713
4.43148	10.7212
4.4277	10.6901
4.42392	10.689
4.42015	10.7695
4.41638	10.7392
4.41262	10.7111
4.40887	10.8322
4.40513	10.9372
4.40139	11.0975
4.39765	11.2926
4.39393	11.5282
4.39021	11.7684
4.38649	11.9674
4.38278	12.2133
4.37908	12.3017
4.37539	12.254
4.3717	12.1111
4.36801	12.0298
4.36434	11.9911
4.36067	11.8483
4.357	11.6642
4.35335	11.631
4.34969	11.691
4.34605	11.824
4.34241	12.2011
4.33877	12.6595
4.33514	12.9375
4.33152	13.1383
4.32791	13.4057
4.3243	13.7473
4.32069	14.0303
4.3171	14.2195
4.31351	14.4332
4.30992	14.7287
4.30634	15.0516
4.30277	15.4052
4.2992	15.7779
4.29564	16.2254
4.29208	16.7704
4.28853	17.2578
4.28499	17.7387
4.28145	18.2855
4.27792	18.9209
4.27439	19.5684
4.27087	20.1346
4.26735	20.7768
4.26384	21.5301
4.26034	22.3056
4.25684	23.0528
4.25335	23.7171
4.24986	24.3116
4.24638	24.8874
4.24291	25.497
4.23944	26.3183
4.23598	27.2233
4.23252	28.1372
4.22906	29.1748
4.22562	30.2899
4.22218	31.3093
4.21874	32.2656
4.21531	33.2606
4.21189	34.3038
4.20847	35.3236
4.20506	36.3453
4.20165	37.2936
4.19825	38.1458
4.19485	39.0265
4.19146	39.8295
4.18807	40.5067
4.18469	41.2295
4.18132	42.0416
4.17795	42.8019
4.17458	43.6052
4.17123	44.4875
4.16787	45.4646
4.16453	46.437
4.16118	47.309
4.15785	48.1056
4.15451	48.9638
4.15119	49.7759
4.14787	50.5318
4.14455	51.3479
4.14124	52.075
4.13794	52.7343
4.13464	53.3628
4.13134	53.9419
4.12805	54.5318
4.12477	55.0836
4.12149	55.6888
4.11822	56.2276
4.11495	56.7623
4.11168	57.2787
4.10843	57.717
4.10517	58.2218
4.10192	58.7468
4.09868	59.2028
4.09545	59.5924
4.09221	60.0247
4.08899	60.4992
4.08576	60.9081
4.08255	61.3226
4.07933	61.7628
4.07613	62.1976
4.07292	62.6927
4.06973	63.1154
4.06654	63.4573
4.06335	63.8438
4.06017	64.2336
4.05699	64.5896
4.05382	64.938
4.05065	65.2813
4.04749	65.6127
4.04433	66.0133
4.04118	66.4292
4.03803	66.8145
4.03489	67.1147
4.03175	67.4222
4.02862	67.8036
4.02549	68.1908
4.02237	68.5321
4.01925	68.8726
4.01614	69.1749
4.01303	69.455
4.00993	69.8125
4.00683	70.1346
4.00373	70.3732
4.00064	70.6871
3.99756	70.9385
3.99448	71.1581
3.9914	71.3619
3.98833	71.5563
3.98527	71.6676
3.98221	71.7698
3.97915	71.9765
3.9761	72.1422
3.97305	72.2421
3.97001	72.3443
3.96697	72.451
3.96394	72.5822
3.96091	72.6429
3.95789	72.7596
3.95487	72.7994
3.95186	72.8201
3.94885	72.9326
3.94584	73.0146
3.94284	73.082
3.93984	73.1558
3.93685	73.2014
3.93386	73.2458
3.93088	73.3578
3.9279	73.5064
3.92493	73.6167
3.92196	73.7514
3.919	73.9451
3.91604	74.1188
3.91308	74.2269
3.91013	74.3616
3.90718	74.4687
3.90424	74.51
3.9013	74.5508
3.89837	74.6059
3.89544	74.6169
3.89252	74.6472
3.8896	74.7221
3.88668	74.8084
3.88377	74.8583
3.88086	74.8585
3.87796	74.903
3.87506	74.9611
3.87217	74.9721
3.86928	75.0173
3.86639	75.0975
3.86351	75.1229
3.86064	75.1459
3.85776	75.1225
3.8549	75.062
3.85203	74.9631
3.84917	74.7579
3.84631	74.5514
3.84346	74.3994
3.84062	74.4115
3.83777	74.5828
3.83494	74.7387
3.8321	74.8833
3.82927	75.0724
3.82644	75.2006
3.82362	75.3644
3.82081	75.5412
3.81799	75.6793
3.81518	75.7408
3.81238	75.7491
3.80958	75.6702
3.80678	75.5797
3.80399	75.484
3.8012	75.5132
3.79841	75.6036
3.79563	75.6224
3.79286	75.6072
3.79008	75.6505
3.78731	75.8922
3.78455	76.145
3.78179	76.333
3.77903	76.6986
3.77628	77.1798
3.77353	77.7037
3.77079	78.1695
3.76805	78.5439
3.76531	78.8897
3.76258	79.2168
3.75985	79.369
3.75713	79.4986
3.7544	79.5813
3.75169	79.7151
3.74898	79.8869
3.74627	79.9484
3.74356	79.9432
3.74086	79.998
3.73816	80.0521
3.73547	80.0921
3.73278	80.0788
3.7301	80.0716
3.72741	80.1316
3.72474	80.1585
3.72206	80.182
3.71939	80.2041
3.71673	80.1995
3.71406	80.1719
3.71141	80.1519
3.70875	80.1669
3.7061	80.1776
3.70345	80.1257
3.70081	80.0696
3.69817	80.0919
3.69553	80.0411
3.6929	80.0093
3.69027	79.9944
3.68765	79.9577
3.68503	79.9829
3.68241	79.9696
3.6798	79.8059
3.67719	79.7564
3.67458	79.7638
3.67198	79.7399
3.66938	79.6327
3.66678	79.5629
3.66419	79.5101
3.66161	79.4499
3.65902	79.3885
3.65644	79.3209
3.65387	79.2342
3.65129	79.1873
3.64872	79.196
3.64616	79.2033
3.64359	79.1597
3.64103	79.111
3.63848	79.0611
3.63593	79.0911
3.63338	79.1903
3.63084	79.1907
3.6283	79.1546
3.62576	79.2206
3.62322	79.2445
3.62069	79.1815
3.61817	79.1332
3.61564	79.1214
3.61312	79.1018
3.61061	79.0757
3.6081	79.0285
3.60559	79.0386
3.60308	79.1104
3.60058	79.0867
3.59808	79.0155
3.59558	79.0333
3.59309	79.0235
3.59061	78.9645
3.58812	78.9405
3.58564	78.958
3.58316	78.9094
3.58069	78.8395
3.57822	78.8172
3.57575	78.7743
3.57328	78.7108
3.57082	78.6875
3.56836	78.5978
3.56591	78.4752
3.56346	78.4238
3.56101	78.4532
3.55857	78.3758
3.55613	78.2331
3.55369	78.1384
3.55126	78.1128
3.54883	78.0684
3.5464	77.9785
3.54397	77.8207
3.54155	77.75
3.53914	77.6997
3.53672	77.5959
3.53431	77.5005
3.5319	77.4203
3.5295	77.2929
3.5271	77.1647
3.5247	77.0085
3.52231	76.8305
3.51991	76.6999
3.51753	76.5926
3.51514	76.4237
3.51276	76.1976
3.51038	75.9701
3.50801	75.7631
3.50563	75.5601
3.50327	75.3969
3.5009	75.3174
3.49854	75.2747
3.49618	75.166
3.49382	75.0836
3.49147	75.0819
3.48912	75.007
3.48677	74.9216
3.48443	74.9017
3.48209	74.7801
3.47975	74.6353
3.47742	74.5703
3.47509	74.519
3.47276	74.4495
3.47044	74.3925
3.46812	74.4176
3.4658	74.4271
3.46348	74.3703
3.46117	74.3191
3.45886	74.2054
3.45656	74.0349
3.45425	73.9313
3.45195	73.8677
3.44966	73.7151
3.44736	73.6431
3.44507	73.5955
3.44279	73.5119
3.4405	73.3501
3.43822	73.1287
3.43594	73.0489
3.43367	72.973
3.43139	72.7961
3.42912	72.6893
3.42686	72.662
3.42459	72.5238
3.42233	72.3367
3.42007	72.214
3.41782	72.0812
3.41557	72.003
3.41332	71.9366
3.41108	71.9145
3.40883	71.9368
3.40659	72.0022
3.40435	72.0682
3.40212	72.1874
3.39989	72.2058
3.39766	72.1844
3.39544	72.2713
3.39322	72.3683
3.391	72.343
3.38878	72.292
3.38657	72.2718
3.38436	72.1682
3.38215	72.107
3.37994	72.1118
3.37774	71.9342
3.37554	71.805
3.37335	71.8342
3.37115	71.9057
3.36896	71.9284
3.36678	71.8732
3.36459	71.8464
3.36241	71.8808
3.36023	71.8875
3.35805	71.8273
3.35588	71.7525
3.35371	71.6155
3.35154	71.5421
3.34938	71.4843
3.34721	71.4784
3.34505	71.3919
3.3429	71.2911
3.34074	71.3591
3.33859	71.4761
3.33644	71.507
3.3343	71.4433
3.33215	71.3321
3.33001	71.3304
3.32788	71.3004
3.32574	71.2147
3.32361	71.1066
3.32148	71.0529
3.31936	71.1135
3.31723	71.1233
3.31511	70.9515
3.31299	70.739
3.31088	70.6245
3.30876	70.537
3.30665	70.4487
3.30455	70.3545
3.30244	70.2401
3.30034	70.0882
3.29824	69.9223
3.29614	69.7565
3.29405	69.604
3.29196	69.5475
3.28987	69.4812
3.28778	69.2846
3.2857	69.0483
3.28362	68.8678
3.28154	68.7081
3.27946	68.6106
3.27739	68.4218
3.27532	68.2412
3.27325	68.1071
3.27119	67.8743
3.26913	67.6504
3.26707	67.4509
3.26501	67.2352
3.26295	66.9127
3.2609	66.5314
3.25885	66.1598
3.2568	65.7796
3.25476	65.2822
3.25272	64.7262
3.25068	64.167
3.24864	63.5337
3.24661	62.9581
3.24458	62.5725
3.24255	62.3499
3.24052	62.1407
3.2385	61.8778
3.23648	61.7827
3.23446	61.7143
3.23244	61.6269
3.23043	61.5815
3.22841	61.413
3.2264	61.2288
3.2244	61.0835
3.22239	61.0937
3.22039	60.9865
3.21839	60.7365
3.2164	60.5945
3.2144	60.5123
3.21241	60.4017
3.21042	60.2703
3.20844	60.1281
3.20645	60.1486
3.20447	60.1751
3.20249	60.1909
3.20051	60.2831
3.19854	60.3304
3.19657	60.4161
3.1946	60.5297
3.19263	60.6086
3.19067	60.6879
3.1887	60.8069
3.18674	60.849
3.18479	60.8252
3.18283	60.8439
3.18088	60.8203
3.17893	60.7732
3.17698	60.7064
3.17504	60.5804
3.17309	60.4312
3.17115	60.2621
3.16921	60.0908
3.16728	59.9253
3.16534	59.7624
3.16341	59.6316
3.16148	59.546
3.15956	59.4337
3.15763	59.2782
3.15571	59.0685
3.15379	58.914
3.15187	58.8232
3.14996	58.5509
3.14805	58.1641
3.14614	57.8452
3.14423	57.7463
3.14232	57.6756
3.14042	57.5198
3.13852	57.2734
3.13662	56.9996
3.13472	56.7505
3.13283	56.6947
3.13094	56.6669
3.12905	56.5274
3.12716	56.3465
3.12528	56.1393
3.12339	56.017
3.12151	56.0664
3.11964	55.9989
3.11776	55.8544
3.11589	55.7767
3.11401	55.7216
3.11214	55.6827
3.11028	55.4985
3.10841	55.3322
3.10655	55.2062
3.10469	55.0806
3.10283	55.0422
3.10098	54.93
3.09912	54.7417
3.09727	54.6697
3.09542	54.582
3.09358	54.4894
3.09173	54.4556
3.08989	54.326
3.08805	54.2758
3.08621	54.208
3.08437	54.0654
3.08254	53.9568
3.08071	53.9249
3.07888	53.8467
3.07705	53.7877
3.07523	53.6871
3.0734	53.6245
3.07158	53.6954
3.06977	53.6148
3.06795	53.3879
3.06613	53.2734
3.06432	53.3475
3.06251	53.4724
3.0607	53.4583
3.0589	53.3209
3.0571	53.2336
3.05529	53.2109
3.05349	53.2295
3.0517	53.2319
3.0499	53.1428
3.04811	53.0647
3.04632	53.0688
3.04453	53.0464
3.04274	52.8591
3.04096	52.8261
3.03918	52.9206
3.0374	52.9011
3.03562	52.8391
3.03384	52.8071
3.03207	52.7579
3.03029	52.7074
3.02852	52.5714
3.02676	52.5157
3.02499	52.5126
3.02323	52.5199
3.02146	52.43
3.0197	52.1984
3.01795	52.084
3.01619	52.1126
3.01444	52.0866
3.01269	51.9624
3.01094	51.9492
3.00919	51.9558
3.00744	51.8732
3.0057	51.8076
3.00396	51.7919
3.00222	51.7507
3.00048	51.5687
2.99875	51.4913
2.99701	51.4626
2.99528	51.3687
2.99355	51.3721
2.99183	51.4386
2.9901	51.3106
2.98838	51.1116
2.98666	51.0662
2.98494	51.0426
2.98322	50.8915
2.9815	50.8143
2.97979	50.7366
2.97808	50.5539
2.97637	50.548
2.97466	50.6489
2.97295	50.5512
2.97125	50.4453
2.96955	50.4168
2.96785	50.2993
2.96615	50.224
2.96446	50.2004
2.96276	50.0544
2.96107	49.8523
2.95938	49.7252
2.95769	49.6628
2.95601	49.7131
2.95432	49.7529
2.95264	49.7105
2.95096	49.4523
2.94928	49.304
2.9476	49.2915
2.94593	49.2407
2.94425	49.2257
2.94258	49.2249
2.94092	49.233
2.93925	49.1796
2.93758	49.1116
2.93592	49.0866
2.93426	49.1019
2.9326	49.0419
2.93094	48.9939
2.92928	48.9788
2.92763	48.9305
2.92598	48.9413
2.92433	48.9739
2.92268	49.0025
2.92103	48.8675
2.91939	48.8502
2.91775	48.9482
2.9161	48.9178
2.91447	48.9186
2.91283	48.8759
2.91119	48.8147
2.90956	48.8753
2.90793	48.9693
2.9063	48.9831
2.90467	48.8667
2.90304	48.8019
2.90142	48.9306
2.89979	48.8998
2.89817	48.849
2.89656	48.9001
2.89494	48.9139
2.89332	48.9294
2.89171	48.8871
2.8901	48.8512
2.88849	48.8829
2.88688	48.8029
2.88527	48.6788
2.88367	48.6641
2.88206	48.7099
2.88046	48.575
2.87886	48.4462
2.87727	48.4075
2.87567	48.4688
2.87408	48.5884
2.87248	48.6074
2.87089	48.5088
2.8693	48.4264
2.86772	48.4231
2.86613	48.5159
2.86455	48.5988
2.86297	48.6338
2.86139	48.7032
2.85981	48.7292
2.85823	48.8005
2.85666	48.9699
2.85508	49.1732
2.85351	49.3148
2.85194	49.3355
2.85038	49.4268
2.84881	49.4444
2.84724	49.3527
2.84568	49.4445
2.84412	49.5563
2.84256	49.725
2.841	49.8675
2.83945	49.7807
2.83789	49.7903
2.83634	49.9571
2.83479	50.0609
2.83324	50.183
2.83169	50.2258
2.83015	50.3142
2.82861	50.5111
2.82706	50.7484
2.82552	50.9744
2.82398	51.2706
2.82245	51.6429
2.82091	51.8396
2.81938	51.9742
2.81784	52.1942
2.81631	52.5045
2.81479	52.8149
2.81326	53.0449
2.81173	53.1952
2.81021	53.3383
2.80869	53.5448
2.80716	53.7813
2.80565	54.0443
2.80413	54.4206
2.80261	54.5876
2.8011	54.4402
2.79959	54.4828
2.79808	54.6088
2.79657	54.7388
2.79506	54.875
2.79355	54.9845
2.79205	55.0726
2.79055	55.2272
2.78904	55.5341
2.78754	55.7816
2.78605	55.6744
2.78455	55.453
2.78306	55.517
2.78156	55.6341
2.78007	55.7467
2.77858	55.906
2.77709	56.0966
2.77561	56.1951
2.77412	56.2641
2.77264	56.4972
2.77116	56.8517
2.76968	56.9499
2.7682	57.2084
2.76672	57.4042
2.76524	57.3012
2.76377	57.3075
2.7623	57.4449
2.76083	57.4621
2.75936	57.6903
2.75789	58.0581
2.75642	58.7752
2.75496	59.3443
2.7535	59.144
2.75203	59.1858
2.75057	59.4132
2.74912	59.6621
2.74766	59.9386
2.7462	60.1637
2.74475	60.4774
2.7433	61.0187
2.74185	61.8807
2.7404	62.5973
2.73895	62.6701
2.7375	62.3664
2.73606	62.6143
2.73462	63.0888
2.73318	63.2573
2.73174	63.4784
2.7303	63.7273
2.72886	64.0669
2.72742	64.5226
2.72599	65.1477
2.72456	65.8039
2.72313	65.6559
2.7217	65.8832
2.72027	66.237
2.71884	65.8854
2.71742	65.9012
2.71599	66.0764
2.71457	66.4641
2.71315	67.0789
2.71173	68.1386
2.71032	68.7345
2.7089	68.6971
2.70748	68.6316
2.70607	68.8308
2.70466	69.1015
2.70325	69.6276
2.70184	70.5763
2.70043	71.3003
2.69903	71.8966
2.69762	72.6912
2.69622	73.75
2.69482	74.8695
2.69342	75.5623
2.69202	75.6723
2.69062	76.1056
2.68923	76.8765
2.68783	77.5667
2.68644	78.2042
2.68505	78.8032
2.68366	79.3066
2.68227	79.4825
2.68089	79.9649
2.6795	80.9376
2.67812	81.4232
2.67673	81.7787
2.67535	81.6927
2.67397	81.5295
2.6726	81.8616
2.67122	83.1655
2.66984	83.3719
2.66847	82.7723
2.6671	83.3921
2.66572	83.536
2.66435	83.0158
2.66299	82.3889
2.66162	82.5058
2.66025	82.7397
2.65889	82.7327
2.65753	82.5559
2.65616	82.7871
2.65481	82.8547
2.65345	82.9457
2.65209	82.9878
2.65073	82.8065
2.64938	82.7877
2.64803	82.8428
2.64667	82.9706
2.64532	83.0757
2.64397	82.9446
2.64263	82.9647
2.64128	82.9804
2.63994	82.9332
2.63859	82.9491
2.63725	83.044
2.63591	83.1246
2.63457	83.3719
2.63323	83.3349
2.6319	83.6068
2.63056	84.2665
2.62923	83.8668
2.62789	83.6861
2.62656	83.9443
2.62523	83.436
2.6239	83.2082
2.62258	83.3456
2.62125	84.0226
2.61993	84.1847
2.6186	83.843
2.61728	84.3109
2.61596	84.1336
2.61464	83.5738
2.61332	83.5179
2.61201	83.4742
2.61069	83.6571
2.60938	83.8269
2.60807	83.8859
2.60675	84.2368
2.60544	84.5878
2.60414	84.181
2.60283	83.8681
2.60152	83.7108
2.60022	83.5175
2.59891	83.4502
2.59761	83.6988
2.59631	84.6768
2.59501	85.8083
2.59371	84.9633
2.59242	83.74
2.59112	83.4315
2.58983	83.6381
2.58853	83.8947
2.58724	83.9597
2.58595	83.7149
2.58466	84.0756
2.58338	84.2269
2.58209	83.8644
2.5808	83.8165
2.57952	83.5035
2.57824	83.6033
2.57695	83.8237
2.57567	83.7026
2.5744	83.9107
2.57312	84.0195
2.57184	83.4913
2.57057	83.7283
2.56929	83.9071
2.56802	83.573
2.56675	83.4638
2.56548	83.6783
2.56421	83.9983
2.56294	84.1211
2.56168	84.1671
2.56041	83.9642
2.55915	83.5041
2.55789	83.3379
2.55662	83.3409
2.55536	83.2837
2.5541	83.431
2.55285	83.6752
2.55159	83.6396
2.55034	83.5315
2.54908	83.4367
2.54783	83.4019
2.54658	83.3916
2.54533	83.3419
2.54408	83.3088
2.54283	83.4271
2.54159	83.4613
2.54034	83.384
2.5391	83.2993
2.53785	83.3022
2.53661	83.3604
2.53537	83.3539
2.53413	83.3749
2.53289	83.4246
2.53166	83.4251
2.53042	83.3237
2.52919	83.3085
2.52795	83.4097
2.52672	83.4355
2.52549	83.4658
2.52426	83.475
2.52303	83.3426
2.52181	83.3291
2.52058	83.3489
2.51936	83.3901
2.51813	83.3924
2.51691	83.3534
2.51569	83.3965
2.51447	83.4263
2.51325	83.3697
2.51203	83.2709
2.51082	83.2862
2.5096	83.3315
2.50839	83.3754
2.50717	83.3475
2.50596	83.3593
2.50475	83.4314
2.50354	83.4648
2.50233	83.4948
2.50113	83.5276
2.49992	83.4457
2.49872	83.3589
2.49751	83.3631
2.49631	83.3435
2.49511	83.2899
2.49391	83.3452
2.49271	83.4657
2.49151	83.4116
2.49031	83.4848
2.48912	83.4497
2.48792	83.356
2.48673	83.3342
2.48554	83.3738
2.48435	83.4148
2.48316	83.4452
2.48197	83.5011
2.48078	83.5096
2.4796	83.4944
2.47841	83.4157
2.47723	83.4354
2.47604	83.6142
2.47486	83.5883
2.47368	83.4742
2.4725	83.5315
2.47132	83.5454
2.47014	83.5334
2.46897	83.5949
2.46779	83.6145
2.46662	83.6028
2.46545	83.53
2.46427	83.4837
2.4631	83.5454
2.46193	83.6327
2.46077	83.6659
2.4596	83.6478
2.45843	83.6405
2.45727	83.633
2.4561	83.6714
2.45494	83.6985
2.45378	83.7373
2.45262	83.717
2.45146	83.7381
2.4503	83.7157
2.44914	83.7474
2.44799	83.808
2.44683	83.8837
2.44568	83.9706
2.44452	84.0242
2.44337	83.9344
2.44222	83.7494
2.44107	83.7594
2.43992	83.837
2.43877	83.8636
2.43763	83.8324
2.43648	83.8364
2.43534	83.9132
2.43419	83.9449
2.43305	83.9378
2.43191	83.986
2.43077	83.9887
2.42963	84.0307
2.42849	84.0329
2.42736	84.2203
2.42622	84.2455
2.42509	84.0739
2.42395	84.0477
2.42282	84.0581
2.42169	84.0255
2.42056	84.0849
2.41943	84.0723
2.4183	84.0006
2.41717	84.0527
2.41605	84.0819
2.41492	84.0637
2.4138	84.2326
2.41267	84.4206
2.41155	84.3254
2.41043	84.2625
2.40931	84.4753
2.40819	84.5662
2.40707	84.4301
2.40595	84.5188
2.40484	84.552
2.40372	84.3958
2.40261	84.4495
2.4015	84.5536
2.40039	84.5441
2.39928	84.531
2.39817	84.4627
2.39706	84.5038
2.39595	84.6043
2.39484	84.6562
2.39374	84.6744
2.39263	84.5984
2.39153	84.6151
2.39043	84.525
2.38932	84.5523
2.38822	84.6789
2.38712	84.6942
2.38603	84.7276
2.38493	84.8001
2.38383	84.7499
2.38274	84.6156
2.38164	84.6679
2.38055	84.8333
2.37946	84.9323
2.37836	84.9579
2.37727	84.8608
2.37618	84.8023
2.3751	84.8823
2.37401	84.9637
2.37292	85.0295
2.37184	84.9306
2.37075	84.9474
2.36967	85.0809
2.36859	85.0199
2.3675	84.9624
2.36642	84.9907
2.36534	85.0612
2.36427	85.1135
2.36319	85.1127
2.36211	85.0775
2.36104	84.9967
2.35996	84.9971
2.35889	85.1191
2.35781	85.1869
2.35674	85.1383
2.35567	84.997
2.3546	85.0209
2.35353	85.1367
2.35247	85.1454
2.3514	85.1531
2.35033	85.1784
2.34927	85.3035
2.3482	85.2942
2.34714	85.1983
2.34608	85.1566
2.34502	85.2627
2.34396	85.2744
2.3429	85.2844
2.34184	85.3221
2.34078	85.2818
2.33973	85.2467
2.33867	85.1118
2.33762	85.2505
2.33656	85.401
2.33551	85.3772
2.33446	85.3864
2.33341	85.2873
2.33236	85.2297
2.33131	85.1787
2.33026	85.2812
2.32922	85.3025
2.32817	85.2864
2.32712	85.3836
2.32608	85.3662
2.32504	85.3395
2.324	85.2051
2.32295	85.1597
2.32191	85.2478
2.32087	85.1843
2.31984	85.2222
2.3188	85.0981
2.31776	85.0671
2.31673	85.1276
2.31569	85.1478
2.31466	85.2458
2.31362	85.299
2.31259	85.2107
2.31156	85.2035
2.31053	85.3498
2.3095	85.4115
2.30847	85.4126
2.30745	85.3
2.30642	85.2799
2.3054	85.2572
2.30437	85.3564
2.30335	85.3504
2.30232	85.2835
2.3013	85.3221
2.30028	85.3507
2.29926	85.4306
2.29824	85.4556
2.29722	85.505
2.29621	85.6097
2.29519	85.5444
2.29417	85.4185
2.29316	85.4298
2.29215	85.4936
2.29113	85.5106
2.29012	85.4204
2.28911	85.3421
2.2881	85.4835
2.28709	85.5968
2.28608	85.5322
2.28507	85.5096
2.28407	85.6058
2.28306	85.4976
2.28206	85.4367
2.28105	85.5863
2.28005	85.6022
2.27905	85.5759
2.27805	85.5772
2.27705	85.4956
2.27605	85.5574
2.27505	85.6593
2.27405	85.6686
2.27305	85.6296
2.27206	85.5961
2.27106	85.4817
2.27007	85.437
2.26907	85.5912
2.26808	85.5972
2.26709	85.3975
2.2661	85.4398
2.26511	85.5509
2.26412	85.6289
2.26313	85.751
2.26214	85.802
2.26116	85.7094
2.26017	85.6556
2.25919	85.6759
2.2582	85.6822
2.25722	85.4512
2.25624	85.3878
2.25526	85.5008
2.25428	85.5921
2.2533	85.5843
2.25232	85.5677
2.25134	85.5995
2.25036	85.7031
2.24939	85.7347
2.24841	85.777
2.24744	85.7267
2.24646	85.7471
2.24549	85.7349
2.24452	85.5412
2.24355	85.4585
2.24257	85.4749
2.24161	85.6351
2.24064	85.7979
2.23967	85.753
2.2387	85.6948
2.23774	85.6988
2.23677	85.7438
2.23581	85.7453
2.23484	85.7869
2.23388	85.7714
2.23292	85.6907
2.23196	85.6367
2.231	85.6305
2.23004	85.597
2.22908	85.5298
2.22812	85.5526
2.22716	85.6728
2.22621	85.6699
2.22525	85.7863
2.2243	85.7484
2.22334	85.6726
2.22239	85.7267
2.22144	85.6057
2.22049	85.5599
2.21953	85.6077
2.21859	85.5844
2.21764	85.6152
2.21669	85.6347
2.21574	85.6298
2.21479	85.6582
2.21385	85.7092
2.2129	85.7814
2.21196	85.6349
2.21102	85.442
2.21007	85.5757
2.20913	85.5508
2.20819	85.5011
2.20725	85.5993
2.20631	85.698
2.20537	85.6762
2.20444	85.6949
2.2035	85.5911
2.20256	85.3779
2.20163	85.3939
2.20069	85.6451
2.19976	85.8052
2.19883	85.7765
2.19789	85.7037
2.19696	85.6912
2.19603	85.7934
2.1951	85.7844
2.19417	85.8114
2.19325	85.8282
2.19232	85.6984
2.19139	85.7275
2.19047	85.699
2.18954	85.7266
2.18862	85.8287
2.18769	85.8269
2.18677	85.8936
2.18585	85.9356
2.18493	85.9668
2.18401	85.8693
2.18309	85.7901
2.18217	85.8198
2.18125	85.8522
2.18033	85.9274
2.17942	85.9259
2.1785	85.8891
2.17759	85.9169
2.17667	85.8745
2.17576	85.7633
2.17485	85.8368
2.17393	86.0053
2.17302	86.1095
2.17211	86.0176
2.1712	86.0428
2.17029	86.0947
2.16939	85.9849
2.16848	85.9414
2.16757	85.8884
2.16667	85.8113
2.16576	85.8885
2.16486	85.9554
2.16395	85.9575
2.16305	86.0858
2.16215	85.9609
2.16125	85.9302
2.16035	86.1145
2.15945	86.0552
2.15855	85.9504
2.15765	86.0418
2.15675	86.0292
2.15586	85.9223
2.15496	85.9923
2.15406	86.1268
2.15317	86.0741
2.15228	86.005
2.15138	86.1591
2.15049	86.2257
2.1496	86.117
2.14871	86.0717
2.14782	86.0357
2.14693	86.0194
2.14604	86.0661
2.14515	86.138
2.14427	86.1942
2.14338	86.2131
2.14249	86.1693
2.14161	86.1261
2.14072	86.1084
2.13984	86.2157
2.13896	86.1735
2.13808	86.0522
2.13719	85.9861
2.13631	86.1135
2.13543	86.1561
2.13455	86.1105
2.13368	86.1199
2.1328	86.175
2.13192	86.1851
2.13105	86.1793
2.13017	86.1367
2.1293	85.9524
2.12842	85.8543
2.12755	86.0666
2.12668	86.2476
2.1258	86.1855
2.12493	86.0202
2.12406	86.0961
2.12319	86.2719
2.12232	86.1867
2.12145	85.9029
2.12059	85.9159
2.11972	86.2001
2.11885	86.1891
2.11799	86.0793
2.11712	86.104
2.11626	86.099
2.1154	86.2088
2.11453	86.15
2.11367	86.16
2.11281	86.2786
2.11195	86.1607
2.11109	86.0746
2.11023	86.1976
2.10937	86.2757
2.10851	86.1378
2.10766	86.0093
2.1068	86.1903
2.10594	86.2612
2.10509	86.1818
2.10423	86.0829
2.10338	86.18
2.10253	86.2375
2.10168	86.0877
2.10082	86.027
2.09997	86.1955
2.09912	86.2655
2.09827	86.2738
2.09742	86.2581
2.09658	86.1841
2.09573	86.1344
2.09488	86.1818
2.09404	86.1794
2.09319	86.0873
2.09235	86.1376
2.0915	86.1955
2.09066	86.1747
2.08982	86.2943
2.08897	86.3535
2.08813	86.3367
2.08729	86.0864
2.08645	85.9919
2.08561	85.9999
2.08477	86.0417
2.08394	86.1185
2.0831	86.1594
2.08226	86.1077
2.08143	86.0856
2.08059	86.178
2.07976	86.3608
2.07892	86.4551
2.07809	86.1817
2.07726	85.8113
2.07643	85.9697
2.07559	86.2383
2.07476	86.2896
2.07393	86.0916
2.0731	85.7733
2.07228	85.8976
2.07145	86.1236
2.07062	86.0333
2.06979	86.2081
2.06897	86.2486
2.06814	86.1764
2.06732	86.3542
2.06649	86.4435
2.06567	86.3188
2.06485	86.0558
2.06403	86.0167
2.0632	86.0527
2.06238	86.1032
2.06156	86.0447
2.06074	85.9955
2.05993	86.068
2.05911	86.1092
2.05829	86.2093
2.05747	86.2437
2.05666	86.0981
2.05584	86.0873
2.05503	86.2143
2.05421	86.0341
2.0534	85.8948
2.05259	86.0096
2.05177	86.2348
2.05096	86.3452
2.05015	86.3188
2.04934	86.2929
2.04853	86.2215
2.04772	86.1922
2.04691	86.1868
2.04611	86.2149
2.0453	86.0845
2.04449	86.1238
2.04369	86.1585
2.04288	86.2069
2.04208	86.1955
2.04127	86.1522
2.04047	86.0814
2.03967	85.9686
2.03886	85.9711
2.03806	86.0807
2.03726	85.9433
2.03646	85.7442
2.03566	85.7773
2.03486	85.9699
2.03407	86.0174
2.03327	85.8578
2.03247	85.8406
2.03167	86.1029
2.03088	86.1448
2.03008	85.8576
2.02929	85.9717
2.0285	85.9919
2.0277	85.8019
2.02691	85.9379
2.02612	86.1993
2.02533	86.2542
2.02453	86.0677
2.02374	85.9841
2.02295	85.9405
2.02217	85.861
2.02138	86.0858
2.02059	86.194
2.0198	85.9568
2.01902	85.8734
2.01823	86.0404
2.01744	85.8874
2.01666	85.6293
2.01588	85.8743
2.01509	86.1207
2.01431	86.2564
2.01353	86.0931
2.01275	85.887
2.01196	85.9481
2.01118	85.9586
2.0104	85.6611
2.00963	85.7422
2.00885	85.8391
2.00807	85.7254
2.00729	85.6706
2.00651	85.8559
2.00574	85.9625
2.00496	85.8603
2.00419	85.6801
2.00341	85.5183
2.00264	85.4827
2.00187	85.522
2.00109	85.4928
2.00032	85.3956
