Name: Halite NaCl
Type: Mineral
Class: Halides
Subclass: 
Particle Size: 0-45um
Sample No.: H-3A
Owner: JPL
Wavelength range: IR
Origin: USA, Michigan, Wayne County, Detroit
Collected by Ward's
Description: 





Measurement: Hemispherical reflectance
First Column: X
Second Column: Y
X Units:  Wavelength (micrometers)
Y Units:  Reflectance (percent)
First X Value: 15.3853
Last X Value: 2.00032
Number of X Values: 2256
Additional information: h03aa.txt
 
15.3853	43.6163
15.3397	43.7851
15.2945	44.1225
15.2495	44.676
15.2048	45.1955
15.1603	45.712
15.1161	45.9426
15.0722	46.3959
15.0285	47.1074
14.9851	47.7074
14.9419	47.9275
14.8989	48.1812
14.8563	48.8143
14.8138	49.4808
14.7716	50.0315
14.7296	50.5969
14.6879	51.2558
14.6464	51.8823
14.6052	52.3993
14.5641	53.0438
14.5233	53.8227
14.4828	54.5188
14.4424	55.0701
14.4023	55.6055
14.3624	56.1225
14.3227	56.7689
14.2833	57.4682
14.244	58.0696
14.205	58.7909
14.1662	59.4609
14.1276	60.0746
14.0892	60.8732
14.051	61.5129
14.0131	62.0796
13.9753	62.6621
13.9377	63.2541
13.9004	63.7341
13.8632	64.2692
13.8262	65.0016
13.7895	65.5984
13.7529	66.0418
13.7165	66.5327
13.6803	67.0308
13.6443	67.4996
13.6085	68.021
13.5729	68.3354
13.5374	68.7619
13.5022	69.1589
13.4671	69.3492
13.4322	69.6208
13.3975	69.9616
13.363	70.2293
13.3286	70.5426
13.2944	70.9458
13.2604	71.3231
13.2266	71.5251
13.193	71.7573
13.1595	71.8542
13.1262	71.9364
13.093	72.1443
13.06	72.3976
13.0272	72.65
12.9946	72.8877
12.9621	72.9104
12.9298	72.9768
12.8976	73.0878
12.8656	73.0635
12.8337	73.1521
12.8021	73.3528
12.7705	73.5223
12.7391	73.6764
12.7079	73.7334
12.6769	73.7694
12.6459	73.7945
12.6152	73.8323
12.5845	74.047
12.5541	74.264
12.5238	74.3681
12.4936	74.4301
12.4635	74.4401
12.4337	74.5806
12.4039	74.7284
12.3743	74.73
12.3448	74.8403
12.3155	74.9539
12.2863	74.9494
12.2573	74.9851
12.2284	75.1181
12.1996	75.2745
12.171	75.5248
12.1425	75.6838
12.1141	75.6862
12.0859	75.7608
12.0578	75.9187
12.0298	76.1233
12.0019	76.1854
11.9742	76.2175
11.9466	76.3007
11.9192	76.3685
11.8918	76.4304
11.8646	76.4836
11.8375	76.5979
11.8106	76.6003
11.7837	76.4691
11.757	76.4858
11.7304	76.5597
11.7039	76.4924
11.6776	76.3623
11.6513	76.1736
11.6252	75.9501
11.5992	75.8905
11.5733	75.8588
11.5475	75.7369
11.5219	75.6696
11.4963	75.3739
11.4709	74.5836
11.4455	73.8027
11.4203	73.5195
11.3952	73.8638
11.3702	74.5522
11.3454	75.262
11.3206	75.8611
11.2959	76.1602
11.2714	76.2939
11.2469	76.3498
11.2226	76.3723
11.1983	76.38
11.1742	76.2876
11.1502	76.2434
11.1263	76.3256
11.1024	76.3037
11.0787	76.211
11.0551	76.1579
11.0316	76.1409
11.0081	76.0933
10.9848	76.0619
10.9616	76.1162
10.9385	76.1272
10.9154	76.0975
10.8925	76.0591
10.8697	76.0713
10.8469	76.068
10.8243	76.038
10.8017	75.9966
10.7793	75.9573
10.7569	75.8969
10.7346	75.805
10.7125	75.7548
10.6904	75.8513
10.6684	75.8612
10.6465	75.7608
10.6247	75.6807
10.6029	75.5908
10.5813	75.4879
10.5597	75.4284
10.5383	75.4945
10.5169	75.6341
10.4956	75.5911
10.4744	75.4832
10.4533	75.3254
10.4323	75.2148
10.4113	75.2138
10.3904	75.1854
10.3697	75.0425
10.349	74.9421
10.3284	74.9393
10.3078	74.787
10.2874	74.6554
10.267	74.6911
10.2467	74.5903
10.2265	74.5239
10.2064	74.4052
10.1863	74.2469
10.1663	74.1402
10.1464	73.9995
10.1266	73.8238
10.1069	73.7586
10.0872	73.6975
10.0676	73.6574
10.0481	73.5595
10.0287	73.3761
10.0093	73.1683
9.99005	73.0324
9.97084	72.9156
9.95169	72.8034
9.93263	72.6802
9.91364	72.5146
9.89472	72.3536
9.87587	72.2681
9.8571	72.2531
9.83839	72.2357
9.81976	72.1345
9.80119	71.9886
9.78271	71.8149
9.76428	71.7699
9.74592	71.7755
9.72764	71.7063
9.70943	71.6377
9.69128	71.6357
9.6732	71.6719
9.65518	71.6912
9.63724	71.6911
9.61935	71.7876
9.60155	71.8371
9.5838	71.8477
9.56611	71.8467
9.5485	71.7737
9.53094	71.7051
9.51345	71.7783
9.49604	71.865
9.47867	71.8771
9.46137	71.8804
9.44414	72.0032
9.42697	72.0825
9.40986	72.0815
9.39281	72.0563
9.37583	72.1256
9.35891	72.1393
9.34204	72.188
9.32524	72.2407
9.3085	72.2682
9.29182	72.2469
9.27519	72.2278
9.25863	72.2981
9.24213	72.3636
9.22568	72.364
9.2093	72.352
9.19297	72.403
9.17669	72.4379
9.16048	72.4774
9.14433	72.5737
9.12823	72.5973
9.11218	72.5549
9.0962	72.4554
9.08027	72.4651
9.06439	72.57
9.04858	72.6993
9.03281	72.7109
9.0171	72.6654
9.00145	72.7093
8.98585	72.8138
8.9703	72.9192
8.9548	73.0331
8.93937	73.1394
8.92398	73.3021
8.90865	73.3837
8.89337	73.4517
8.87814	73.6588
8.86296	73.9446
8.84784	74.0687
8.83277	74.2571
8.81774	74.4225
8.80277	74.5362
8.78786	74.5469
8.77298	74.5701
8.75816	74.6854
8.7434	74.8749
8.72868	74.9359
8.714	74.9755
8.69938	74.9944
8.68481	75.0475
8.67029	75.109
8.65581	75.1595
8.64139	75.1513
8.62701	75.2485
8.61268	75.3607
8.5984	75.3817
8.58416	75.5236
8.56997	75.6382
8.55583	75.6042
8.54174	75.7124
8.52769	75.859
8.51368	76.0756
8.49973	76.2126
8.48582	76.3332
8.47195	76.515
8.45813	76.6879
8.44436	76.8033
8.43062	76.9095
8.41693	76.9958
8.4033	77.1062
8.3897	77.3025
8.37614	77.4929
8.36264	77.5074
8.34917	77.6082
8.33574	77.7309
8.32236	77.707
8.30903	77.7531
8.29573	77.98
8.28248	78.0941
8.26927	78.1693
8.2561	78.2574
8.24298	78.2766
8.2299	78.2888
8.21685	78.4567
8.20385	78.6012
8.19089	78.5645
8.17797	78.449
8.16509	78.5315
8.15225	78.6019
8.13946	78.6548
8.1267	78.7177
8.11398	78.7622
8.10131	78.7282
8.08867	78.7845
8.07606	78.8678
8.0635	78.9341
8.05099	78.9863
8.0385	79.0229
8.02606	79.0744
8.01366	79.0918
8.00129	79.1188
7.98896	79.1307
7.97667	79.2088
7.96442	79.2809
7.9522	79.337
7.94002	79.3781
7.92788	79.4003
7.91578	79.4944
7.90371	79.6297
7.89168	79.6791
7.87969	79.6851
7.86773	79.7729
7.85581	79.7886
7.84392	79.799
7.83207	79.8406
7.82026	79.8825
7.80849	79.8706
7.79674	79.9552
7.78503	80.0262
7.77337	80.0601
7.76173	80.0805
7.75012	80.0897
7.73856	80.025
7.72703	80.0681
7.71553	80.0955
7.70406	80.0894
7.69263	80.1048
7.68123	80.1303
7.66987	80.0921
7.65855	80.056
7.64725	80.0081
7.63598	80.0097
7.62475	80.0308
7.61356	79.958
7.60239	79.7686
7.59126	79.6747
7.58017	79.5702
7.5691	79.3717
7.55806	79.1593
7.54707	79.1273
7.5361	79.1353
7.52516	79.1928
7.51425	79.2749
7.50338	79.2987
7.49253	79.3025
7.48172	79.3333
7.47094	79.2989
7.46019	79.0422
7.44947	78.5005
7.43879	78.1963
7.42813	77.9273
7.4175	77.6229
7.4069	77.1814
7.39634	76.7501
7.3858	76.534
7.37529	76.3124
7.36482	76.0509
7.35437	76.0556
7.34396	76.2385
7.33357	76.1326
7.32321	75.6972
7.31288	75.7089
7.30258	75.7716
7.29231	75.8814
7.28207	76.3004
7.27185	76.4039
7.26167	76.0458
7.25152	75.9787
7.24139	75.9343
7.23129	76.0246
7.22122	76.2294
7.21117	76.9227
7.20116	76.9094
7.19117	76.5576
7.18121	76.8793
7.17128	77.6483
7.16137	77.484
7.1515	77.3064
7.14164	76.995
7.13182	76.4796
7.12203	76.4693
7.11225	76.2111
7.10251	75.7215
7.0928	75.4481
7.08311	75.1383
7.07344	74.865
7.06381	74.8778
7.0542	75.7391
7.04461	76.2524
7.03506	74.9564
7.02552	74.3683
7.01601	74.153
7.00653	73.9167
6.99708	74.1197
6.98765	73.9657
6.97824	73.6559
6.96886	74.3349
6.95951	75.1824
6.95018	73.892
6.94087	73.0977
6.9316	72.9107
6.92234	72.8675
6.91311	73.0747
6.90391	73.1601
6.89473	72.5892
6.88557	72.3967
6.87644	72.9005
6.86733	75.0232
6.85824	74.7552
6.84918	72.3963
6.84015	71.4293
6.83114	71.9838
6.82215	71.9295
6.81319	71.1067
6.80424	71.383
6.79532	72.9901
6.78643	73.598
6.77756	72.8469
6.76871	72.3483
6.75989	71.987
6.75109	72.2696
6.74231	72.4427
6.73355	72.9116
6.72482	73.8092
6.71611	74.6415
6.70742	74.6495
6.69875	73.9474
6.69011	74.665
6.68149	75.8736
6.67289	75.5815
6.66431	74.9684
6.65576	74.8784
6.64722	76.773
6.63871	79.6709
6.63022	78.7106
6.62175	76.7753
6.61331	76.4211
6.60488	76.4715
6.59648	77.3404
6.5881	77.7496
6.57974	78.5167
6.5714	79.4094
6.56308	78.0261
6.55478	77.4937
6.54651	76.9866
6.53825	76.227
6.53001	76.1851
6.5218	76.9555
6.51361	75.9839
6.50544	76.0139
6.49729	78.4466
6.48915	78.4557
6.48104	76.2712
6.47295	74.7197
6.46488	73.2547
6.45683	72.6153
6.4488	72.4478
6.44079	72.4589
6.4328	72.8991
6.42482	73.5828
6.41687	76.1643
6.40894	74.8678
6.40103	71.1543
6.39314	69.9653
6.38526	69.3617
6.37741	69.2755
6.36957	69.1321
6.36176	67.409
6.35396	66.7617
6.34618	67.4786
6.33843	65.8134
6.33069	63.5379
6.32297	62.3844
6.31527	61.2657
6.30758	60.2132
6.29992	59.0996
6.29227	58.03
6.28465	56.8964
6.27704	55.8895
6.26945	54.9598
6.26188	54.126
6.25432	53.436
6.24679	52.934
6.23927	52.4677
6.23177	51.8803
6.22429	51.1935
6.21683	50.4874
6.20938	49.5531
6.20195	48.6492
6.19454	48.3795
6.18715	48.9976
6.17978	47.9852
6.17242	46.8414
6.16508	47.4819
6.15776	48.2935
6.15045	48.3011
6.14317	48.4453
6.1359	47.8204
6.12864	46.6945
6.12141	46.2047
6.11419	45.8907
6.10699	44.2266
6.0998	43.7358
6.09263	45.064
6.08549	47.3514
6.07835	50.6675
6.07123	53.678
6.06413	55.3088
6.05705	58.9785
6.04998	64.9856
6.04293	65.6319
6.0359	64.8189
6.02888	65.966
6.02187	67.832
6.01489	69.9052
6.00792	70.5779
6.00096	71.2936
5.99403	73.4077
5.98711	74.6578
5.9802	74.5769
5.97331	75.8299
5.96644	76.7012
5.95958	76.0936
5.95274	76.7035
5.94591	78.1976
5.9391	81.176
5.9323	80.8733
5.92552	79.1562
5.91876	79.2756
5.91201	79.5106
5.90528	80.5358
5.89856	83.1403
5.89186	83.5261
5.88517	84.7814
5.8785	85.3952
5.87184	83.1123
5.8652	83.4701
5.85857	83.5641
5.85196	83.336
5.84536	83.4338
5.83878	84.2004
5.83221	85.4658
5.82566	87.1596
5.81912	87.2706
5.81259	85.4445
5.80608	84.8618
5.79959	85.085
5.79311	85.1098
5.78665	85.4587
5.78019	85.9675
5.77376	87.2061
5.76734	89.231
5.76093	87.8656
5.75453	86.5706
5.74815	87.286
5.74179	86.9949
5.73543	86.8092
5.7291	86.8236
5.72277	87.3006
5.71646	87.905
5.71017	88.2988
5.70389	87.3043
5.69762	87.0348
5.69136	87.4598
5.68513	87.27
5.6789	87.786
5.67268	87.8031
5.66648	87.1264
5.6603	87.5699
5.65413	88.0604
5.64797	88.6398
5.64182	89.5113
5.63569	88.4345
5.62957	87.5103
5.62347	87.4703
5.61737	87.7153
5.61129	87.6155
5.60522	87.66
5.59917	87.6219
5.59313	87.3627
5.5871	87.8486
5.58109	88.8629
5.57509	88.6064
5.5691	87.6873
5.56312	87.6756
5.55716	87.9468
5.55121	88.0384
5.54528	87.6606
5.53935	87.4588
5.53344	87.4126
5.52754	87.6351
5.52166	87.7066
5.51578	87.4573
5.50992	87.2643
5.50407	87.388
5.49823	87.3546
5.49241	87.3168
5.4866	87.3594
5.4808	87.7864
5.47501	87.6454
5.46923	87.7849
5.46347	88.0581
5.45772	87.3761
5.45198	86.9824
5.44625	86.9777
5.44054	86.9135
5.43484	86.8111
5.42914	87.1511
5.42347	88.0492
5.4178	87.618
5.41214	86.8547
5.4065	86.555
5.40087	86.3224
5.39525	86.3149
5.38964	86.3349
5.38404	86.3476
5.37846	86.3409
5.37288	86.3216
5.36732	86.2995
5.36177	86.4255
5.35623	86.9087
5.35071	87.3787
5.34519	86.9392
5.33968	86.5069
5.33419	86.5421
5.32871	86.653
5.32324	86.7755
5.31778	86.885
5.31233	87.0095
5.30689	87.1535
5.30147	87.2047
5.29605	87.5186
5.29065	87.7808
5.28525	87.5852
5.27987	87.6438
5.2745	87.642
5.26914	87.6093
5.26379	87.6452
5.25845	87.7313
5.25312	87.7842
5.24781	87.8456
5.2425	87.9281
5.23721	88.0349
5.23192	87.9714
5.22665	87.8756
5.22138	87.9106
5.21613	88.3565
5.21089	88.353
5.20566	88.0627
5.20044	88.1224
5.19522	87.9513
5.19002	87.8467
5.18483	87.8579
5.17965	87.8875
5.17448	87.9301
5.16933	87.9146
5.16418	87.862
5.15904	87.8373
5.15391	87.9493
5.14879	88.2333
5.14368	88.0669
5.13859	87.8317
5.1335	87.7872
5.12842	87.7162
5.12335	87.6975
5.1183	87.7168
5.11325	87.71
5.10821	87.6448
5.10318	87.6402
5.09817	87.6102
5.09316	87.6158
5.08816	87.6587
5.08317	87.7072
5.07819	87.6464
5.07322	87.5783
5.06826	87.5516
5.06331	87.5734
5.05837	87.5687
5.05344	87.5156
5.04852	87.4469
5.04361	87.4175
5.03871	87.4101
5.03382	87.3978
5.02894	87.3682
5.02406	87.3987
5.0192	87.4408
5.01435	87.2695
5.0095	87.1715
5.00467	87.1199
4.99984	87.0681
4.99502	87.0373
4.99021	87.0309
4.98542	87.0158
4.98063	86.9477
4.97585	86.9295
4.97108	86.895
4.96632	86.7863
4.96156	86.7741
4.95682	86.8401
4.95209	86.7679
4.94736	86.6956
4.94264	86.6668
4.93794	86.6145
4.93324	86.5268
4.92855	86.442
4.92387	86.3768
4.9192	86.4153
4.91453	86.3523
4.90988	86.2482
4.90524	86.1824
4.9006	86.1783
4.89597	86.1143
4.89135	86.0104
4.88674	85.9375
4.88214	85.8984
4.87755	85.8422
4.87296	85.7843
4.86839	85.6871
4.86382	85.6129
4.85926	85.5564
4.85471	85.4836
4.85017	85.4055
4.84564	85.4247
4.84111	85.488
4.8366	85.4367
4.83209	85.3603
4.82759	85.3658
4.8231	85.324
4.81862	85.24
4.81415	85.231
4.80968	85.2369
4.80522	85.2658
4.80077	85.2932
4.79633	85.1871
4.7919	85.1665
4.78747	85.1629
4.78306	85.1708
4.77865	85.1526
4.77425	85.0985
4.76986	85.0697
4.76547	85.0706
4.7611	84.9913
4.75673	84.9113
4.75237	84.8697
4.74802	84.8949
4.74367	84.8888
4.73934	84.8812
4.73501	84.8725
4.73069	84.8372
4.72638	84.7535
4.72207	84.7444
4.71777	84.6854
4.71348	84.6137
4.7092	84.6347
4.70493	84.5771
4.70066	84.4644
4.69641	84.4802
4.69216	84.4498
4.68791	84.3791
4.68368	84.2989
4.67945	84.2639
4.67523	84.2435
4.67102	84.1807
4.66682	84.143
4.66262	84.1262
4.65843	84.0585
4.65425	83.996
4.65007	83.9164
4.64591	83.9016
4.64175	83.8728
4.6376	83.8095
4.63345	83.7664
4.62932	83.7354
4.62519	83.6927
4.62106	83.6212
4.61695	83.5366
4.61284	83.4781
4.60874	83.4573
4.60465	83.3908
4.60056	83.3032
4.59648	83.2432
4.59241	83.1644
4.58835	83.0865
4.58429	83.0045
4.58024	82.9454
4.5762	82.9183
4.57216	82.8997
4.56814	82.7984
4.56411	82.7222
4.5601	82.6934
4.55609	82.6496
4.55209	82.5386
4.5481	82.42
4.54411	82.3235
4.54013	82.2713
4.53616	82.2123
4.5322	82.1673
4.52824	82.0987
4.52429	82.0571
4.52034	82.0143
4.51641	81.9194
4.51247	81.8461
4.50855	81.8129
4.50463	81.7437
4.50072	81.6759
4.49682	81.6013
4.49292	81.5229
4.48903	81.4246
4.48515	81.3982
4.48127	81.3783
4.4774	81.2552
4.47354	81.1287
4.46968	81.0983
4.46584	81.1014
4.46199	81.0709
4.45815	81.0368
4.45432	80.9878
4.4505	80.8932
4.44668	80.812
4.44287	80.7397
4.43907	80.6857
4.43527	80.6074
4.43148	80.6075
4.4277	80.6105
4.42392	80.5912
4.42015	80.5692
4.41638	80.5727
4.41262	80.5825
4.40887	80.616
4.40513	80.6472
4.40139	80.6062
4.39765	80.6278
4.39393	80.6863
4.39021	80.7077
4.38649	80.7426
4.38278	80.8356
4.37908	80.8931
4.37539	80.9296
4.3717	81.0266
4.36801	81.1117
4.36434	81.2
4.36067	81.3137
4.357	81.3901
4.35335	81.4928
4.34969	81.6247
4.34605	81.7296
4.34241	81.8244
4.33877	81.9908
4.33514	82.1676
4.33152	82.2782
4.32791	82.3802
4.3243	82.5371
4.32069	82.649
4.3171	82.8435
4.31351	83.0914
4.30992	83.2609
4.30634	83.4384
4.30277	83.6601
4.2992	83.8551
4.29564	83.9996
4.29208	84.1766
4.28853	84.3577
4.28499	84.5332
4.28145	84.7485
4.27792	84.9299
4.27439	85.119
4.27087	85.2775
4.26735	85.3705
4.26384	85.4969
4.26034	85.6103
4.25684	85.7308
4.25335	85.8913
4.24986	86.0586
4.24638	86.2963
4.24291	86.6143
4.23944	86.793
4.23598	86.8552
4.23252	86.9762
4.22906	87.096
4.22562	87.1864
4.22218	87.2677
4.21874	87.2605
4.21531	87.2533
4.21189	87.2708
4.20847	87.3505
4.20506	87.4155
4.20165	87.4969
4.19825	87.5469
4.19485	87.6016
4.19146	87.6352
4.18807	87.7205
4.18469	87.8299
4.18132	87.8769
4.17795	87.8897
4.17458	87.9554
4.17123	88.0319
4.16787	88.0293
4.16453	87.9819
4.16118	88.0281
4.15785	88.1234
4.15451	88.1945
4.15119	88.2418
4.14787	88.261
4.14455	88.3195
4.14124	88.3967
4.13794	88.4281
4.13464	88.4387
4.13134	88.459
4.12805	88.4901
4.12477	88.5129
4.12149	88.5404
4.11822	88.6033
4.11495	88.6079
4.11168	88.5832
4.10843	88.5948
4.10517	88.5967
4.10192	88.5924
4.09868	88.6371
4.09545	88.696
4.09221	88.6772
4.08899	88.694
4.08576	88.7426
4.08255	88.7285
4.07933	88.6913
4.07613	88.6956
4.07292	88.7064
4.06973	88.7443
4.06654	88.7956
4.06335	88.7651
4.06017	88.7488
4.05699	88.7467
4.05382	88.738
4.05065	88.7573
4.04749	88.7519
4.04433	88.7801
4.04118	88.7966
4.03803	88.7632
4.03489	88.7632
4.03175	88.7315
4.02862	88.6979
4.02549	88.7206
4.02237	88.7284
4.01925	88.7333
4.01614	88.7214
4.01303	88.7197
4.00993	88.7575
4.00683	88.737
4.00373	88.6776
4.00064	88.7082
3.99756	88.7331
3.99448	88.7581
3.9914	88.7685
3.98833	88.7187
3.98527	88.6304
3.98221	88.6185
3.97915	88.6524
3.9761	88.6866
3.97305	88.6991
3.97001	88.6787
3.96697	88.661
3.96394	88.6479
3.96091	88.671
3.95789	88.6865
3.95487	88.6774
3.95186	88.6758
3.94885	88.6706
3.94584	88.6908
3.94284	88.7378
3.93984	88.7805
3.93685	88.7952
3.93386	88.7876
3.93088	88.7884
3.9279	88.7856
3.92493	88.816
3.92196	88.8588
3.919	88.8463
3.91604	88.8572
3.91308	88.9408
3.91013	88.9245
3.90718	88.9003
3.90424	88.8884
3.9013	88.8506
3.89837	88.8469
3.89544	88.8443
3.89252	88.8627
3.8896	88.8582
3.88668	88.8711
3.88377	88.9395
3.88086	88.902
3.87796	88.8275
3.87506	88.8866
3.87217	88.8872
3.86928	88.875
3.86639	88.8413
3.86351	88.8198
3.86064	88.8435
3.85776	88.8151
3.8549	88.837
3.85203	88.8649
3.84917	88.841
3.84631	88.8475
3.84346	88.8523
3.84062	88.8258
3.83777	88.7764
3.83494	88.7607
3.8321	88.7708
3.82927	88.7652
3.82644	88.7301
3.82362	88.6924
3.82081	88.6969
3.81799	88.7386
3.81518	88.7491
3.81238	88.7497
3.80958	88.7304
3.80678	88.6943
3.80399	88.7051
3.8012	88.7492
3.79841	88.7349
3.79563	88.6919
3.79286	88.6427
3.79008	88.6311
3.78731	88.6806
3.78455	88.6926
3.78179	88.6929
3.77903	88.7204
3.77628	88.7074
3.77353	88.6141
3.77079	88.5771
3.76805	88.6116
3.76531	88.6301
3.76258	88.5781
3.75985	88.5332
3.75713	88.5966
3.7544	88.6289
3.75169	88.5693
3.74898	88.4901
3.74627	88.5086
3.74356	88.5224
3.74086	88.4804
3.73816	88.5501
3.73547	88.6015
3.73278	88.5407
3.7301	88.4856
3.72741	88.4478
3.72474	88.3956
3.72206	88.3807
3.71939	88.4083
3.71673	88.3487
3.71406	88.2938
3.71141	88.3321
3.70875	88.2895
3.7061	88.2415
3.70345	88.2019
3.70081	88.2722
3.69817	88.3616
3.69553	88.2546
3.6929	88.1684
3.69027	88.231
3.68765	88.2456
3.68503	88.1687
3.68241	88.1482
3.6798	88.1707
3.67719	88.1183
3.67458	88.0691
3.67198	88.0592
3.66938	87.9842
3.66678	87.9888
3.66419	88.01
3.66161	87.9769
3.65902	87.9482
3.65644	87.9587
3.65387	87.9659
3.65129	87.8932
3.64872	87.8581
3.64616	87.949
3.64359	87.939
3.64103	87.7747
3.63848	87.6716
3.63593	87.6847
3.63338	87.7667
3.63084	87.8416
3.6283	87.7602
3.62576	87.6562
3.62322	87.6462
3.62069	87.6424
3.61817	87.6376
3.61564	87.6762
3.61312	87.6247
3.61061	87.5426
3.6081	87.4702
3.60559	87.431
3.60308	87.4536
3.60058	87.448
3.59808	87.3914
3.59558	87.4083
3.59309	87.3949
3.59061	87.3209
3.58812	87.3015
3.58564	87.2958
3.58316	87.244
3.58069	87.2183
3.57822	87.2209
3.57575	87.2144
3.57328	87.1764
3.57082	87.1192
3.56836	87.1059
3.56591	87.0519
3.56346	86.9928
3.56101	86.945
3.55857	86.9159
3.55613	86.8953
3.55369	86.8301
3.55126	86.7822
3.54883	86.7296
3.5464	86.6961
3.54397	86.6235
3.54155	86.5322
3.53914	86.4913
3.53672	86.4004
3.53431	86.361
3.5319	86.3631
3.5295	86.2887
3.5271	86.1852
3.5247	86.0988
3.52231	85.964
3.51991	85.7926
3.51753	85.5321
3.51514	85.318
3.51276	85.053
3.51038	84.6317
3.50801	84.3475
3.50563	84.2134
3.50327	84.1031
3.5009	84.068
3.49854	84.1306
3.49618	84.2237
3.49382	84.2178
3.49147	84.1978
3.48912	84.2944
3.48677	84.3344
3.48443	84.3534
3.48209	84.3461
3.47975	84.2736
3.47742	84.1406
3.47509	84.0485
3.47276	84.0647
3.47044	84.0372
3.46812	83.9955
3.4658	84.0401
3.46348	84.0503
3.46117	83.9833
3.45886	83.8985
3.45656	83.8173
3.45425	83.69
3.45195	83.6026
3.44966	83.5726
3.44736	83.4626
3.44507	83.3149
3.44279	83.1714
3.4405	83.0234
3.43822	82.8727
3.43594	82.7264
3.43367	82.5241
3.43139	82.2242
3.42912	81.9378
3.42686	81.7202
3.42459	81.4906
3.42233	81.2677
3.42007	81.1103
3.41782	81.0798
3.41557	81.0984
3.41332	81.1132
3.41108	81.1764
3.40883	81.2829
3.40659	81.3645
3.40435	81.5173
3.40212	81.6787
3.39989	81.7277
3.39766	81.7837
3.39544	81.8474
3.39322	81.8519
3.391	81.8784
3.38878	81.8881
3.38657	81.7998
3.38436	81.5566
3.38215	81.3329
3.37994	81.1925
3.37774	81.1132
3.37554	81.1203
3.37335	81.0981
3.37115	81.1109
3.36896	81.1494
3.36678	81.203
3.36459	81.231
3.36241	81.2889
3.36023	81.3688
3.35805	81.391
3.35588	81.3606
3.35371	81.3274
3.35154	81.2601
3.34938	81.2069
3.34721	81.1314
3.34505	81.0829
3.3429	81.0738
3.34074	81.0151
3.33859	80.9367
3.33644	80.8182
3.3343	80.6765
3.33215	80.6169
3.33001	80.6149
3.32788	80.5053
3.32574	80.3199
3.32361	80.2258
3.32148	80.1514
3.31936	79.9763
3.31723	79.8617
3.31511	79.8539
3.31299	79.7342
3.31088	79.5514
3.30876	79.4164
3.30665	79.3095
3.30455	79.1434
3.30244	79.0002
3.30034	78.9484
3.29824	78.8623
3.29614	78.6255
3.29405	78.4161
3.29196	78.3264
3.28987	78.1547
3.28778	78.0183
3.2857	77.8781
3.28362	77.647
3.28154	77.5
3.27946	77.3976
3.27739	77.2386
3.27532	77.0704
3.27325	76.8848
3.27119	76.6852
3.26913	76.4826
3.26707	76.2591
3.26501	76.047
3.26295	75.9116
3.2609	75.725
3.25885	75.5702
3.2568	75.3458
3.25476	75.0804
3.25272	74.8082
3.25068	74.5872
3.24864	74.4291
3.24661	74.2471
3.24458	73.971
3.24255	73.7524
3.24052	73.5685
3.2385	73.3979
3.23648	73.1485
3.23446	72.8081
3.23244	72.566
3.23043	72.4118
3.22841	72.148
3.2264	71.9055
3.2244	71.6726
3.22239	71.4005
3.22039	71.1138
3.21839	70.8457
3.2164	70.6096
3.2144	70.2932
3.21241	70.0521
3.21042	69.8813
3.20844	69.5679
3.20645	69.2128
3.20447	68.9628
3.20249	68.7488
3.20051	68.4183
3.19854	68.0677
3.19657	67.758
3.1946	67.4778
3.19263	67.1455
3.19067	66.9274
3.1887	66.6751
3.18674	66.3101
3.18479	65.9193
3.18283	65.5745
3.18088	65.2431
3.17893	64.9348
3.17698	64.7045
3.17504	64.402
3.17309	64.0675
3.17115	63.7323
3.16921	63.3616
3.16728	63.0206
3.16534	62.6852
3.16341	62.3338
3.16148	62.0054
3.15956	61.6353
3.15763	61.2389
3.15571	60.8687
3.15379	60.6068
3.15187	60.2814
3.14996	59.8067
3.14805	59.4876
3.14614	59.2264
3.14423	58.8172
3.14232	58.4521
3.14042	58.1184
3.13852	57.6966
3.13662	57.2989
3.13472	56.9491
3.13283	56.5372
3.13094	56.0378
3.12905	55.556
3.12716	55.1175
3.12528	54.7145
3.12339	54.3575
3.12151	53.9442
3.11964	53.4802
3.11776	53.0431
3.11589	52.6717
3.11401	52.1423
3.11214	51.5708
3.11028	51.0555
3.10841	50.5428
3.10655	49.9991
3.10469	49.471
3.10283	48.9186
3.10098	48.3376
3.09912	47.8412
3.09727	47.2839
3.09542	46.7326
3.09358	46.3501
3.09173	45.9249
3.08989	45.4291
3.08805	44.9855
3.08621	44.6647
3.08437	44.5151
3.08254	44.4568
3.08071	44.4124
3.07888	44.3528
3.07705	44.467
3.07523	44.7733
3.0734	45.1632
3.07158	45.4173
3.06977	45.6688
3.06795	45.9761
3.06613	46.1064
3.06432	46.0391
3.06251	46.0486
3.0607	45.9842
3.0589	45.8817
3.0571	45.7912
3.05529	45.7463
3.05349	45.524
3.0517	45.2584
3.0499	45.0431
3.04811	44.7426
3.04632	44.3835
3.04453	44.1133
3.04274	43.884
3.04096	43.7002
3.03918	43.5032
3.0374	43.1823
3.03562	42.886
3.03384	42.5382
3.03207	42.1903
3.03029	41.9185
3.02852	41.6209
3.02676	41.2948
3.02499	41.0007
3.02323	40.7219
3.02146	40.349
3.0197	39.9346
3.01795	39.5661
3.01619	39.2371
3.01444	38.8841
3.01269	38.5059
3.01094	38.1627
3.00919	37.7438
3.00744	37.32
3.0057	37.1393
3.00396	36.8462
3.00222	36.4406
3.00048	36.153
2.99875	35.8206
2.99701	35.4178
2.99528	35.1669
2.99355	34.7434
2.99183	34.3494
2.9901	34.0756
2.98838	33.7881
2.98666	33.6426
2.98494	33.4247
2.98322	33.1632
2.9815	32.9469
2.97979	32.6448
2.97808	32.4271
2.97637	32.2478
2.97466	32.0023
2.97295	31.6606
2.97125	31.4323
2.96955	31.2163
2.96785	31.1538
2.96615	31.0644
2.96446	30.8675
2.96276	30.7261
2.96107	30.6642
2.95938	30.4875
2.95769	30.2456
2.95601	30.1555
2.95432	30.194
2.95264	30.1207
2.95096	30.0693
2.94928	30.0642
2.9476	29.9996
2.94593	29.8773
2.94425	29.8196
2.94258	29.8717
2.94092	30.0925
2.93925	30.175
2.93758	30.257
2.93592	30.1929
2.93426	30.093
2.9326	30.2071
2.93094	30.431
2.92928	30.4839
2.92763	30.5591
2.92598	30.7038
2.92433	30.8409
2.92268	30.9474
2.92103	30.9744
2.91939	31.0754
2.91775	31.2957
2.9161	31.5083
2.91447	31.6302
2.91283	31.8523
2.91119	32.0413
2.90956	32.0288
2.90793	32.0787
2.9063	32.188
2.90467	32.4274
2.90304	32.6853
2.90142	32.8869
2.89979	33.1021
2.89817	33.2161
2.89656	33.3059
2.89494	33.4328
2.89332	33.6907
2.89171	33.9384
2.8901	34.1609
2.88849	34.3998
2.88688	34.5628
2.88527	34.7368
2.88367	34.8178
2.88206	35.1124
2.88046	35.4774
2.87886	35.7137
2.87727	35.9249
2.87567	36.1646
2.87408	36.3149
2.87248	36.6208
2.87089	36.9567
2.8693	37.1392
2.86772	37.3719
2.86613	37.6964
2.86455	37.9833
2.86297	38.1795
2.86139	38.4147
2.85981	38.6393
2.85823	38.8064
2.85666	39.0134
2.85508	39.3036
2.85351	39.5261
2.85194	39.6549
2.85038	39.9085
2.84881	40.2177
2.84724	40.5553
2.84568	40.7214
2.84412	40.7387
2.84256	41.052
2.841	41.4059
2.83945	41.6923
2.83789	42.0063
2.83634	42.245
2.83479	42.5432
2.83324	42.824
2.83169	42.9438
2.83015	43.0696
2.82861	43.3576
2.82706	43.6567
2.82552	43.7927
2.82398	43.9693
2.82245	44.3218
2.82091	44.7797
2.81938	45.0724
2.81784	45.1329
2.81631	45.3508
2.81479	45.6588
2.81326	45.7754
2.81173	45.9284
2.81021	46.2368
2.80869	46.5227
2.80716	46.7672
2.80565	47.1323
2.80413	47.7043
2.80261	48.0516
2.8011	47.7786
2.79959	47.7006
2.79808	47.9393
2.79657	48.1685
2.79506	48.403
2.79355	48.6528
2.79205	48.8923
2.79055	49.19
2.78904	49.7622
2.78754	50.52
2.78605	50.5396
2.78455	50.2476
2.78306	50.5899
2.78156	51.1364
2.78007	51.4312
2.77858	51.6066
2.77709	51.9593
2.77561	52.3047
2.77412	52.737
2.77264	53.6142
2.77116	54.5529
2.76968	54.9511
2.7682	55.4581
2.76672	55.7911
2.76524	56.2381
2.76377	57.5318
2.7623	58.4745
2.76083	58.4525
2.75936	58.8055
2.75789	59.8347
2.75642	61.9232
2.75496	63.2358
2.7535	62.5531
2.75203	62.7524
2.75057	63.4346
2.74912	64.2356
2.74766	65.0191
2.7462	65.7966
2.74475	66.6396
2.7433	67.7808
2.74185	69.7725
2.7404	71.6072
2.73895	71.8105
2.7375	71.0107
2.73606	71.7009
2.73462	72.8614
2.73318	72.6734
2.73174	72.9335
2.7303	73.5744
2.72886	74.1537
2.72742	74.8994
2.72599	76.5958
2.72456	78.2649
2.72313	77.9518
2.7217	78.9323
2.72027	80.3025
2.71884	78.9813
2.71742	78.6525
2.71599	78.6477
2.71457	78.8459
2.71315	79.4909
2.71173	81.4672
2.71032	82.3224
2.7089	81.5535
2.70748	80.8326
2.70607	80.7485
2.70466	80.9064
2.70325	81.2872
2.70184	82.0814
2.70043	82.1748
2.69903	82.0084
2.69762	82.393
2.69622	83.3822
2.69482	84.555
2.69342	84.8473
2.69202	83.7084
2.69062	83.2019
2.68923	83.5413
2.68783	83.9296
2.68644	84.2762
2.68505	84.5251
2.68366	84.8105
2.68227	84.4755
2.68089	84.6609
2.6795	85.95
2.67812	86.516
2.67673	87.0063
2.67535	86.1072
2.67397	85.2409
2.6726	85.7185
2.67122	88.3181
2.66984	88.6534
2.66847	87.0209
2.6671	88.2875
2.66572	88.6193
2.66435	87.3067
2.66299	85.7366
2.66162	85.8388
2.66025	86.0524
2.65889	85.8085
2.65753	85.3885
2.65616	86.047
2.65481	86.1608
2.65345	86.3773
2.65209	86.4546
2.65073	85.6903
2.64938	85.3534
2.64803	85.5108
2.64667	85.9694
2.64532	86.2405
2.64397	85.6365
2.64263	85.7282
2.64128	85.902
2.63994	85.8011
2.63859	85.6801
2.63725	85.7503
2.63591	85.7212
2.63457	86.2609
2.63323	86.5377
2.6319	87.1765
2.63056	88.4205
2.62923	87.2735
2.62789	86.9545
2.62656	87.7833
2.62523	86.676
2.6239	86.0234
2.62258	86.1635
2.62125	87.5942
2.61993	88.0449
2.6186	87.3163
2.61728	88.3991
2.61596	87.7802
2.61464	86.4922
2.61332	86.5771
2.61201	86.4008
2.61069	86.6563
2.60938	87.0618
2.60807	87.2509
2.60675	87.9837
2.60544	88.6897
2.60414	87.8716
2.60283	87.2884
2.60152	87.0105
2.60022	86.4699
2.59891	86.141
2.59761	86.6284
2.59631	88.8209
2.59501	91.5108
2.59371	89.5265
2.59242	86.9364
2.59112	86.3955
2.58983	86.8375
2.58853	87.2956
2.58724	87.4936
2.58595	87.0343
2.58466	87.8642
2.58338	88.0459
2.58209	87.1647
2.5808	87.1143
2.57952	86.3576
2.57824	86.6111
2.57695	87.234
2.57567	86.877
2.5744	87.2959
2.57312	87.6498
2.57184	86.6608
2.57057	87.0933
2.56929	87.3365
2.56802	86.5211
2.56675	86.2281
2.56548	86.8426
2.56421	87.5538
2.56294	87.8296
2.56168	87.9223
2.56041	87.2153
2.55915	86.3737
2.55789	86.1542
2.55662	86.1396
2.55536	86.2196
2.5541	86.5253
2.55285	86.9043
2.55159	86.7312
2.55034	86.4969
2.54908	86.4246
2.54783	86.5578
2.54658	86.4003
2.54533	86.3925
2.54408	86.7426
2.54283	86.8562
2.54159	86.4771
2.54034	86.3004
2.5391	86.3914
2.53785	86.5642
2.53661	86.7514
2.53537	86.5571
2.53413	86.3106
2.53289	86.5073
2.53166	86.5233
2.53042	86.4479
2.52919	86.4701
2.52795	86.4428
2.52672	86.3747
2.52549	86.503
2.52426	86.5272
2.52303	86.4056
2.52181	86.3046
2.52058	86.3506
2.51936	86.4232
2.51813	86.4708
2.51691	86.4689
2.51569	86.4787
2.51447	86.4771
2.51325	86.4126
2.51203	86.4413
2.51082	86.526
2.5096	86.4826
2.50839	86.4592
2.50717	86.4912
2.50596	86.5418
2.50475	86.4803
2.50354	86.4653
2.50233	86.5642
2.50113	86.5732
2.49992	86.6216
2.49872	86.6015
2.49751	86.5691
2.49631	86.5042
2.49511	86.4875
2.49391	86.4998
2.49271	86.5027
2.49151	86.5846
2.49031	86.5627
2.48912	86.5781
2.48792	86.6415
2.48673	86.5807
2.48554	86.6132
2.48435	86.6254
2.48316	86.6563
2.48197	86.6417
2.48078	86.5303
2.4796	86.4631
2.47841	86.4181
2.47723	86.3696
2.47604	86.4096
2.47486	86.4655
2.47368	86.4403
2.4725	86.5001
2.47132	86.5499
2.47014	86.533
2.46897	86.4335
2.46779	86.3615
2.46662	86.2907
2.46545	86.381
2.46427	86.4763
2.4631	86.5184
2.46193	86.5165
2.46077	86.4367
2.4596	86.4345
2.45843	86.4333
2.45727	86.4351
2.4561	86.5643
2.45494	86.6756
2.45378	86.6086
2.45262	86.6116
2.45146	86.5842
2.4503	86.4939
2.44914	86.4998
2.44799	86.5434
2.44683	86.5469
2.44568	86.573
2.44452	86.6618
2.44337	86.7923
2.44222	86.74
2.44107	86.6363
2.43992	86.5835
2.43877	86.5662
2.43763	86.6076
2.43648	86.6824
2.43534	86.7341
2.43419	86.775
2.43305	86.7722
2.43191	86.7647
2.43077	86.7391
2.42963	86.8154
2.42849	86.8452
2.42736	86.8175
2.42622	86.8138
2.42509	86.9561
2.42395	87.0496
2.42282	86.9723
2.42169	86.9484
2.42056	87.026
2.41943	87.0789
2.4183	87.089
2.41717	87.0408
2.41605	87.0537
2.41492	87.1436
2.4138	87.2364
2.41267	87.1607
2.41155	87.0599
2.41043	87.0687
2.40931	87.1169
2.40819	87.2341
2.40707	87.3554
2.40595	87.3845
2.40484	87.4011
2.40372	87.3848
2.40261	87.354
2.4015	87.3855
2.40039	87.4148
2.39928	87.419
2.39817	87.3237
2.39706	87.2476
2.39595	87.354
2.39484	87.4623
2.39374	87.4189
2.39263	87.4227
2.39153	87.5104
2.39043	87.5993
2.38932	87.6407
2.38822	87.67
2.38712	87.5701
2.38603	87.4615
2.38493	87.501
2.38383	87.6175
2.38274	87.6539
2.38164	87.6508
2.38055	87.6979
2.37946	87.7226
2.37836	87.783
2.37727	87.769
2.37618	87.6311
2.3751	87.6478
2.37401	87.6742
2.37292	87.6861
2.37184	87.7141
2.37075	87.7207
2.36967	87.793
2.36859	87.8273
2.3675	87.7817
2.36642	87.8281
2.36534	87.9035
2.36427	87.8896
2.36319	87.8392
2.36211	87.7766
2.36104	87.8403
2.35996	87.8534
2.35889	87.8166
2.35781	87.9185
2.35674	87.9074
2.35567	87.8654
2.3546	87.883
2.35353	87.8651
2.35247	87.8632
2.3514	87.842
2.35033	87.8883
2.34927	88.0532
2.3482	88.2195
2.34714	88.0376
2.34608	87.8706
2.34502	87.8257
2.34396	87.8914
2.3429	87.9975
2.34184	87.9598
2.34078	87.9782
2.33973	88.0337
2.33867	88.0269
2.33762	88.0842
2.33656	88.1132
2.33551	88.1272
2.33446	88.1373
2.33341	88.2104
2.33236	88.1612
2.33131	88.048
2.33026	87.9983
2.32922	87.9405
2.32817	87.9595
2.32712	88.0137
2.32608	87.9833
2.32504	88.0068
2.324	88.2163
2.32295	88.2828
2.32191	88.2441
2.32087	88.2285
2.31984	88.1449
2.3188	88.0835
2.31776	88.1082
2.31673	88.2377
2.31569	88.234
2.31466	88.0076
2.31362	87.8624
2.31259	87.9995
2.31156	88.1012
2.31053	88.0707
2.3095	88.062
2.30847	88.0199
2.30745	88.0383
2.30642	88.0668
2.3054	88.0949
2.30437	88.1165
2.30335	88.0966
2.30232	88.0962
2.3013	88.1073
2.30028	88.1579
2.29926	88.1469
2.29824	88.1211
2.29722	88.1118
2.29621	88.0972
2.29519	88.1429
2.29417	88.248
2.29316	88.2316
2.29215	88.2369
2.29113	88.2227
2.29012	88.0105
2.28911	87.9806
2.2881	88.1343
2.28709	88.1292
2.28608	88.0598
2.28507	88.1906
2.28407	88.2272
2.28306	88.0531
2.28206	88.0224
2.28105	88.1508
2.28005	88.1164
2.27905	88.0921
2.27805	88.0856
2.27705	88.0192
2.27605	88.0712
2.27505	88.1479
2.27405	88.1509
2.27305	88.1421
2.27206	88.0438
2.27106	88.0098
2.27007	88.0725
2.26907	88.1123
2.26808	88.1614
2.26709	88.164
2.2661	88.1273
2.26511	88.1552
2.26412	88.1631
2.26313	88.194
2.26214	88.2733
2.26116	88.2113
2.26017	88.1891
2.25919	88.2631
2.2582	88.1406
2.25722	87.9666
2.25624	88.1199
2.25526	88.1853
2.25428	88.2801
2.2533	88.2104
2.25232	88.0987
2.25134	88.245
2.25036	88.2978
2.24939	88.2201
2.24841	88.1656
2.24744	88.1219
2.24646	88.1887
2.24549	88.2319
2.24452	88.2476
2.24355	88.3195
2.24257	88.3331
2.24161	88.2442
2.24064	88.2256
2.23967	88.2129
2.2387	88.2615
2.23774	88.2992
2.23677	88.1644
2.23581	88.0752
2.23484	88.2132
2.23388	88.2481
2.23292	88.2124
2.23196	88.2827
2.231	88.2482
2.23004	88.2419
2.22908	88.2333
2.22812	88.1878
2.22716	88.1352
2.22621	88.1962
2.22525	88.1587
2.2243	88.1332
2.22334	88.1927
2.22239	88.2287
2.22144	88.2796
2.22049	88.2565
2.21953	88.1485
2.21859	88.1779
2.21764	88.2031
2.21669	88.1746
2.21574	88.2045
2.21479	88.3206
2.21385	88.3346
2.2129	88.2079
2.21196	88.1857
2.21102	88.1908
2.21007	88.0872
2.20913	88.0953
2.20819	88.1897
2.20725	88.2978
2.20631	88.333
2.20537	88.3429
2.20444	88.3682
2.2035	88.3818
2.20256	88.3917
2.20163	88.4492
2.20069	88.3686
2.19976	88.2008
2.19883	88.2303
2.19789	88.344
2.19696	88.2685
2.19603	88.24
2.1951	88.3554
2.19417	88.3545
2.19325	88.4134
2.19232	88.4542
2.19139	88.2792
2.19047	88.106
2.18954	88.1572
2.18862	88.221
2.18769	88.2412
2.18677	88.2721
2.18585	88.2474
2.18493	88.2871
2.18401	88.3055
2.18309	88.187
2.18217	88.2639
2.18125	88.3009
2.18033	88.236
2.17942	88.2648
2.1785	88.2642
2.17759	88.2201
2.17667	88.2506
2.17576	88.2195
2.17485	88.2162
2.17393	88.2889
2.17302	88.2895
2.17211	88.2281
2.1712	88.2462
2.17029	88.2723
2.16939	88.206
2.16848	88.2023
2.16757	88.3404
2.16667	88.3841
2.16576	88.3286
2.16486	88.3609
2.16395	88.3255
2.16305	88.2928
2.16215	88.3142
2.16125	88.2993
2.16035	88.2936
2.15945	88.3049
2.15855	88.3338
2.15765	88.2197
2.15675	88.028
2.15586	87.9874
2.15496	88.1163
2.15406	88.2802
2.15317	88.2624
2.15228	88.2549
2.15138	88.3607
2.15049	88.4371
2.1496	88.3839
2.14871	88.1872
2.14782	88.1063
2.14693	88.2163
2.14604	88.3364
2.14515	88.2153
2.14427	88.1605
2.14338	88.1087
2.14249	88.1298
2.14161	88.1348
2.14072	88.1341
2.13984	88.1699
2.13896	88.1548
2.13808	88.1205
2.13719	88.2045
2.13631	88.2313
2.13543	88.2775
2.13455	88.2362
2.13368	88.2165
2.1328	88.1747
2.13192	88.2047
2.13105	88.2667
2.13017	88.2777
2.1293	88.248
2.12842	88.1848
2.12755	88.2628
2.12668	88.3924
2.1258	88.3776
2.12493	88.2904
2.12406	88.2448
2.12319	88.1571
2.12232	88.1564
2.12145	88.1696
2.12059	88.0966
2.11972	88.0177
2.11885	88.0778
2.11799	88.2047
2.11712	88.3002
2.11626	88.3509
2.1154	88.3865
2.11453	88.1567
2.11367	88.0947
2.11281	88.1426
2.11195	88.1128
2.11109	88.0665
2.11023	87.9217
2.10937	88.0961
2.10851	88.1897
2.10766	88.1704
2.1068	88.1756
2.10594	88.184
2.10509	88.1356
2.10423	88.0926
2.10338	88.1836
2.10253	88.2173
2.10168	88.231
2.10082	88.1091
2.09997	87.9805
2.09912	87.9823
2.09827	87.9792
2.09742	88.0342
2.09658	88.1637
2.09573	88.1842
2.09488	88.2072
2.09404	88.3587
2.09319	88.292
2.09235	88.1732
2.0915	88.1112
2.09066	88.2305
2.08982	88.1238
2.08897	87.9721
2.08813	88.0463
2.08729	88.1822
2.08645	88.1971
2.08561	88.1265
2.08477	88.0642
2.08394	88.0398
2.0831	88.1922
2.08226	88.1936
2.08143	88.1662
2.08059	88.0827
2.07976	87.8612
2.07892	87.7807
2.07809	87.9062
2.07726	87.8805
2.07643	87.8404
2.07559	87.8738
2.07476	88.1502
2.07393	88.1766
2.0731	87.8363
2.07228	87.7223
2.07145	88.0433
2.07062	88.3633
2.06979	88.0713
2.06897	88.0306
2.06814	88.2208
2.06732	88.3456
2.06649	88.1995
2.06567	88.0246
2.06485	88.044
2.06403	88.0974
2.0632	87.9608
2.06238	87.8583
2.06156	88.0701
2.06074	88.1357
2.05993	87.8604
2.05911	87.7079
2.05829	87.7609
2.05747	87.7588
2.05666	87.8277
2.05584	87.9249
2.05503	87.8182
2.05421	87.7599
2.0534	87.9287
2.05259	88.0765
2.05177	87.9756
2.05096	87.8202
2.05015	87.8826
2.04934	87.9961
2.04853	87.9134
2.04772	87.7179
2.04691	87.6964
2.04611	87.7549
2.0453	87.7602
2.04449	87.7934
2.04369	87.8852
2.04288	87.9149
2.04208	87.7817
2.04127	87.5135
2.04047	87.4858
2.03967	87.722
2.03886	87.6884
2.03806	87.5493
2.03726	87.5198
2.03646	87.4573
2.03566	87.455
2.03486	87.6338
2.03407	87.6388
2.03327	87.6169
2.03247	87.6347
2.03167	87.5285
2.03088	87.4758
2.03008	87.601
2.02929	87.5495
2.0285	87.4623
2.0277	87.3744
2.02691	87.3086
2.02612	87.2831
2.02533	87.1973
2.02453	87.1321
2.02374	87.1104
2.02295	87.1155
2.02217	87.1068
2.02138	87.1604
2.02059	87.0879
2.0198	87.0931
2.01902	87.1416
2.01823	87.1312
2.01744	87.1438
2.01666	87.0032
2.01588	86.8201
2.01509	86.8427
2.01431	86.9865
2.01353	86.9444
2.01275	86.685
2.01196	86.6489
2.01118	86.6787
2.0104	86.5898
2.00963	86.5918
2.00885	86.7164
2.00807	86.6034
2.00729	86.5041
2.00651	86.431
2.00574	86.4048
2.00496	86.5625
2.00419	86.5821
2.00341	86.4974
2.00264	86.466
2.00187	86.4294
2.00109	86.4137
2.00032	86.3648
