Name: Brass plate
Type: Manmade materials
Class: Reflectance target
Subclass: 
Particle Size: Solid
Sample No.: SN: ILF-17464-2-1
Owner: JPL
Wavelength range: IR
Origin: Labsphere, P.O. Box 70, Shaker Street, North Sutton, NH 03260
(603) 927-4266
Description: Measurement made at top left. Field Brass 2.
Measured Oct. 30th 1997 to Nov. 2nd 1997.




Measurement: Hemispherical Reflectance
First Column: X
Second Column: Y
X Units: Wavelength (micrometers)
Y Units: Reflectence (percent)
First X Value: 15.3853
Last X Value: 2.00032
Number of X Values: 2256
Additional information: None.
 
15.3853	90.3695
15.3397	90.2897
15.2945	90.4393
15.2495	90.468
15.2048	90.551
15.1603	90.647
15.1161	90.7377
15.0722	90.7675
15.0285	90.5868
14.9851	90.0166
14.9419	90.1478
14.8989	90.4346
14.8563	90.4305
14.8138	90.3836
14.7716	90.414
14.7296	90.4112
14.6879	90.4815
14.6464	90.5285
14.6052	90.4617
14.5641	90.4422
14.5233	90.4499
14.4828	90.603
14.4424	90.6267
14.4023	90.5967
14.3624	90.5369
14.3227	90.4944
14.2833	90.4854
14.244	90.4215
14.205	90.3835
14.1662	90.3953
14.1276	90.4643
14.0892	90.4516
14.051	90.4047
14.0131	90.4612
13.9753	90.5623
13.9377	90.4722
13.9004	90.4861
13.8632	90.5675
13.8262	90.547
13.7895	90.4722
13.7529	90.4112
13.7165	90.4233
13.6803	90.4817
13.6443	90.427
13.6085	90.4051
13.5729	90.4654
13.5374	90.5587
13.5022	90.4181
13.4671	90.3741
13.4322	90.4755
13.3975	90.5131
13.363	90.4809
13.3286	90.4116
13.2944	90.4085
13.2604	90.4152
13.2266	90.3834
13.193	90.3018
13.1595	90.335
13.1262	90.4652
13.093	90.4228
13.06	90.4521
13.0272	90.441
12.9946	90.3
12.9621	90.2907
12.9298	90.2554
12.8976	90.1955
12.8656	90.213
12.8337	90.1364
12.8021	90.0903
12.7705	90.1654
12.7391	90.0479
12.7079	90.0156
12.6769	90.0815
12.6459	90.0229
12.6152	90.1142
12.5845	90.2048
12.5541	90.1087
12.5238	90.0313
12.4936	90.0698
12.4635	90.0867
12.4337	90.0117
12.4039	89.9608
12.3743	89.9386
12.3448	90.0277
12.3155	90.1442
12.2863	90.0375
12.2573	89.9756
12.2284	90.0122
12.1996	89.9469
12.171	89.9417
12.1425	89.9922
12.1141	89.9431
12.0859	89.9273
12.0578	89.974
12.0298	90.0155
12.0019	90.0113
11.9742	90.0342
11.9466	90.0786
11.9192	90.1146
11.8918	90.0409
11.8646	89.9306
11.8375	89.8863
11.8106	89.9043
11.7837	89.9605
11.757	90.0262
11.7304	90.1422
11.7039	90.1186
11.6776	89.9268
11.6513	89.9288
11.6252	90.0752
11.5992	90.1486
11.5733	90.1535
11.5475	90.1375
11.5219	90.1097
11.4963	90.0856
11.4709	90.0621
11.4455	90.0587
11.4203	90.0432
11.3952	90.0147
11.3702	90.0113
11.3454	89.9481
11.3206	89.9982
11.2959	90.0878
11.2714	89.9983
11.2469	89.9507
11.2226	89.9211
11.1983	89.9274
11.1742	89.8372
11.1502	89.7805
11.1263	89.8227
11.1024	89.8142
11.0787	89.8155
11.0551	89.8544
11.0316	89.9409
11.0081	89.9287
10.9848	89.787
10.9616	89.7831
10.9385	89.8573
10.9154	89.8749
10.8925	89.8792
10.8697	89.7317
10.8469	89.7399
10.8243	89.7892
10.8017	89.6726
10.7793	89.6465
10.7569	89.8039
10.7346	89.8243
10.7125	89.7847
10.6904	89.776
10.6684	89.7989
10.6465	89.8174
10.6247	89.7745
10.6029	89.6676
10.5813	89.6822
10.5597	89.7678
10.5383	89.7636
10.5169	89.7486
10.4956	89.6883
10.4744	89.6314
10.4533	89.646
10.4323	89.7188
10.4113	89.7114
10.3904	89.6563
10.3697	89.7158
10.349	89.749
10.3284	89.7188
10.3078	89.7454
10.2874	89.727
10.267	89.7162
10.2467	89.7847
10.2265	89.783
10.2064	89.715
10.1863	89.6893
10.1663	89.6743
10.1464	89.6722
10.1266	89.6392
10.1069	89.5966
10.0872	89.6171
10.0676	89.6448
10.0481	89.7524
10.0287	89.7506
10.0093	89.6773
9.99005	89.6352
9.97084	89.604
9.95169	89.5649
9.93263	89.5921
9.91364	89.5317
9.89472	89.5383
9.87587	89.5645
9.8571	89.5496
9.83839	89.5651
9.81976	89.5627
9.80119	89.5115
9.78271	89.5506
9.76428	89.5445
9.74592	89.5195
9.72764	89.4999
9.70943	89.465
9.69128	89.399
9.6732	89.4739
9.65518	89.5076
9.63724	89.494
9.61935	89.4539
9.60155	89.4759
9.5838	89.4939
9.56611	89.5258
9.5485	89.5389
9.53094	89.5078
9.51345	89.4096
9.49604	89.3539
9.47867	89.4795
9.46137	89.6271
9.44414	89.5357
9.42697	89.4048
9.40986	89.4189
9.39281	89.4254
9.37583	89.476
9.35891	89.517
9.34204	89.5425
9.32524	89.5089
9.3085	89.4436
9.29182	89.4707
9.27519	89.5865
9.25863	89.6385
9.24213	89.646
9.22568	89.5984
9.2093	89.5605
9.19297	89.5364
9.17669	89.5571
9.16048	89.5767
9.14433	89.6682
9.12823	89.6306
9.11218	89.6136
9.0962	89.6966
9.08027	89.808
9.06439	89.7967
9.04858	89.7921
9.03281	89.8873
9.0171	89.9542
9.00145	89.9781
8.98585	89.9462
8.9703	89.9377
8.9548	89.9878
8.93937	89.8957
8.92398	89.8949
8.90865	90.0514
8.89337	90.0004
8.87814	89.8077
8.86296	89.8004
8.84784	89.8262
8.83277	89.7675
8.81774	89.7936
8.80277	89.871
8.78786	89.8296
8.77298	89.7308
8.75816	89.6493
8.7434	89.7061
8.72868	89.694
8.714	89.5845
8.69938	89.664
8.68481	89.819
8.67029	89.8398
8.65581	89.7748
8.64139	89.7135
8.62701	89.771
8.61268	89.8636
8.5984	89.8404
8.58416	89.7807
8.56997	89.7731
8.55583	89.7265
8.54174	89.6837
8.52769	89.7869
8.51368	89.9144
8.49973	89.8709
8.48582	89.8536
8.47195	89.8414
8.45813	89.8466
8.44436	89.8061
8.43062	89.8694
8.41693	89.9104
8.4033	89.8675
8.3897	89.7766
8.37614	89.7384
8.36264	89.7697
8.34917	89.8131
8.33574	89.8397
8.32236	89.8676
8.30903	89.8568
8.29573	89.884
8.28248	89.9491
8.26927	89.9149
8.2561	89.8397
8.24298	89.8353
8.2299	89.8274
8.21685	89.9031
8.20385	89.9232
8.19089	89.806
8.17797	89.7611
8.16509	89.8192
8.15225	89.8933
8.13946	89.865
8.1267	89.8488
8.11398	89.9305
8.10131	90.0251
8.08867	89.9814
8.07606	89.9053
8.0635	89.9115
8.05099	89.9585
8.0385	89.9911
8.02606	89.9742
8.01366	90.0138
8.00129	90.0635
7.98896	90.1276
7.97667	90.15
7.96442	90.1299
7.9522	90.1341
7.94002	90.2298
7.92788	90.3333
7.91578	90.3668
7.90371	90.4304
7.89168	90.5053
7.87969	90.4863
7.86773	90.5206
7.85581	90.6226
7.84392	90.638
7.83207	90.6032
7.82026	90.6402
7.80849	90.7247
7.79674	90.8036
7.78503	90.8423
7.77337	90.8771
7.76173	90.9574
7.75012	90.9542
7.73856	90.9227
7.72703	90.9362
7.71553	90.938
7.70406	91.0039
7.69263	91.0018
7.68123	90.9575
7.66987	91.0107
7.65855	91.0517
7.64725	91.0306
7.63598	91.0158
7.62475	91.0529
7.61356	91.0923
7.60239	91.083
7.59126	91.0522
7.58017	91.091
7.5691	91.1769
7.55806	91.1701
7.54707	91.1089
7.5361	91.1485
7.52516	91.1448
7.51425	91.111
7.50338	91.1113
7.49253	91.1961
7.48172	91.2234
7.47094	91.1783
7.46019	91.1752
7.44947	91.1522
7.43879	91.1136
7.42813	91.165
7.4175	91.2353
7.4069	91.2584
7.39634	91.2347
7.3858	91.2206
7.37529	91.2529
7.36482	91.2809
7.35437	91.2316
7.34396	91.24
7.33357	91.2325
7.32321	91.2078
7.31288	91.212
7.30258	91.1774
7.29231	91.2003
7.28207	91.2566
7.27185	91.2252
7.26167	91.171
7.25152	91.1148
7.24139	91.0904
7.23129	91.0862
7.22122	91.109
7.21117	91.2101
7.20116	91.1991
7.19117	91.1383
7.18121	91.1525
7.17128	91.2293
7.16137	91.1751
7.1515	91.1485
7.14164	91.1521
7.13182	91.0908
7.12203	91.1159
7.11225	91.124
7.10251	91.0504
7.0928	91.0521
7.08311	91.0862
7.07344	91.0994
7.06381	91.1542
7.0542	91.2664
7.04461	91.3306
7.03506	91.2248
7.02552	91.2019
7.01601	91.2511
7.00653	91.1953
6.99708	91.2155
6.98765	91.204
6.97824	91.2069
6.96886	91.3945
6.95951	91.555
6.95018	91.3721
6.94087	91.3047
6.9316	91.3608
6.92234	91.37
6.91311	91.4028
6.90391	91.4259
6.89473	91.3571
6.88557	91.3677
6.87644	91.4059
6.86733	91.6456
6.85824	91.6752
6.84918	91.4715
6.84015	91.3777
6.83114	91.4441
6.82215	91.4459
6.81319	91.3074
6.80424	91.3058
6.79532	91.4991
6.78643	91.563
6.77756	91.4606
6.76871	91.3715
6.75989	91.2573
6.75109	91.1845
6.74231	91.1705
6.73355	91.2671
6.72482	91.374
6.71611	91.4134
6.70742	91.3805
6.69875	91.2746
6.69011	91.2846
6.68149	91.3936
6.67289	91.3421
6.66431	91.2636
6.65576	91.2676
6.64722	91.4624
6.63871	91.7577
6.63022	91.6026
6.62175	91.3626
6.61331	91.3461
6.60488	91.3622
6.59648	91.4209
6.5881	91.428
6.57974	91.459
6.5714	91.5474
6.56308	91.4021
6.55478	91.361
6.54651	91.3211
6.53825	91.3023
6.53001	91.3653
6.5218	91.4247
6.51361	91.3059
6.50544	91.3237
6.49729	91.5996
6.48915	91.6418
6.48104	91.4706
6.47295	91.3397
6.46488	91.2156
6.45683	91.164
6.4488	91.1616
6.44079	91.2293
6.4328	91.3316
6.42482	91.4737
6.41687	91.7465
6.40894	91.5359
6.40103	91.1742
6.39314	91.1179
6.38526	91.0499
6.37741	91.0725
6.36957	91.1501
6.36176	91.0139
6.35396	90.9592
6.34618	91.1323
6.33843	91.0832
6.33069	90.8898
6.32297	90.8598
6.31527	90.8587
6.30758	90.8372
6.29992	90.8101
6.29227	90.7975
6.28465	90.6836
6.27704	90.5986
6.26945	90.6416
6.26188	90.7119
6.25432	90.6738
6.24679	90.6222
6.23927	90.6135
6.23177	90.6761
6.22429	90.7113
6.21683	90.7499
6.20938	90.7767
6.20195	90.7527
6.19454	90.8171
6.18715	90.9973
6.17978	90.8811
6.17242	90.6728
6.16508	90.649
6.15776	90.6637
6.15045	90.5586
6.14317	90.6005
6.1359	90.7391
6.12864	90.8316
6.12141	91.0084
6.11419	91.2594
6.10699	91.1784
6.0998	91.0829
6.09263	91.1278
6.08549	91.1813
6.07835	91.3513
6.07123	91.4545
6.06413	91.3146
6.05705	91.4598
6.04998	91.8483
6.04293	91.5721
6.0359	91.2609
6.02888	91.1935
6.02187	91.2609
6.01489	91.3857
6.00792	91.3338
6.00096	91.3368
5.99403	91.4549
5.98711	91.4506
5.9802	91.3806
5.97331	91.402
5.96644	91.439
5.95958	91.2702
5.95274	91.2538
5.94591	91.4196
5.9391	91.7175
5.9323	91.6388
5.92552	91.3478
5.91876	91.2813
5.91201	91.3447
5.90528	91.4512
5.89856	91.6359
5.89186	91.537
5.88517	91.5974
5.8785	91.6473
5.87184	91.3732
5.8652	91.3777
5.85857	91.3575
5.85196	91.3108
5.84536	91.2886
5.83878	91.3442
5.83221	91.422
5.82566	91.5395
5.81912	91.5412
5.81259	91.333
5.80608	91.2338
5.79959	91.2254
5.79311	91.2366
5.78665	91.242
5.78019	91.2523
5.77376	91.4065
5.76734	91.6719
5.76093	91.5057
5.75453	91.3467
5.74815	91.3588
5.74179	91.2333
5.73543	91.1238
5.7291	91.1493
5.72277	91.2517
5.71646	91.3307
5.71017	91.318
5.70389	91.1718
5.69762	91.1365
5.69136	91.1915
5.68513	91.1564
5.6789	91.2018
5.67268	91.1912
5.66648	91.0809
5.6603	91.1471
5.65413	91.1776
5.64797	91.1691
5.64182	91.2722
5.63569	91.1888
5.62957	91.1144
5.62347	91.0698
5.61737	91.0569
5.61129	91.0615
5.60522	91.1147
5.59917	91.1135
5.59313	91.1143
5.5871	91.1852
5.58109	91.2419
5.57509	91.2224
5.5691	91.1359
5.56312	91.1189
5.55716	91.1179
5.55121	91.148
5.54528	91.0873
5.53935	91.0287
5.53344	91.0062
5.52754	90.9815
5.52166	90.9817
5.51578	91.0461
5.50992	91.0216
5.50407	90.9755
5.49823	90.9653
5.49241	90.9999
5.4866	91.0188
5.4808	91.054
5.47501	91.0459
5.46923	91.0592
5.46347	91.0589
5.45772	90.9671
5.45198	90.9652
5.44625	90.9878
5.44054	90.9563
5.43484	90.9557
5.42914	91.0248
5.42347	91.1424
5.4178	91.1055
5.41214	90.975
5.4065	90.9088
5.40087	90.9327
5.39525	90.9637
5.38964	91.0091
5.38404	91.0099
5.37846	90.9809
5.37288	90.9614
5.36732	90.9579
5.36177	90.9403
5.35623	90.9878
5.35071	91.0096
5.34519	90.9394
5.33968	90.915
5.33419	90.8984
5.32871	90.8911
5.32324	90.937
5.31778	90.9797
5.31233	90.9781
5.30689	90.9342
5.30147	90.9183
5.29605	90.945
5.29065	90.9347
5.28525	90.9625
5.27987	90.9801
5.2745	90.9925
5.26914	90.9752
5.26379	90.926
5.25845	90.912
5.25312	90.9521
5.24781	90.989
5.2425	90.9946
5.23721	90.956
5.23192	90.9129
5.22665	90.9233
5.22138	90.9751
5.21613	91.0727
5.21089	91.0528
5.20566	90.9578
5.20044	90.9129
5.19522	90.9021
5.19002	90.9589
5.18483	90.983
5.17965	90.9609
5.17448	90.9649
5.16933	90.9629
5.16418	90.9868
5.15904	91.0199
5.15391	90.9935
5.14879	90.9604
5.14368	90.9324
5.13859	90.9539
5.1335	90.9971
5.12842	91.0225
5.12335	90.9991
5.1183	90.9992
5.11325	91.0087
5.10821	91.021
5.10318	91.0328
5.09817	90.9934
5.09316	90.9809
5.08816	91.0396
5.08317	91.0644
5.07819	91.017
5.07322	90.9984
5.06826	90.9734
5.06331	90.9635
5.05837	90.9607
5.05344	90.9505
5.04852	90.9548
5.04361	90.9865
5.03871	91.0019
5.03382	90.9294
5.02894	90.8982
5.02406	90.9748
5.0192	91.0671
5.01435	91.1074
5.0095	91.0365
5.00467	90.9826
4.99984	91.0027
4.99502	90.9456
4.99021	90.9331
4.98542	90.9912
4.98063	91.0025
4.97585	90.9702
4.97108	91.0097
4.96632	91.0421
4.96156	91.0318
4.95682	91.032
4.95209	91.0499
4.94736	91.0352
4.94264	90.9874
4.93794	91.0151
4.93324	90.9981
4.92855	90.9848
4.92387	91.021
4.9192	91.0358
4.91453	91.0574
4.90988	91.0096
4.90524	90.9754
4.9006	91.024
4.89597	91.0361
4.89135	91.0604
4.88674	91.1161
4.88214	91.0993
4.87755	91.0965
4.87296	91.0729
4.86839	90.9855
4.86382	91.003
4.85926	91.01
4.85471	91.0416
4.85017	91.0413
4.84564	90.9862
4.84111	90.9524
4.8366	90.9735
4.83209	91.0746
4.82759	91.0768
4.8231	91.0247
4.81862	91.0016
4.81415	91.0027
4.80968	91.0962
4.80522	91.1273
4.80077	91.0398
4.79633	90.9974
4.7919	91.0569
4.78747	91.0501
4.78306	91.0231
4.77865	91.0611
4.77425	91.048
4.76986	91.0261
4.76547	91.0112
4.7611	90.9835
4.75673	91.0172
4.75237	91.0581
4.74802	91.0515
4.74367	91.0608
4.73934	91.0827
4.73501	91.0431
4.73069	91.0333
4.72638	91.0082
4.72207	91.0581
4.71777	91.066
4.71348	91.015
4.7092	91.0023
4.70493	91.0208
4.70066	91.019
4.69641	91.0385
4.69216	91.0396
4.68791	91.0075
4.68368	91.0325
4.67945	91.0323
4.67523	91.0111
4.67102	91.0611
4.66682	91.0482
4.66262	91.006
4.65843	91.0195
4.65425	91.0551
4.65007	91.0659
4.64591	91.0334
4.64175	91.0303
4.6376	91.0527
4.63345	91.0448
4.62932	91.0144
4.62519	91.0214
4.62106	91.0204
4.61695	91.0403
4.61284	91.0418
4.60874	91.0359
4.60465	91.0792
4.60056	91.0918
4.59648	90.9866
4.59241	91.0054
4.58835	91.0209
4.58429	91.0038
4.58024	91.0481
4.5762	91.0235
4.57216	90.9709
4.56814	90.982
4.56411	90.9951
4.5601	90.9765
4.55609	90.9823
4.55209	91.0115
4.5481	91.0395
4.54411	91.0436
4.54013	91.0652
4.53616	91.0986
4.5322	91.0674
4.52824	91.0061
4.52429	90.9867
4.52034	91.0474
4.51641	91.0765
4.51247	91.0538
4.50855	91.0062
4.50463	90.9821
4.50072	91.0252
4.49682	91.0627
4.49292	91.0257
4.48903	91.0219
4.48515	91.0256
4.48127	90.9621
4.4774	90.955
4.47354	91.0263
4.46968	91.0202
4.46584	91.0232
4.46199	90.9947
4.45815	90.9782
4.45432	91.0184
4.4505	91.0403
4.44668	91.0352
4.44287	91.0756
4.43907	91.0321
4.43527	90.9476
4.43148	90.9708
4.4277	90.9913
4.42392	91.0106
4.42015	90.9988
4.41638	90.9955
4.41262	90.9516
4.40887	90.9001
4.40513	90.9652
4.40139	91.0205
4.39765	90.991
4.39393	90.9993
4.39021	90.9926
4.38649	91.0159
4.38278	91.0359
4.37908	91.0375
4.37539	91.0496
4.3717	91.0247
4.36801	90.9847
4.36434	90.9727
4.36067	90.9644
4.357	90.9551
4.35335	90.9395
4.34969	90.9113
4.34605	90.9371
4.34241	90.9581
4.33877	90.8998
4.33514	90.8687
4.33152	90.8414
4.32791	90.7116
4.3243	90.6511
4.32069	90.6566
4.3171	90.6034
4.31351	90.5387
4.30992	90.4307
4.30634	90.3085
4.30277	90.2317
4.2992	90.1519
4.29564	90.1105
4.29208	90.0587
4.28853	89.9206
4.28499	89.8555
4.28145	89.837
4.27792	89.7939
4.27439	89.8012
4.27087	89.8692
4.26735	89.9919
4.26384	90.1928
4.26034	90.4596
4.25684	90.6397
4.25335	90.4662
4.24986	90.1201
4.24638	89.7843
4.24291	89.5348
4.23944	89.4552
4.23598	89.4088
4.23252	89.3226
4.22906	89.3024
4.22562	89.4817
4.22218	89.7519
4.21874	89.9453
4.21531	90.1814
4.21189	90.4745
4.20847	90.6675
4.20506	90.7658
4.20165	90.8212
4.19825	90.8695
4.19485	90.9484
4.19146	90.9652
4.18807	90.9827
4.18469	91.0211
4.18132	90.98
4.17795	90.9491
4.17458	90.9735
4.17123	90.9655
4.16787	90.9331
4.16453	90.9723
4.16118	90.9953
4.15785	90.9609
4.15451	90.9521
4.15119	90.971
4.14787	90.9716
4.14455	91.0069
4.14124	90.9808
4.13794	90.9028
4.13464	90.9444
4.13134	90.9865
4.12805	90.9499
4.12477	90.9375
4.12149	90.9768
4.11822	91.0634
4.11495	91.0006
4.11168	90.9549
4.10843	90.9625
4.10517	90.9224
4.10192	90.9253
4.09868	90.9358
4.09545	90.9262
4.09221	90.9627
4.08899	91.0388
4.08576	91.0271
4.08255	90.9994
4.07933	90.9744
4.07613	90.9127
4.07292	90.8936
4.06973	90.9679
4.06654	90.9699
4.06335	90.9421
4.06017	90.9746
4.05699	90.9608
4.05382	90.9482
4.05065	90.9733
4.04749	91.003
4.04433	90.9708
4.04118	90.8728
4.03803	90.8775
4.03489	90.9593
4.03175	90.9475
4.02862	90.9029
4.02549	90.9336
4.02237	90.9548
4.01925	90.9819
4.01614	90.9878
4.01303	90.9884
4.00993	90.9692
4.00683	90.9635
4.00373	90.9802
4.00064	90.9634
3.99756	90.953
3.99448	91.0134
3.9914	91.0227
3.98833	90.9586
3.98527	90.9484
3.98221	90.9519
3.97915	90.9559
3.9761	91.0054
3.97305	90.9963
3.97001	90.9747
3.96697	90.9522
3.96394	90.9623
3.96091	90.9924
3.95789	91.0318
3.95487	90.9825
3.95186	90.9689
3.94885	91.0005
3.94584	91.0059
3.94284	90.9581
3.93984	90.912
3.93685	90.9021
3.93386	90.8967
3.93088	90.9448
3.9279	90.9583
3.92493	90.927
3.92196	90.8921
3.919	90.9111
3.91604	90.9518
3.91308	90.9328
3.91013	90.9491
3.90718	90.9261
3.90424	90.8809
3.9013	90.936
3.89837	90.9376
3.89544	90.8805
3.89252	90.9457
3.8896	90.9804
3.88668	90.9741
3.88377	90.9629
3.88086	91.0066
3.87796	91.005
3.87506	90.9587
3.87217	90.9129
3.86928	90.9103
3.86639	90.9367
3.86351	90.8682
3.86064	90.8074
3.85776	90.8221
3.8549	90.8574
3.85203	90.9252
3.84917	90.9543
3.84631	90.9184
3.84346	90.9265
3.84062	90.9429
3.83777	90.8789
3.83494	90.8826
3.8321	90.9392
3.82927	90.9305
3.82644	90.9519
3.82362	90.9111
3.82081	90.8832
3.81799	90.9001
3.81518	90.9434
3.81238	90.9588
3.80958	90.915
3.80678	90.9217
3.80399	90.9258
3.8012	90.9032
3.79841	90.8517
3.79563	90.8626
3.79286	90.9013
3.79008	90.9572
3.78731	90.9278
3.78455	90.8462
3.78179	90.8758
3.77903	90.8743
3.77628	90.9166
3.77353	90.9484
3.77079	90.9678
3.76805	90.9531
3.76531	90.9201
3.76258	90.9272
3.75985	90.9137
3.75713	90.9135
3.7544	90.9018
3.75169	90.8863
3.74898	90.9265
3.74627	90.9499
3.74356	90.9191
3.74086	90.9024
3.73816	90.9681
3.73547	90.9659
3.73278	90.9661
3.7301	90.916
3.72741	90.8941
3.72474	90.9908
3.72206	90.9352
3.71939	90.8805
3.71673	90.9144
3.71406	90.9384
3.71141	90.9008
3.70875	90.9121
3.7061	90.9373
3.70345	90.9455
3.70081	90.9882
3.69817	90.9935
3.69553	90.9478
3.6929	90.9183
3.69027	90.9069
3.68765	90.921
3.68503	90.8998
3.68241	90.8183
3.6798	90.8498
3.67719	90.9064
3.67458	90.9349
3.67198	90.9622
3.66938	90.901
3.66678	90.8887
3.66419	90.8927
3.66161	90.9069
3.65902	90.9325
3.65644	90.8854
3.65387	90.9029
3.65129	90.914
3.64872	90.9051
3.64616	90.9146
3.64359	90.9162
3.64103	90.9573
3.63848	90.9636
3.63593	90.9126
3.63338	90.8817
3.63084	90.9362
3.6283	91.0146
3.62576	91.0035
3.62322	90.9272
3.62069	90.9593
3.61817	90.9569
3.61564	90.9835
3.61312	90.9955
3.61061	90.9136
3.6081	90.903
3.60559	90.9855
3.60308	90.9996
3.60058	90.9144
3.59808	90.928
3.59558	90.9833
3.59309	91.0313
3.59061	90.9662
3.58812	90.9078
3.58564	90.9068
3.58316	90.8639
3.58069	90.845
3.57822	90.8987
3.57575	90.9468
3.57328	91.0326
3.57082	91.0227
3.56836	90.9296
3.56591	90.93
3.56346	90.9632
3.56101	91.0022
3.55857	91.0413
3.55613	91.0317
3.55369	90.9916
3.55126	90.9621
3.54883	90.8935
3.5464	90.8852
3.54397	90.9433
3.54155	90.91
3.53914	90.961
3.53672	91.0207
3.53431	90.9541
3.5319	90.9121
3.5295	90.9655
3.5271	90.9898
3.5247	90.9617
3.52231	90.9639
3.51991	91.0315
3.51753	91.0622
3.51514	91.0283
3.51276	91.0824
3.51038	91.1654
3.50801	91.1064
3.50563	91.0833
3.50327	91.1242
3.5009	91.0451
3.49854	90.9961
3.49618	91.0296
3.49382	91.0775
3.49147	91.0323
3.48912	91.0014
3.48677	90.9586
3.48443	90.9733
3.48209	91.036
3.47975	91.023
3.47742	90.9988
3.47509	90.9985
3.47276	91.0131
3.47044	91.0362
3.46812	90.9864
3.4658	90.9329
3.46348	90.9803
3.46117	91.0542
3.45886	91.0758
3.45656	91.0374
3.45425	90.9885
3.45195	90.9931
3.44966	91.0367
3.44736	91.0814
3.44507	91.0901
3.44279	91.0779
3.4405	91.0272
3.43822	91.0576
3.43594	91.0801
3.43367	91.0288
3.43139	91.0344
3.42912	91.0708
3.42686	91.1324
3.42459	91.1662
3.42233	91.1051
3.42007	91.0535
3.41782	91.0604
3.41557	91.0787
3.41332	91.0471
3.41108	91.043
3.40883	91.0673
3.40659	91.0712
3.40435	91.1097
3.40212	91.1114
3.39989	91.1585
3.39766	91.2081
3.39544	91.1576
3.39322	91.021
3.391	90.8767
3.38878	90.9243
3.38657	91.0913
3.38436	91.1102
3.38215	90.9627
3.37994	90.8466
3.37774	90.9034
3.37554	90.9672
3.37335	90.9952
3.37115	91.0015
3.36896	91.0513
3.36678	91.0489
3.36459	90.969
3.36241	91.0057
3.36023	91.0493
3.35805	90.9999
3.35588	90.873
3.35371	90.8674
3.35154	90.9394
3.34938	90.9999
3.34721	90.9395
3.34505	90.8526
3.3429	90.8704
3.34074	90.9919
3.33859	91.0432
3.33644	90.9548
3.3343	90.9074
3.33215	90.8751
3.33001	90.8616
3.32788	90.9533
3.32574	90.9665
3.32361	90.9708
3.32148	90.9386
3.31936	90.9256
3.31723	90.9884
3.31511	90.9864
3.31299	90.9302
3.31088	90.949
3.30876	90.8981
3.30665	90.8886
3.30455	90.9197
3.30244	90.881
3.30034	90.854
3.29824	90.9334
3.29614	90.9605
3.29405	90.9233
3.29196	90.8757
3.28987	90.9708
3.28778	91.0021
3.2857	90.8546
3.28362	90.8085
3.28154	90.8201
3.27946	90.8583
3.27739	90.9656
3.27532	90.9627
3.27325	90.9221
3.27119	91.0106
3.26913	91.034
3.26707	91.0223
3.26501	90.983
3.26295	90.8804
3.2609	90.8649
3.25885	90.877
3.2568	90.9539
3.25476	91.0058
3.25272	91.0017
3.25068	90.9663
3.24864	90.9193
3.24661	90.9171
3.24458	90.8892
3.24255	90.9333
3.24052	91.0488
3.2385	91.0271
3.23648	90.9483
3.23446	90.9071
3.23244	90.9275
3.23043	90.9837
3.22841	90.973
3.2264	90.8744
3.2244	90.8443
3.22239	90.8625
3.22039	90.9584
3.21839	90.9787
3.2164	90.948
3.2144	91.0127
3.21241	91.042
3.21042	90.9932
3.20844	90.9571
3.20645	90.9321
3.20447	90.9133
3.20249	90.9121
3.20051	90.9532
3.19854	90.9595
3.19657	90.9462
3.1946	90.9522
3.19263	90.9546
3.19067	91.0242
3.1887	91.0686
3.18674	91.0648
3.18479	91.073
3.18283	90.9963
3.18088	90.8834
3.17893	90.9005
3.17698	90.9423
3.17504	90.9037
3.17309	90.9019
3.17115	90.8868
3.16921	90.8704
3.16728	90.8679
3.16534	90.913
3.16341	90.9388
3.16148	90.93
3.15956	90.9507
3.15763	90.9503
3.15571	90.9453
3.15379	90.9238
3.15187	90.9335
3.14996	90.9702
3.14805	91.0128
3.14614	90.9715
3.14423	90.9811
3.14232	91.0112
3.14042	90.9551
3.13852	91.028
3.13662	91.0379
3.13472	90.9856
3.13283	90.9772
3.13094	91.0046
3.12905	90.9751
3.12716	90.9867
3.12528	90.9665
3.12339	90.9611
3.12151	90.9429
3.11964	90.9245
3.11776	90.9622
3.11589	91.0643
3.11401	91.0397
3.11214	90.9795
3.11028	90.9398
3.10841	90.8866
3.10655	90.9036
3.10469	90.9364
3.10283	91.0253
3.10098	90.9586
3.09912	90.9463
3.09727	90.9726
3.09542	90.9962
3.09358	91.0899
3.09173	91.0795
3.08989	91.0221
3.08805	91.0763
3.08621	91.0773
3.08437	91.0351
3.08254	91
3.08071	90.9757
3.07888	91.0189
3.07705	91.0052
3.07523	91.0574
3.0734	91.0853
3.07158	91.0858
3.06977	91.0696
3.06795	91.0598
3.06613	91.0979
3.06432	91.0307
3.06251	91.0453
3.0607	91.0467
3.0589	90.9834
3.0571	90.8892
3.05529	90.9395
3.05349	91.0515
3.0517	91.0466
3.0499	91.0546
3.04811	91.0514
3.04632	90.9793
3.04453	90.942
3.04274	91.0016
3.04096	91.0604
3.03918	91.0914
3.0374	91.1377
3.03562	91.1277
3.03384	91.0507
3.03207	90.9673
3.03029	90.9655
3.02852	90.9471
3.02676	90.9815
3.02499	90.9887
3.02323	91.0493
3.02146	91.1211
3.0197	91.0154
3.01795	90.8746
3.01619	90.9427
3.01444	90.9886
3.01269	90.9396
3.01094	90.9124
3.00919	91.0634
3.00744	91.1698
3.0057	91.0984
3.00396	91.0513
3.00222	91.0036
3.00048	91.0148
2.99875	90.9587
2.99701	90.8593
2.99528	90.889
2.99355	90.9811
2.99183	91.0071
2.9901	91.0129
2.98838	91.0516
2.98666	91.0934
2.98494	91.1554
2.98322	91.0894
2.9815	90.9691
2.97979	91.0337
2.97808	91.0833
2.97637	91.0098
2.97466	90.9812
2.97295	90.9664
2.97125	91.0857
2.96955	91.1213
2.96785	91.0367
2.96615	91.0227
2.96446	91.0039
2.96276	91.0002
2.96107	90.9576
2.95938	90.8631
2.95769	90.9435
2.95601	91.0922
2.95432	91.0134
2.95264	90.9629
2.95096	90.902
2.94928	91.0184
2.9476	91.1201
2.94593	91.0535
2.94425	91.0759
2.94258	91.084
2.94092	91.024
2.93925	91.0623
2.93758	91.0842
2.93592	91.0278
2.93426	91.0491
2.9326	91.0829
2.93094	91.036
2.92928	91.0317
2.92763	90.9653
2.92598	90.8402
2.92433	90.8889
2.92268	91.0807
2.92103	91.0482
2.91939	90.9187
2.91775	90.9834
2.9161	91.0866
2.91447	91.0932
2.91283	91.0455
2.91119	91.0457
2.90956	91.0125
2.90793	90.9672
2.9063	91.0243
2.90467	91.0029
2.90304	90.9669
2.90142	91.001
2.89979	91.0537
2.89817	91.0157
2.89656	90.9529
2.89494	91.0441
2.89332	91.0524
2.89171	90.896
2.8901	90.9001
2.88849	91.0487
2.88688	91.0805
2.88527	90.9727
2.88367	90.9155
2.88206	90.8769
2.88046	90.9526
2.87886	90.996
2.87727	90.9216
2.87567	90.9243
2.87408	90.9339
2.87248	90.8956
2.87089	90.9388
2.8693	90.9924
2.86772	90.9504
2.86613	90.8837
2.86455	90.9137
2.86297	90.9775
2.86139	90.9132
2.85981	90.9235
2.85823	90.9308
2.85666	90.9109
2.85508	90.9577
2.85351	90.9405
2.85194	90.9931
2.85038	90.962
2.84881	90.9265
2.84724	90.9531
2.84568	90.8749
2.84412	90.7775
2.84256	90.9302
2.841	91.1117
2.83945	91.032
2.83789	90.999
2.83634	91.0455
2.83479	90.9789
2.83324	90.8753
2.83169	90.9409
2.83015	91.0236
2.82861	91.0044
2.82706	90.9146
2.82552	90.8885
2.82398	90.8838
2.82245	90.9145
2.82091	90.9246
2.81938	90.9232
2.81784	90.9752
2.81631	91.0059
2.81479	90.7825
2.81326	90.7189
2.81173	90.9167
2.81021	91.0381
2.80869	91.0248
2.80716	90.9639
2.80565	90.8792
2.80413	90.934
2.80261	90.891
2.8011	90.9202
2.79959	90.9854
2.79808	90.9454
2.79657	90.9312
2.79506	90.9789
2.79355	90.5433
2.79205	90.5016
2.79055	91.1317
2.78904	91.387
2.78754	91.156
2.78605	90.7568
2.78455	90.5963
2.78306	90.7039
2.78156	90.7815
2.78007	90.8954
2.77858	90.866
2.77709	90.8778
2.77561	90.9092
2.77412	90.9574
2.77264	90.9995
2.77116	90.9424
2.76968	90.8154
2.7682	90.7904
2.76672	90.9163
2.76524	91.0297
2.76377	91.0784
2.7623	91.0623
2.76083	90.9004
2.75936	90.8467
2.75789	90.9425
2.75642	91.2282
2.75496	91.3703
2.7535	91.1107
2.75203	90.9298
2.75057	90.793
2.74912	90.7427
2.74766	90.7282
2.7462	90.8213
2.74475	90.9677
2.7433	90.9638
2.74185	90.9266
2.7404	90.9425
2.73895	91.031
2.7375	90.899
2.73606	90.906
2.73462	90.9717
2.73318	90.8247
2.73174	90.7137
2.7303	90.8368
2.72886	90.9805
2.72742	90.9536
2.72599	90.9712
2.72456	91.1484
2.72313	91.1657
2.7217	91.1321
2.72027	91.1366
2.71884	91.0086
2.71742	90.9412
2.71599	90.7546
2.71457	90.6556
2.71315	90.7823
2.71173	90.998
2.71032	90.969
2.7089	90.9544
2.70748	90.9029
2.70607	90.8276
2.70466	90.8368
2.70325	90.8418
2.70184	90.8688
2.70043	90.849
2.69903	90.7149
2.69762	90.7397
2.69622	90.8981
2.69482	90.9555
2.69342	90.9105
2.69202	90.8721
2.69062	90.8679
2.68923	90.81
2.68783	90.8248
2.68644	90.8622
2.68505	90.9198
2.68366	90.9583
2.68227	90.8368
2.68089	90.7981
2.6795	90.9456
2.67812	91.0218
2.67673	91.0488
2.67535	90.9181
2.67397	90.7815
2.6726	90.8637
2.67122	91.1771
2.66984	91.1107
2.66847	90.9058
2.6671	91.0551
2.66572	91.1071
2.66435	91.1214
2.66299	90.9329
2.66162	90.8079
2.66025	90.8297
2.65889	90.8314
2.65753	90.657
2.65616	90.6087
2.65481	90.7054
2.65345	90.8075
2.65209	90.7609
2.65073	90.7327
2.64938	90.7747
2.64803	90.8117
2.64667	90.8311
2.64532	90.8257
2.64397	90.7961
2.64263	90.8676
2.64128	90.9472
2.63994	90.8911
2.63859	90.8027
2.63725	90.7122
2.63591	90.6729
2.63457	90.7504
2.63323	90.729
2.6319	90.8224
2.63056	91.0222
2.62923	90.9455
2.62789	90.8919
2.62656	90.9137
2.62523	90.7862
2.6239	90.7914
2.62258	90.7788
2.62125	90.8732
2.61993	90.8469
2.6186	90.789
2.61728	91.0592
2.61596	91.0034
2.61464	90.8479
2.61332	90.8125
2.61201	90.7751
2.61069	90.8077
2.60938	90.9435
2.60807	90.9366
2.60675	90.8521
2.60544	90.9376
2.60414	90.9786
2.60283	90.9081
2.60152	90.8205
2.60022	90.8046
2.59891	90.6946
2.59761	90.7517
2.59631	91.1316
2.59501	91.3239
2.59371	90.9742
2.59242	90.6692
2.59112	90.6669
2.58983	90.7396
2.58853	90.8288
2.58724	90.9049
2.58595	90.8596
2.58466	90.9147
2.58338	90.9336
2.58209	90.8173
2.5808	90.757
2.57952	90.6368
2.57824	90.7154
2.57695	90.8985
2.57567	90.8471
2.5744	90.7448
2.57312	90.7845
2.57184	90.6974
2.57057	90.8131
2.56929	90.8454
2.56802	90.7904
2.56675	90.7495
2.56548	90.8418
2.56421	90.8783
2.56294	90.8733
2.56168	90.9555
2.56041	90.8591
2.55915	90.7243
2.55789	90.76
2.55662	90.7938
2.55536	90.7363
2.5541	90.7375
2.55285	90.9148
2.55159	90.8633
2.55034	90.7137
2.54908	90.5848
2.54783	90.6873
2.54658	90.8716
2.54533	90.9154
2.54408	90.8666
2.54283	90.8309
2.54159	90.7889
2.54034	90.6558
2.5391	90.5675
2.53785	90.5415
2.53661	90.6415
2.53537	90.7578
2.53413	90.7804
2.53289	90.8341
2.53166	90.7667
2.53042	90.6722
2.52919	90.7239
2.52795	90.696
2.52672	90.6378
2.52549	90.6949
2.52426	90.7901
2.52303	90.6811
2.52181	90.703
2.52058	90.695
2.51936	90.6174
2.51813	90.7204
2.51691	90.7553
2.51569	90.7536
2.51447	90.8235
2.51325	90.8544
2.51203	90.7625
2.51082	90.6616
2.5096	90.7275
2.50839	90.7514
2.50717	90.7364
2.50596	90.76
2.50475	90.7921
2.50354	90.8678
2.50233	90.8182
2.50113	90.7608
2.49992	90.7195
2.49872	90.7301
2.49751	90.8153
2.49631	90.8377
2.49511	90.6434
2.49391	90.5562
2.49271	90.6315
2.49151	90.6333
2.49031	90.5891
2.48912	90.5694
2.48792	90.7378
2.48673	90.7645
2.48554	90.5871
2.48435	90.5986
2.48316	90.6581
2.48197	90.6351
2.48078	90.7154
2.4796	90.7459
2.47841	90.6834
2.47723	90.6789
2.47604	90.7233
2.47486	90.6923
2.47368	90.6252
2.4725	90.7056
2.47132	90.6414
2.47014	90.5319
2.46897	90.5717
2.46779	90.7025
2.46662	90.7938
2.46545	90.8015
2.46427	90.7083
2.4631	90.6302
2.46193	90.6292
2.46077	90.7309
2.4596	90.7857
2.45843	90.804
2.45727	90.8299
2.4561	90.6999
2.45494	90.75
2.45378	90.8736
2.45262	90.9201
2.45146	90.794
2.4503	90.7172
2.44914	90.7161
2.44799	90.7284
2.44683	90.7651
2.44568	90.6838
2.44452	90.537
2.44337	90.5341
2.44222	90.574
2.44107	90.5738
2.43992	90.6597
2.43877	90.7661
2.43763	90.8552
2.43648	90.7632
2.43534	90.5021
2.43419	90.4889
2.43305	90.7438
2.43191	90.7399
2.43077	90.7316
2.42963	90.7731
2.42849	90.6335
2.42736	90.5351
2.42622	90.5084
2.42509	90.466
2.42395	90.6132
2.42282	90.8412
2.42169	90.7448
2.42056	90.6354
2.41943	90.7327
2.4183	90.7521
2.41717	90.7605
2.41605	90.7305
2.41492	90.6942
2.4138	90.6918
2.41267	90.6719
2.41155	90.5768
2.41043	90.529
2.40931	90.5512
2.40819	90.6422
2.40707	90.619
2.40595	90.5334
2.40484	90.4919
2.40372	90.5009
2.40261	90.6263
2.4015	90.7181
2.40039	90.6994
2.39928	90.6586
2.39817	90.7104
2.39706	90.7973
2.39595	90.7295
2.39484	90.7118
2.39374	90.7432
2.39263	90.7086
2.39153	90.6558
2.39043	90.6227
2.38932	90.6522
2.38822	90.559
2.38712	90.4917
2.38603	90.5567
2.38493	90.6568
2.38383	90.7148
2.38274	90.7529
2.38164	90.755
2.38055	90.7198
2.37946	90.7047
2.37836	90.6345
2.37727	90.513
2.37618	90.5455
2.3751	90.6039
2.37401	90.6105
2.37292	90.5029
2.37184	90.4495
2.37075	90.5442
2.36967	90.7114
2.36859	90.7824
2.3675	90.7602
2.36642	90.7777
2.36534	90.7273
2.36427	90.682
2.36319	90.7456
2.36211	90.7807
2.36104	90.6573
2.35996	90.5129
2.35889	90.7094
2.35781	90.8721
2.35674	90.7081
2.35567	90.5427
2.3546	90.6221
2.35353	90.7235
2.35247	90.7746
2.3514	90.7969
2.35033	90.8453
2.34927	90.8733
2.3482	90.8496
2.34714	90.7584
2.34608	90.6333
2.34502	90.6644
2.34396	90.6734
2.3429	90.7582
2.34184	90.7816
2.34078	90.5638
2.33973	90.4817
2.33867	90.5667
2.33762	90.5855
2.33656	90.561
2.33551	90.6665
2.33446	90.6606
2.33341	90.6068
2.33236	90.7251
2.33131	90.7534
2.33026	90.6792
2.32922	90.5665
2.32817	90.6459
2.32712	90.7809
2.32608	90.6991
2.32504	90.5649
2.324	90.6636
2.32295	90.7567
2.32191	90.7081
2.32087	90.6704
2.31984	90.6681
2.3188	90.6505
2.31776	90.7534
2.31673	90.7109
2.31569	90.5401
2.31466	90.4156
2.31362	90.5491
2.31259	90.6964
2.31156	90.6307
2.31053	90.7001
2.3095	90.6611
2.30847	90.5024
2.30745	90.5441
2.30642	90.6906
2.3054	90.7887
2.30437	90.8152
2.30335	90.8262
2.30232	90.7088
2.3013	90.6288
2.30028	90.6141
2.29926	90.5469
2.29824	90.5988
2.29722	90.6699
2.29621	90.6319
2.29519	90.5874
2.29417	90.6034
2.29316	90.7019
2.29215	90.6111
2.29113	90.5833
2.29012	90.7106
2.28911	90.6165
2.2881	90.5948
2.28709	90.7734
2.28608	90.7145
2.28507	90.5296
2.28407	90.4737
2.28306	90.4693
2.28206	90.5964
2.28105	90.7551
2.28005	90.7758
2.27905	90.738
2.27805	90.5887
2.27705	90.4714
2.27605	90.5086
2.27505	90.5723
2.27405	90.5115
2.27305	90.5717
2.27206	90.5537
2.27106	90.564
2.27007	90.593
2.26907	90.5655
2.26808	90.5176
2.26709	90.6279
2.2661	90.657
2.26511	90.5835
2.26412	90.5163
2.26313	90.5244
2.26214	90.4801
2.26116	90.4101
2.26017	90.5309
2.25919	90.6654
2.2582	90.651
2.25722	90.5998
2.25624	90.4504
2.25526	90.5287
2.25428	90.6771
2.2533	90.6399
2.25232	90.5765
2.25134	90.6348
2.25036	90.7152
2.24939	90.733
2.24841	90.7079
2.24744	90.6161
2.24646	90.4857
2.24549	90.4435
2.24452	90.6177
2.24355	90.7258
2.24257	90.6354
2.24161	90.6996
2.24064	90.8311
2.23967	90.7396
2.2387	90.5415
2.23774	90.539
2.23677	90.5964
2.23581	90.5233
2.23484	90.5101
2.23388	90.5666
2.23292	90.6308
2.23196	90.5463
2.231	90.5297
2.23004	90.6721
2.22908	90.6961
2.22812	90.565
2.22716	90.5203
2.22621	90.5945
2.22525	90.6079
2.2243	90.515
2.22334	90.4855
2.22239	90.506
2.22144	90.5162
2.22049	90.5779
2.21953	90.5413
2.21859	90.3778
2.21764	90.4853
2.21669	90.5909
2.21574	90.6083
2.21479	90.6391
2.21385	90.7902
2.2129	90.7907
2.21196	90.7648
2.21102	90.6871
2.21007	90.4342
2.20913	90.4345
2.20819	90.5593
2.20725	90.6208
2.20631	90.5755
2.20537	90.6285
2.20444	90.6167
2.2035	90.5995
2.20256	90.4701
2.20163	90.3887
2.20069	90.5375
2.19976	90.7484
2.19883	90.8148
2.19789	90.6099
2.19696	90.449
2.19603	90.4769
2.1951	90.6911
2.19417	90.7512
2.19325	90.5572
2.19232	90.5062
2.19139	90.7162
2.19047	90.8624
2.18954	90.8693
2.18862	90.8115
2.18769	90.5136
2.18677	90.4577
2.18585	90.4699
2.18493	90.4734
2.18401	90.6254
2.18309	90.6957
2.18217	90.5685
2.18125	90.5649
2.18033	90.5123
2.17942	90.5382
2.1785	90.6979
2.17759	90.6356
2.17667	90.4903
2.17576	90.5844
2.17485	90.7296
2.17393	90.7106
2.17302	90.7431
2.17211	90.6523
2.1712	90.532
2.17029	90.4939
2.16939	90.6521
2.16848	90.7758
2.16757	90.8317
2.16667	90.7647
2.16576	90.6424
2.16486	90.582
2.16395	90.4598
2.16305	90.48
2.16215	90.4816
2.16125	90.4552
2.16035	90.4351
2.15945	90.3955
2.15855	90.3742
2.15765	90.4264
2.15675	90.5849
2.15586	90.6002
2.15496	90.5792
2.15406	90.7347
2.15317	90.6063
2.15228	90.543
2.15138	90.6104
2.15049	90.5797
2.1496	90.5411
2.14871	90.5978
2.14782	90.5622
2.14693	90.4269
2.14604	90.4249
2.14515	90.568
2.14427	90.5252
2.14338	90.6374
2.14249	90.8318
2.14161	90.7988
2.14072	90.8015
2.13984	90.8207
2.13896	90.4825
2.13808	90.3189
2.13719	90.4773
2.13631	90.4865
2.13543	90.6463
2.13455	90.6994
2.13368	90.6105
2.1328	90.7426
2.13192	90.741
2.13105	90.6463
2.13017	90.7809
2.1293	90.7977
2.12842	90.6731
2.12755	90.5685
2.12668	90.3691
2.1258	90.1113
2.12493	90.3461
2.12406	90.5626
2.12319	90.5402
2.12232	90.5907
2.12145	90.709
2.12059	90.6012
2.11972	90.2942
2.11885	90.4549
2.11799	90.5932
2.11712	90.4339
2.11626	90.4281
2.1154	90.4273
2.11453	90.486
2.11367	90.5356
2.11281	90.55
2.11195	90.4618
2.11109	90.473
2.11023	90.625
2.10937	90.7939
2.10851	90.6354
2.10766	90.4614
2.1068	90.5711
2.10594	90.649
2.10509	90.4588
2.10423	90.3703
2.10338	90.6416
2.10253	90.7267
2.10168	90.6554
2.10082	90.5056
2.09997	90.4513
2.09912	90.2901
2.09827	90.3101
2.09742	90.443
2.09658	90.5925
2.09573	90.6445
2.09488	90.6251
2.09404	90.6219
2.09319	90.5544
2.09235	90.4414
2.0915	90.3224
2.09066	90.3568
2.08982	90.614
2.08897	90.8458
2.08813	90.8519
2.08729	90.7656
2.08645	90.7526
2.08561	90.6792
2.08477	90.7101
2.08394	90.6738
2.0831	90.5646
2.08226	90.4109
2.08143	90.2119
2.08059	90.3749
2.07976	90.4087
2.07892	90.3187
2.07809	90.4414
2.07726	90.6031
2.07643	90.7005
2.07559	90.6841
2.07476	90.491
2.07393	90.5225
2.0731	90.569
2.07228	90.6239
2.07145	90.6535
2.07062	90.6978
2.06979	90.6955
2.06897	90.6254
2.06814	90.4868
2.06732	90.4667
2.06649	90.5632
2.06567	90.5791
2.06485	90.5658
2.06403	90.5875
2.0632	90.6101
2.06238	90.562
2.06156	90.645
2.06074	90.5845
2.05993	90.3503
2.05911	90.4344
2.05829	90.6854
2.05747	90.5836
2.05666	90.4177
2.05584	90.4231
2.05503	90.4551
2.05421	90.42
2.0534	90.4125
2.05259	90.4669
2.05177	90.5327
2.05096	90.5646
2.05015	90.6368
2.04934	90.6419
2.04853	90.6473
2.04772	90.5678
2.04691	90.4706
2.04611	90.4331
2.0453	90.4828
2.04449	90.5981
2.04369	90.5713
2.04288	90.4333
2.04208	90.4352
2.04127	90.5784
2.04047	90.6809
2.03967	90.6367
2.03886	90.6997
2.03806	90.5608
2.03726	90.4589
2.03646	90.5185
2.03566	90.6028
2.03486	90.5698
2.03407	90.63
2.03327	90.5649
2.03247	90.518
2.03167	90.3426
2.03088	90.3454
2.03008	90.5116
2.02929	90.5278
2.0285	90.5814
2.0277	90.638
2.02691	90.5913
2.02612	90.5697
2.02533	90.489
2.02453	90.3954
2.02374	90.3745
2.02295	90.3591
2.02217	90.5582
2.02138	90.7569
2.02059	90.5909
2.0198	90.4228
2.01902	90.2995
2.01823	90.3048
2.01744	90.5716
2.01666	90.8513
2.01588	90.9319
2.01509	90.6219
2.01431	90.6183
2.01353	90.7183
2.01275	90.4909
2.01196	90.3444
2.01118	90.3449
2.0104	90.5365
2.00963	90.6414
2.00885	90.493
2.00807	90.4222
2.00729	90.5993
2.00651	90.6718
2.00574	90.5065
2.00496	90.5875
2.00419	90.6663
2.00341	90.3976
2.00264	90.3002
2.00187	90.4832
2.00109	90.5036
2.00032	90.4606
