Name: Garnetiferous Mica Schist
Type: Rock
Class: Metamorphic
Subclass:  Schist 
Particle Size: Solid surface
Sample No.: Ward84.txt
Owner: JPL
Wavelength range:  VNIR SWIR IR 
Origin: Ward's Collection of American Rocks.  Sample locality - Gassets, Windsor County, Vermont.  Collected by - JPL.
Collected by:  Ward's Natural Science
Description: The hand specimen is a porphyroblastic, schistose rock
composed of scaly, silvery mica, quartz and garnet with biotite and
some staurolite and occasional kyanite. Geologic age - Upper Cambrian(?)


Measurement: Hemispherical reflectance
First Column: X
Second Column: Y
X Units: Wavelength (micrometers)
Y Units: Reflectance (percent)
First X Value: 2.500
Last X Value: 0.400
Number of X Values: 2101
Additional information: None
 2.500   21.2515
 2.499   20.9498
 2.498   21.0658
 2.497   21.2327
 2.496   20.6433
 2.495   21.0503
 2.494   20.8405
 2.493   20.9159
 2.492   20.7928
 2.491   20.9881
 2.490   20.8027
 2.489   20.8656
 2.488   20.7060
 2.487   20.9754
 2.486   20.6538
 2.485   20.6830
 2.484   20.6293
 2.483   20.7251
 2.482   20.7226
 2.481   20.7373
 2.480   20.6945
 2.479   20.5954
 2.478   20.5213
 2.477   20.5799
 2.476   20.3792
 2.475   20.5172
 2.474   20.3868
 2.473   20.4910
 2.472   20.4214
 2.471   20.5409
 2.470   20.2522
 2.469   20.4115
 2.468   20.2116
 2.467   20.3916
 2.466   20.0301
 2.465   20.1755
 2.464   20.0684
 2.463   20.1231
 2.462   19.9279
 2.461   19.9438
 2.460   19.9049
 2.459   19.9283
 2.458   19.8662
 2.457   19.8413
 2.456   19.6772
 2.455   19.8112
 2.454   19.5863
 2.453   19.7192
 2.452   19.6539
 2.451   19.5684
 2.450   19.5655
 2.449   19.5010
 2.448   19.5139
 2.447   19.5470
 2.446   19.3311
 2.445   19.5104
 2.444   19.3747
 2.443   19.4110
 2.442   19.2892
 2.441   19.3806
 2.440   19.2112
 2.439   19.3299
 2.438   19.2245
 2.437   19.2667
 2.436   19.2530
 2.435   19.3450
 2.434   19.2338
 2.433   19.3583
 2.432   19.3121
 2.431   19.3839
 2.430   19.2918
 2.429   19.4143
 2.428   19.3502
 2.427   19.4409
 2.426   19.4214
 2.425   19.5240
 2.424   19.5514
 2.423   19.6045
 2.422   19.5687
 2.421   19.7164
 2.420   19.6714
 2.419   19.7711
 2.418   19.7880
 2.417   19.8792
 2.416   19.9408
 2.415   19.9847
 2.414   20.0358
 2.413   20.1185
 2.412   20.1207
 2.411   20.2323
 2.410   20.1746
 2.409   20.2037
 2.408   20.2557
 2.407   20.3401
 2.406   20.3585
 2.405   20.4684
 2.404   20.4352
 2.403   20.4697
 2.402   20.4738
 2.401   20.5572
 2.400   20.5280
 2.399   20.5672
 2.398   20.6067
 2.397   20.6286
 2.396   20.6046
 2.395   20.6499
 2.394   20.6389
 2.393   20.7203
 2.392   20.7107
 2.391   20.7214
 2.390   20.6947
 2.389   20.7071
 2.388   20.7255
 2.387   20.7243
 2.386   20.7164
 2.385   20.7794
 2.384   20.7141
 2.383   20.7830
 2.382   20.7592
 2.381   20.7499
 2.380   20.7626
 2.379   20.8068
 2.378   20.7669
 2.377   20.8122
 2.376   20.7982
 2.375   20.7798
 2.374   20.7964
 2.373   20.8132
 2.372   20.8177
 2.371   20.8111
 2.370   20.8033
 2.369   20.8303
 2.368   20.7720
 2.367   20.7592
 2.366   20.7757
 2.365   20.7978
 2.364   20.8025
 2.363   20.8132
 2.362   20.8180
 2.361   20.7947
 2.360   20.7889
 2.359   20.7631
 2.358   20.7247
 2.357   20.7526
 2.356   20.7288
 2.355   20.7060
 2.354   20.6788
 2.353   20.6266
 2.352   20.6037
 2.351   20.6046
 2.350   20.6023
 2.349   20.6329
 2.348   20.6530
 2.347   20.6627
 2.346   20.6264
 2.345   20.5420
 2.344   20.6077
 2.343   20.6157
 2.342   20.6384
 2.341   20.6766
 2.340   20.7161
 2.339   20.7525
 2.338   20.7757
 2.337   20.8685
 2.336   20.9595
 2.335   20.9567
 2.334   21.0609
 2.333   21.1131
 2.332   21.1537
 2.331   21.2451
 2.330   21.4096
 2.329   21.4838
 2.328   21.6029
 2.327   21.6480
 2.326   21.7650
 2.325   21.8773
 2.324   21.9830
 2.323   22.0431
 2.322   22.1519
 2.321   22.2645
 2.320   22.4318
 2.319   22.5391
 2.318   22.6568
 2.317   22.7103
 2.316   22.8800
 2.315   22.9867
 2.314   23.0917
 2.313   23.2343
 2.312   23.3998
 2.311   23.4631
 2.310   23.6160
 2.309   23.6980
 2.308   23.8267
 2.307   23.9317
 2.306   24.1077
 2.305   24.2454
 2.304   24.3708
 2.303   24.4516
 2.302   24.5713
 2.301   24.6402
 2.300   24.8092
 2.299   24.8918
 2.298   24.9720
 2.297   25.0397
 2.296   25.1943
 2.295   25.2760
 2.294   25.3621
 2.293   25.4498
 2.292   25.5017
 2.291   25.5466
 2.290   25.6013
 2.289   25.6489
 2.288   25.7902
 2.287   25.7512
 2.286   25.8486
 2.285   25.8093
 2.284   25.8539
 2.283   25.9374
 2.282   25.9756
 2.281   25.9866
 2.280   26.0183
 2.279   26.0188
 2.278   26.0420
 2.277   25.9708
 2.276   26.0319
 2.275   25.9310
 2.274   25.9830
 2.273   25.9467
 2.272   25.9570
 2.271   25.9364
 2.270   25.9677
 2.269   25.8761
 2.268   25.9134
 2.267   25.8023
 2.266   25.7917
 2.265   25.6521
 2.264   25.7268
 2.263   25.5655
 2.262   25.5858
 2.261   25.4314
 2.260   25.4738
 2.259   25.2427
 2.258   25.2865
 2.257   25.1679
 2.256   25.0739
 2.255   24.9765
 2.254   24.9147
 2.253   24.8152
 2.252   24.7777
 2.251   24.5583
 2.250   24.5638
 2.249   24.4638
 2.248   24.4427
 2.247   24.2295
 2.246   24.2351
 2.245   24.1537
 2.244   24.1145
 2.243   23.9669
 2.242   23.8688
 2.241   23.7370
 2.240   23.8068
 2.239   23.6495
 2.238   23.6774
 2.237   23.5705
 2.236   23.4856
 2.235   23.2920
 2.234   23.2994
 2.233   23.2233
 2.232   23.0508
 2.231   22.9651
 2.230   22.8393
 2.229   22.7021
 2.228   22.7230
 2.227   22.5553
 2.226   22.4173
 2.225   22.1610
 2.224   22.1653
 2.223   21.8935
 2.222   21.7717
 2.221   21.5848
 2.220   21.4058
 2.219   21.1501
 2.218   21.0583
 2.217   20.8074
 2.216   20.6629
 2.215   20.4263
 2.214   20.3481
 2.213   20.0611
 2.212   20.0395
 2.211   19.5199
 2.210   19.7021
 2.209   19.2831
 2.208   19.2716
 2.207   19.1025
 2.206   19.0225
 2.205   18.8997
 2.204   18.8120
 2.203   18.6727
 2.202   18.6849
 2.201   18.5853
 2.200   18.6405
 2.199   18.5237
 2.198   18.5567
 2.197   18.5740
 2.196   18.6581
 2.195   18.5958
 2.194   18.8515
 2.193   18.7946
 2.192   19.0533
 2.191   19.0504
 2.190   19.3122
 2.189   19.4147
 2.188   19.6765
 2.187   19.8329
 2.186   20.2040
 2.185   20.3473
 2.184   20.6417
 2.183   20.8102
 2.182   21.2187
 2.181   21.4360
 2.180   21.7489
 2.179   22.0244
 2.178   22.3344
 2.177   22.5364
 2.176   22.9295
 2.175   23.1604
 2.174   23.5626
 2.173   23.7581
 2.172   24.0773
 2.171   24.2244
 2.170   24.5367
 2.169   24.7869
 2.168   25.0764
 2.167   25.2446
 2.166   25.5780
 2.165   25.6724
 2.164   25.9736
 2.163   26.0881
 2.162   26.3527
 2.161   26.4656
 2.160   26.6642
 2.159   26.8086
 2.158   26.9852
 2.157   27.1237
 2.156   27.3123
 2.155   27.3183
 2.154   27.4839
 2.153   27.5150
 2.152   27.7384
 2.151   27.7124
 2.150   27.8303
 2.149   27.8720
 2.148   27.9428
 2.147   27.9538
 2.146   28.0539
 2.145   28.0495
 2.144   28.1837
 2.143   28.1553
 2.142   28.2685
 2.141   28.2291
 2.140   28.3695
 2.139   28.2908
 2.138   28.3285
 2.137   28.3226
 2.136   28.3917
 2.135   28.3422
 2.134   28.3951
 2.133   28.3712
 2.132   28.3461
 2.131   28.3090
 2.130   28.3146
 2.129   28.2953
 2.128   28.3610
 2.127   28.2835
 2.126   28.2881
 2.125   28.2360
 2.124   28.3011
 2.123   28.1879
 2.122   28.2394
 2.121   28.2270
 2.120   28.2353
 2.119   28.2029
 2.118   28.1973
 2.117   28.1948
 2.116   28.2403
 2.115   28.2092
 2.114   28.2764
 2.113   28.1994
 2.112   28.2484
 2.111   28.2908
 2.110   28.3048
 2.109   28.3079
 2.108   28.3894
 2.107   28.3712
 2.106   28.4167
 2.105   28.4517
 2.104   28.5489
 2.103   28.5409
 2.102   28.5966
 2.101   28.6216
 2.100   28.6354
 2.099   28.7068
 2.098   28.8127
 2.097   28.8368
 2.096   28.9128
 2.095   28.9829
 2.094   29.0274
 2.093   29.0571
 2.092   29.1410
 2.091   29.1918
 2.090   29.2387
 2.089   29.2211
 2.088   29.3133
 2.087   29.3843
 2.086   29.4301
 2.085   29.4649
 2.084   29.5136
 2.083   29.5447
 2.082   29.5660
 2.081   29.5585
 2.080   29.6169
 2.079   29.6372
 2.078   29.6634
 2.077   29.6862
 2.076   29.6670
 2.075   29.7100
 2.074   29.7512
 2.073   29.7427
 2.072   29.7283
 2.071   29.7590
 2.070   29.8026
 2.069   29.7823
 2.068   29.7848
 2.067   29.8155
 2.066   29.8004
 2.065   29.8153
 2.064   29.7992
 2.063   29.8454
 2.062   29.8385
 2.061   29.8204
 2.060   29.8915
 2.059   29.8670
 2.058   29.8200
 2.057   29.8568
 2.056   29.8584
 2.055   29.8470
 2.054   29.8345
 2.053   29.8706
 2.052   29.8582
 2.051   29.8504
 2.050   29.8273
 2.049   29.8190
 2.048   29.8246
 2.047   29.8820
 2.046   29.8961
 2.045   29.9215
 2.044   29.9030
 2.043   29.9173
 2.042   29.8862
 2.041   29.8677
 2.040   29.8754
 2.039   29.9137
 2.038   29.8946
 2.037   29.9216
 2.036   29.8937
 2.035   29.9122
 2.034   29.9107
 2.033   29.9353
 2.032   29.9041
 2.031   29.9062
 2.030   29.8891
 2.029   29.9270
 2.028   29.9129
 2.027   29.9624
 2.026   29.9407
 2.025   29.9222
 2.024   29.9226
 2.023   29.9566
 2.022   29.9364
 2.021   29.9391
 2.020   29.8984
 2.019   29.9142
 2.018   29.9079
 2.017   29.9346
 2.016   29.9197
 2.015   30.0052
 2.014   29.9556
 2.013   30.0075
 2.012   30.0094
 2.011   29.9987
 2.010   29.9406
 2.009   29.9563
 2.008   29.8865
 2.007   30.0408
 2.006   29.9239
 2.005   29.9593
 2.004   29.9266
 2.003   29.9540
 2.002   29.9430
 2.001   29.9869
 2.000   29.9496
 1.999   30.0112
 1.998   29.9096
 1.997   29.9868
 1.996   29.9330
 1.995   29.9284
 1.994   29.9535
 1.993   29.9782
 1.992   29.9146
 1.991   30.0012
 1.990   29.9620
 1.989   30.0124
 1.988   30.0171
 1.987   30.0603
 1.986   29.9381
 1.985   30.0133
 1.984   29.9600
 1.983   30.0881
 1.982   30.0113
 1.981   29.9662
 1.980   30.0282
 1.979   30.0512
 1.978   30.0367
 1.977   30.0372
 1.976   30.0844
 1.975   30.1122
 1.974   30.0918
 1.973   30.1901
 1.972   30.0551
 1.971   30.1945
 1.970   30.1149
 1.969   30.1700
 1.968   30.1066
 1.967   30.2223
 1.966   30.1384
 1.965   30.2541
 1.964   30.1863
 1.963   30.3183
 1.962   30.1881
 1.961   30.3202
 1.960   30.2735
 1.959   30.3210
 1.958   30.3180
 1.957   30.3779
 1.956   30.3777
 1.955   30.4630
 1.954   30.3432
 1.953   30.5003
 1.952   30.4658
 1.951   30.5191
 1.950   30.4821
 1.949   30.5422
 1.948   30.4907
 1.947   30.6457
 1.946   30.5979
 1.945   30.6420
 1.944   30.6790
 1.943   30.6948
 1.942   30.6581
 1.941   30.7628
 1.940   30.6680
 1.939   30.8014
 1.938   30.7182
 1.937   30.8245
 1.936   30.8159
 1.935   30.8714
 1.934   30.8320
 1.933   30.9283
 1.932   30.8780
 1.931   30.9737
 1.930   30.9125
 1.929   30.9508
 1.928   30.8751
 1.927   31.0911
 1.926   30.7846
 1.925   31.0456
 1.924   30.9553
 1.923   30.9935
 1.922   30.8993
 1.921   30.9398
 1.920   30.8574
 1.919   30.9544
 1.918   30.8030
 1.917   30.8966
 1.916   30.8071
 1.915   30.8589
 1.914   30.7224
 1.913   30.7744
 1.912   30.7733
 1.911   30.7370
 1.910   30.7505
 1.909   30.6770
 1.908   30.5634
 1.907   30.6394
 1.906   30.6726
 1.905   30.7226
 1.904   30.6753
 1.903   30.6617
 1.902   30.6285
 1.901   30.5933
 1.900   30.5152
 1.899   30.5055
 1.898   30.4806
 1.897   30.5625
 1.896   30.3819
 1.895   30.3792
 1.894   30.3547
 1.893   30.4604
 1.892   30.3370
 1.891   30.3778
 1.890   30.3412
 1.889   30.3135
 1.888   30.2540
 1.887   30.3506
 1.886   30.2560
 1.885   30.2971
 1.884   30.2307
 1.883   30.2219
 1.882   30.2518
 1.881   30.2628
 1.880   30.1432
 1.879   30.1827
 1.878   30.2833
 1.877   30.3040
 1.876   30.2121
 1.875   30.4035
 1.874   30.3112
 1.873   30.4175
 1.872   30.3622
 1.871   30.3634
 1.870   30.3478
 1.869   30.3500
 1.868   30.2963
 1.867   30.2385
 1.866   30.1524
 1.865   30.1740
 1.864   30.1110
 1.863   30.1699
 1.862   30.0731
 1.861   30.1223
 1.860   30.0731
 1.859   30.0804
 1.858   30.0114
 1.857   30.0587
 1.856   30.0326
 1.855   30.0546
 1.854   29.9756
 1.853   29.9829
 1.852   29.9558
 1.851   29.9679
 1.850   29.9267
 1.849   29.9738
 1.848   29.8880
 1.847   29.9278
 1.846   29.8877
 1.845   29.8809
 1.844   29.8800
 1.843   29.8934
 1.842   29.8289
 1.841   29.9317
 1.840   29.8415
 1.839   29.8806
 1.838   29.8608
 1.837   29.8163
 1.836   29.7954
 1.835   29.8606
 1.834   29.8477
 1.833   29.8185
 1.832   29.7852
 1.831   29.7988
 1.830   29.8239
 1.829   29.8621
 1.828   29.8123
 1.827   29.8178
 1.826   29.7956
 1.825   29.7856
 1.824   29.7976
 1.823   29.7880
 1.822   29.7585
 1.821   29.8060
 1.820   29.8190
 1.819   29.8415
 1.818   29.8014
 1.817   29.8386
 1.816   29.8419
 1.815   29.8649
 1.814   29.8019
 1.813   29.7971
 1.812   29.7832
 1.811   29.7819
 1.810   29.7654
 1.809   29.8244
 1.808   29.8107
 1.807   29.7732
 1.806   29.8052
 1.805   29.8108
 1.804   29.7943
 1.803   29.7880
 1.802   29.8063
 1.801   29.8080
 1.800   29.7856
 1.799   29.7979
 1.798   29.7644
 1.797   29.7893
 1.796   29.7743
 1.795   29.7503
 1.794   29.7619
 1.793   29.8102
 1.792   29.8152
 1.791   29.8014
 1.790   29.7890
 1.789   29.7719
 1.788   29.7961
 1.787   29.8110
 1.786   29.8072
 1.785   29.7900
 1.784   29.7940
 1.783   29.7907
 1.782   29.7477
 1.781   29.7294
 1.780   29.7446
 1.779   29.7959
 1.778   29.7613
 1.777   29.7399
 1.776   29.7297
 1.775   29.7022
 1.774   29.7449
 1.773   29.7499
 1.772   29.7663
 1.771   29.7548
 1.770   29.7316
 1.769   29.7493
 1.768   29.7904
 1.767   29.7666
 1.766   29.7507
 1.765   29.7701
 1.764   29.7999
 1.763   29.7411
 1.762   29.7173
 1.761   29.7479
 1.760   29.7528
 1.759   29.6964
 1.758   29.7202
 1.757   29.7235
 1.756   29.7542
 1.755   29.7174
 1.754   29.7518
 1.753   29.6838
 1.752   29.7394
 1.751   29.7563
 1.750   29.7124
 1.749   29.6944
 1.748   29.7562
 1.747   29.7281
 1.746   29.7574
 1.745   29.7098
 1.744   29.7906
 1.743   29.7513
 1.742   29.7468
 1.741   29.7234
 1.740   29.7665
 1.739   29.7492
 1.738   29.7300
 1.737   29.7087
 1.736   29.7712
 1.735   29.7545
 1.734   29.7205
 1.733   29.6874
 1.732   29.7683
 1.731   29.7370
 1.730   29.7527
 1.729   29.6896
 1.728   29.7335
 1.727   29.7340
 1.726   29.7257
 1.725   29.7321
 1.724   29.6977
 1.723   29.6392
 1.722   29.6954
 1.721   29.6822
 1.720   29.6915
 1.719   29.6839
 1.718   29.6771
 1.717   29.7067
 1.716   29.6283
 1.715   29.6408
 1.714   29.6679
 1.713   29.6793
 1.712   29.5994
 1.711   29.5553
 1.710   29.6113
 1.709   29.5833
 1.708   29.6558
 1.707   29.5920
 1.706   29.6317
 1.705   29.5648
 1.704   29.5747
 1.703   29.5465
 1.702   29.5893
 1.701   29.5378
 1.700   29.5425
 1.699   29.5132
 1.698   29.5273
 1.697   29.4651
 1.696   29.5469
 1.695   29.4533
 1.694   29.4929
 1.693   29.4525
 1.692   29.5244
 1.691   29.4491
 1.690   29.5464
 1.689   29.4209
 1.688   29.3897
 1.687   29.3637
 1.686   29.4245
 1.685   29.3696
 1.684   29.4569
 1.683   29.3139
 1.682   29.3747
 1.681   29.4069
 1.680   29.3839
 1.679   29.3091
 1.678   29.4413
 1.677   29.3308
 1.676   29.3895
 1.675   29.2705
 1.674   29.3552
 1.673   29.2624
 1.672   29.3388
 1.671   29.2359
 1.670   29.2560
 1.669   29.3279
 1.668   29.1079
 1.667   29.2023
 1.666   29.2612
 1.665   29.1388
 1.664   29.2126
 1.663   29.1381
 1.662   29.1555
 1.661   29.1802
 1.660   29.1538
 1.659   29.1524
 1.658   29.2120
 1.657   29.1031
 1.656   29.1815
 1.655   29.1143
 1.654   29.1776
 1.653   29.0907
 1.652   29.1126
 1.651   29.0538
 1.650   29.1184
 1.649   28.9993
 1.648   29.0735
 1.647   29.0891
 1.646   29.0622
 1.645   29.1045
 1.644   29.0952
 1.643   29.0556
 1.642   29.1203
 1.641   28.8590
 1.640   29.1331
 1.639   28.9474
 1.638   29.1210
 1.637   28.9830
 1.636   29.0416
 1.635   28.9165
 1.634   29.0262
 1.633   28.9693
 1.632   29.0566
 1.631   28.9291
 1.630   29.0220
 1.629   28.8963
 1.628   29.0405
 1.627   28.9170
 1.626   29.0403
 1.625   28.8819
 1.624   28.9808
 1.623   28.9265
 1.622   28.9281
 1.621   28.8478
 1.620   28.9098
 1.619   28.9269
 1.618   28.9817
 1.617   28.9148
 1.616   28.9503
 1.615   28.8490
 1.614   28.9683
 1.613   28.8529
 1.612   28.8750
 1.611   28.8658
 1.610   28.8768
 1.609   28.7801
 1.608   28.9390
 1.607   28.8172
 1.606   28.8608
 1.605   28.7777
 1.604   28.8995
 1.603   28.7994
 1.602   28.8474
 1.601   28.7957
 1.600   28.8615
 1.599   28.7852
 1.598   28.9135
 1.597   28.7713
 1.596   28.8694
 1.595   28.7444
 1.594   28.8244
 1.593   28.7518
 1.592   28.8396
 1.591   28.7252
 1.590   28.8167
 1.589   28.8104
 1.588   28.8049
 1.587   28.7600
 1.586   28.8560
 1.585   28.8104
 1.584   28.7937
 1.583   28.7446
 1.582   28.8063
 1.581   28.7674
 1.580   28.8215
 1.579   28.7399
 1.578   28.7752
 1.577   28.6703
 1.576   28.7942
 1.575   28.7166
 1.574   28.7381
 1.573   28.6606
 1.572   28.7525
 1.571   28.7139
 1.570   28.7628
 1.569   28.6868
 1.568   28.7252
 1.567   28.6692
 1.566   28.7082
 1.565   28.6040
 1.564   28.6577
 1.563   28.6117
 1.562   28.6607
 1.561   28.5712
 1.560   28.5936
 1.559   28.6104
 1.558   28.5811
 1.557   28.5591
 1.556   28.6247
 1.555   28.5911
 1.554   28.5797
 1.553   28.5268
 1.552   28.6335
 1.551   28.5966
 1.550   28.5948
 1.549   28.5110
 1.548   28.5021
 1.547   28.4887
 1.546   28.5474
 1.545   28.5131
 1.544   28.5066
 1.543   28.4521
 1.542   28.4549
 1.541   28.4811
 1.540   28.5069
 1.539   28.4379
 1.538   28.4325
 1.537   28.4277
 1.536   28.4732
 1.535   28.4496
 1.534   28.4412
 1.533   28.3913
 1.532   28.3953
 1.531   28.3756
 1.530   28.3722
 1.529   28.3254
 1.528   28.3763
 1.527   28.3992
 1.526   28.3767
 1.525   28.3188
 1.524   28.3193
 1.523   28.3042
 1.522   28.3389
 1.521   28.3120
 1.520   28.3356
 1.519   28.2570
 1.518   28.2611
 1.517   28.2493
 1.516   28.2289
 1.515   28.2284
 1.514   28.2484
 1.513   28.2355
 1.512   28.2165
 1.511   28.1951
 1.510   28.2097
 1.509   28.1752
 1.508   28.1764
 1.507   28.1705
 1.506   28.1814
 1.505   28.2097
 1.504   28.2312
 1.503   28.2205
 1.502   28.1576
 1.501   28.1493
 1.500   28.1781
 1.499   28.1546
 1.498   28.1881
 1.497   28.1550
 1.496   28.1144
 1.495   28.1099
 1.494   28.1017
 1.493   28.1358
 1.492   28.1258
 1.491   28.0803
 1.490   28.0763
 1.489   28.0662
 1.488   28.0232
 1.487   28.0521
 1.486   28.0730
 1.485   28.0587
 1.484   27.9830
 1.483   27.9899
 1.482   28.0078
 1.481   28.0185
 1.480   27.9629
 1.479   28.0051
 1.478   27.9648
 1.477   27.9598
 1.476   27.9454
 1.475   27.9722
 1.474   27.9350
 1.473   27.8940
 1.472   27.9175
 1.471   27.8962
 1.470   27.9124
 1.469   27.9329
 1.468   27.8513
 1.467   27.8760
 1.466   27.8541
 1.465   27.8725
 1.464   27.7870
 1.463   27.7917
 1.462   27.7594
 1.461   27.8223
 1.460   27.7902
 1.459   27.7520
 1.458   27.7599
 1.457   27.7274
 1.456   27.6707
 1.455   27.6604
 1.454   27.6511
 1.453   27.6720
 1.452   27.6546
 1.451   27.6555
 1.450   27.6240
 1.449   27.5658
 1.448   27.5590
 1.447   27.6372
 1.446   27.4948
 1.445   27.5150
 1.444   27.4590
 1.443   27.4214
 1.442   27.3424
 1.441   27.2563
 1.440   27.1977
 1.439   27.2213
 1.438   27.0837
 1.437   27.0137
 1.436   26.8711
 1.435   26.7604
 1.434   26.5899
 1.433   26.5418
 1.432   26.3417
 1.431   26.1183
 1.430   25.8458
 1.429   25.6964
 1.428   25.3474
 1.427   25.1690
 1.426   24.8625
 1.425   24.6138
 1.424   24.2666
 1.423   23.9262
 1.422   23.5052
 1.421   23.2178
 1.420   22.7560
 1.419   22.3881
 1.418   21.9760
 1.417   21.6845
 1.416   21.3352
 1.415   21.1173
 1.414   20.8573
 1.413   20.8071
 1.412   20.6985
 1.411   20.7466
 1.410   20.7761
 1.409   20.9718
 1.408   20.9839
 1.407   21.2029
 1.406   21.2174
 1.405   21.4536
 1.404   21.5162
 1.403   21.7179
 1.402   21.9014
 1.401   22.1448
 1.400   22.4138
 1.399   22.7339
 1.398   23.0258
 1.397   23.5013
 1.396   23.8255
 1.395   24.2462
 1.394   24.5637
 1.393   24.9953
 1.392   25.2920
 1.391   25.6999
 1.390   25.8590
 1.389   26.1055
 1.388   26.1536
 1.387   26.2907
 1.386   26.3655
 1.385   26.5574
 1.384   26.5329
 1.383   26.6475
 1.382   26.5984
 1.381   26.6165
 1.380   26.6148
 1.379   26.7137
 1.378   26.6329
 1.377   26.7542
 1.376   26.7611
 1.375   26.7715
 1.374   26.7166
 1.373   26.8264
 1.372   26.7575
 1.371   26.8384
 1.370   26.7079
 1.369   26.8373
 1.368   26.8224
 1.367   26.8454
 1.366   26.7320
 1.365   26.8587
 1.364   26.7829
 1.363   26.9814
 1.362   26.7831
 1.361   26.7969
 1.360   26.7925
 1.359   26.8921
 1.358   26.8644
 1.357   26.9421
 1.356   26.8612
 1.355   26.7371
 1.354   26.8568
 1.353   26.8626
 1.352   26.8162
 1.351   26.8611
 1.350   26.8192
 1.349   26.8485
 1.348   26.7030
 1.347   26.8054
 1.346   26.6858
 1.345   26.7182
 1.344   26.6994
 1.343   26.7838
 1.342   26.6307
 1.341   26.6807
 1.340   26.6389
 1.339   26.6648
 1.338   26.6562
 1.337   26.6798
 1.336   26.5956
 1.335   26.6296
 1.334   26.5038
 1.333   26.6523
 1.332   26.5426
 1.331   26.5706
 1.330   26.5198
 1.329   26.5459
 1.328   26.4968
 1.327   26.4856
 1.326   26.4701
 1.325   26.4859
 1.324   26.5017
 1.323   26.5339
 1.322   26.4019
 1.321   26.4941
 1.320   26.4607
 1.319   26.5086
 1.318   26.4239
 1.317   26.4982
 1.316   26.3617
 1.315   26.4079
 1.314   26.3957
 1.313   26.4366
 1.312   26.3091
 1.311   26.4434
 1.310   26.2840
 1.309   26.4044
 1.308   26.3191
 1.307   26.3337
 1.306   26.3539
 1.305   26.3220
 1.304   26.2625
 1.303   26.3258
 1.302   26.2608
 1.301   26.3302
 1.300   26.2420
 1.299   26.3265
 1.298   26.2895
 1.297   26.3139
 1.296   26.1917
 1.295   26.3386
 1.294   26.2528
 1.293   26.2778
 1.292   26.2642
 1.291   26.1948
 1.290   26.2025
 1.289   26.3035
 1.288   26.1709
 1.287   26.2378
 1.286   26.3017
 1.285   26.2762
 1.284   26.2466
 1.283   26.2965
 1.282   26.2436
 1.281   26.2139
 1.280   26.2011
 1.279   26.2124
 1.278   26.1898
 1.277   26.2090
 1.276   26.1462
 1.275   26.1958
 1.274   26.1322
 1.273   26.1434
 1.272   26.1352
 1.271   26.1817
 1.270   26.1112
 1.269   26.1854
 1.268   26.1032
 1.267   26.1255
 1.266   26.0823
 1.265   26.0864
 1.264   26.0994
 1.263   26.1136
 1.262   26.0674
 1.261   26.0454
 1.260   26.0129
 1.259   26.0155
 1.258   25.9601
 1.257   25.9819
 1.256   25.9640
 1.255   25.9414
 1.254   25.9296
 1.253   25.9724
 1.252   25.9180
 1.251   25.9174
 1.250   25.9110
 1.249   25.8738
 1.248   25.8709
 1.247   25.8873
 1.246   25.8650
 1.245   25.8664
 1.244   25.8341
 1.243   25.8458
 1.242   25.7861
 1.241   25.8384
 1.240   25.8318
 1.239   25.8273
 1.238   25.8047
 1.237   25.7904
 1.236   25.7598
 1.235   25.7946
 1.234   25.7997
 1.233   25.7875
 1.232   25.7964
 1.231   25.7988
 1.230   25.7619
 1.229   25.7377
 1.228   25.7368
 1.227   25.7524
 1.226   25.7325
 1.225   25.7272
 1.224   25.7040
 1.223   25.7003
 1.222   25.7066
 1.221   25.6789
 1.220   25.6276
 1.219   25.6397
 1.218   25.6892
 1.217   25.6597
 1.216   25.6018
 1.215   25.6339
 1.214   25.6176
 1.213   25.6298
 1.212   25.6532
 1.211   25.6082
 1.210   25.5675
 1.209   25.5749
 1.208   25.6119
 1.207   25.5683
 1.206   25.5192
 1.205   25.5289
 1.204   25.5422
 1.203   25.5303
 1.202   25.5322
 1.201   25.4818
 1.200   25.4912
 1.199   25.4848
 1.198   25.4728
 1.197   25.4845
 1.196   25.4780
 1.195   25.4129
 1.194   25.4150
 1.193   25.4199
 1.192   25.4442
 1.191   25.4557
 1.190   25.4390
 1.189   25.4863
 1.188   25.3585
 1.187   25.3496
 1.186   25.3751
 1.185   25.3326
 1.184   25.3787
 1.183   25.3417
 1.182   25.3750
 1.181   25.3668
 1.180   25.3383
 1.179   25.2993
 1.178   25.3615
 1.177   25.3528
 1.176   25.3411
 1.175   25.3392
 1.174   25.3601
 1.173   25.3033
 1.172   25.3575
 1.171   25.3229
 1.170   25.3362
 1.169   25.3307
 1.168   25.2941
 1.167   25.2339
 1.166   25.2444
 1.165   25.2367
 1.164   25.2676
 1.163   25.2172
 1.162   25.2575
 1.161   25.2211
 1.160   25.2535
 1.159   25.2087
 1.158   25.2460
 1.157   25.2196
 1.156   25.2233
 1.155   25.2243
 1.154   25.2345
 1.153   25.1793
 1.152   25.2151
 1.151   25.1976
 1.150   25.1933
 1.149   25.1447
 1.148   25.2086
 1.147   25.1431
 1.146   25.1753
 1.145   25.0885
 1.144   25.1415
 1.143   25.0997
 1.142   25.1908
 1.141   25.1064
 1.140   25.1479
 1.139   25.0918
 1.138   25.1727
 1.137   25.0819
 1.136   25.1267
 1.135   25.0823
 1.134   25.1282
 1.133   25.0622
 1.132   25.1280
 1.131   25.0188
 1.130   25.0849
 1.129   25.0734
 1.128   25.1349
 1.127   24.9800
 1.126   25.0333
 1.125   24.9749
 1.124   25.0503
 1.123   25.0278
 1.122   25.0732
 1.121   24.9726
 1.120   25.0181
 1.119   24.9834
 1.118   25.1325
 1.117   24.9866
 1.116   25.0597
 1.115   24.9940
 1.114   25.0545
 1.113   25.0458
 1.112   25.0800
 1.111   25.0208
 1.110   25.0687
 1.109   24.9738
 1.108   25.0675
 1.107   25.0175
 1.106   25.0903
 1.105   25.0398
 1.104   25.0628
 1.103   24.9833
 1.102   25.0879
 1.101   25.0020
 1.100   25.0587
 1.099   24.9839
 1.098   25.0561
 1.097   25.0880
 1.096   25.0178
 1.095   24.9656
 1.094   25.0834
 1.093   25.0238
 1.092   25.0294
 1.091   24.9872
 1.090   25.0866
 1.089   24.9467
 1.088   25.0636
 1.087   24.9354
 1.086   25.0207
 1.085   24.9949
 1.084   25.0562
 1.083   25.0112
 1.082   25.0284
 1.081   25.0050
 1.080   25.1305
 1.079   24.9684
 1.078   25.0990
 1.077   24.9779
 1.076   25.0461
 1.075   25.0590
 1.074   25.0331
 1.073   24.9919
 1.072   25.0339
 1.071   25.0758
 1.070   24.9998
 1.069   25.0634
 1.068   25.1305
 1.067   25.0529
 1.066   25.0996
 1.065   25.1223
 1.064   25.1470
 1.063   25.1177
 1.062   25.1570
 1.061   25.0654
 1.060   25.1483
 1.059   25.0963
 1.058   25.1063
 1.057   25.0604
 1.056   25.1409
 1.055   25.0272
 1.054   25.1999
 1.053   25.1536
 1.052   25.2148
 1.051   25.0945
 1.050   25.1013
 1.049   25.0884
 1.048   25.1478
 1.047   25.1435
 1.046   25.1369
 1.045   25.1045
 1.044   25.1188
 1.043   25.1580
 1.042   25.1622
 1.041   25.1436
 1.040   25.1724
 1.039   25.1313
 1.038   25.2351
 1.037   25.1264
 1.036   25.1937
 1.035   25.1091
 1.034   25.2421
 1.033   25.0997
 1.032   25.2886
 1.031   25.1585
 1.030   25.1886
 1.029   25.1436
 1.028   25.2324
 1.027   25.2015
 1.026   25.1841
 1.025   25.1484
 1.024   25.2557
 1.023   25.1456
 1.022   25.2386
 1.021   25.1500
 1.020   25.1707
 1.019   25.1575
 1.018   25.2324
 1.017   25.2211
 1.016   25.1967
 1.015   25.2014
 1.014   25.2937
 1.013   25.1243
 1.012   25.2425
 1.011   25.2373
 1.010   25.2795
 1.009   25.1332
 1.008   25.1785
 1.007   25.1330
 1.006   25.1668
 1.005   25.1495
 1.004   25.2246
 1.003   25.1354
 1.002   25.2146
 1.001   25.1936
 1.000   25.2369
 0.999   25.1527
 0.998   25.2096
 0.997   25.1769
 0.996   25.1875
 0.995   25.1827
 0.994   25.2187
 0.993   25.2280
 0.992   25.1627
 0.991   25.1846
 0.990   25.2323
 0.989   25.1528
 0.988   25.1286
 0.987   25.0825
 0.986   25.2233
 0.985   25.1517
 0.984   25.1220
 0.983   25.1044
 0.982   25.1650
 0.981   25.1076
 0.980   25.1351
 0.979   25.0865
 0.978   25.1019
 0.977   25.0574
 0.976   25.0650
 0.975   25.0820
 0.974   25.0461
 0.973   24.9813
 0.972   24.9774
 0.971   24.9227
 0.970   24.9361
 0.969   24.9464
 0.968   24.9413
 0.967   24.8919
 0.966   24.8978
 0.965   24.8167
 0.964   24.8284
 0.963   24.8110
 0.962   24.8347
 0.961   24.8443
 0.960   24.8829
 0.959   24.8648
 0.958   24.8808
 0.957   24.8906
 0.956   24.9187
 0.955   24.8719
 0.954   24.8990
 0.953   24.8922
 0.952   24.8993
 0.951   24.9195
 0.950   24.9769
 0.949   24.9713
 0.948   24.9410
 0.947   24.9180
 0.946   24.9955
 0.945   25.0175
 0.944   24.9467
 0.943   24.9563
 0.942   25.0138
 0.941   24.9796
 0.940   24.9845
 0.939   24.9368
 0.938   24.9269
 0.937   24.9394
 0.936   24.9489
 0.935   24.9692
 0.934   24.9298
 0.933   24.8845
 0.932   24.8882
 0.931   24.8945
 0.930   24.9085
 0.929   24.9387
 0.928   24.9127
 0.927   24.9215
 0.926   24.9309
 0.925   24.8621
 0.924   24.8877
 0.923   24.9226
 0.922   24.8926
 0.921   24.9012
 0.920   24.9096
 0.919   24.9130
 0.918   24.9105
 0.917   24.9324
 0.916   24.9194
 0.915   24.9463
 0.914   24.9212
 0.913   24.9740
 0.912   24.9595
 0.911   24.9716
 0.910   24.9674
 0.909   24.9967
 0.908   25.0025
 0.907   25.0182
 0.906   25.0204
 0.905   25.0454
 0.904   25.0052
 0.903   25.0528
 0.902   25.0515
 0.901   25.1162
 0.900   25.0746
 0.899   25.1165
 0.898   25.1171
 0.897   25.1670
 0.896   25.1392
 0.895   25.1842
 0.894   25.2168
 0.893   25.2321
 0.892   25.1773
 0.891   25.2270
 0.890   25.1894
 0.889   25.2910
 0.888   25.3230
 0.887   25.3508
 0.886   25.2955
 0.885   25.3398
 0.884   25.3599
 0.883   25.4255
 0.882   25.3979
 0.881   25.4881
 0.880   25.4505
 0.879   25.5295
 0.878   25.5587
 0.877   25.6026
 0.876   25.5725
 0.875   25.5972
 0.874   25.6238
 0.873   25.6983
 0.872   25.6660
 0.871   25.7257
 0.870   25.7182
 0.869   25.8174
 0.868   25.8081
 0.867   25.8744
 0.866   25.7924
 0.865   25.8870
 0.864   25.9203
 0.863   25.9707
 0.862   25.9434
 0.861   25.9793
 0.860   26.2593
 0.859   25.9577
 0.858   25.7631
 0.857   25.9729
 0.856   25.9643
 0.855   25.8500
 0.854   26.0150
 0.853   25.9796
 0.852   25.9450
 0.851   26.0763
 0.850   26.0992
 0.849   25.9721
 0.848   26.0949
 0.847   26.1126
 0.846   26.0238
 0.845   26.1316
 0.844   26.1758
 0.843   26.0703
 0.842   26.1557
 0.841   26.2290
 0.840   26.1260
 0.839   26.1954
 0.838   26.2344
 0.837   26.1245
 0.836   26.1791
 0.835   26.2480
 0.834   26.1499
 0.833   26.2083
 0.832   26.2777
 0.831   26.1799
 0.830   26.2164
 0.829   26.2877
 0.828   26.1934
 0.827   26.2203
 0.826   26.2900
 0.825   26.1859
 0.824   26.2317
 0.823   26.2871
 0.822   26.1863
 0.821   26.2429
 0.820   26.2996
 0.819   26.1833
 0.818   26.1825
 0.817   26.2755
 0.816   26.1585
 0.815   26.1964
 0.814   26.2510
 0.813   26.1799
 0.812   26.1890
 0.811   26.2249
 0.810   26.1982
 0.809   26.1917
 0.808   26.2070
 0.807   26.1802
 0.806   26.1463
 0.805   26.2032
 0.804   26.1652
 0.803   26.1097
 0.802   26.1766
 0.801   26.1521
 0.800   26.0727
 0.799   26.1204
 0.798   26.0984
 0.797   26.0535
 0.796   26.0768
 0.795   26.0903
 0.794   25.9831
 0.793   26.0245
 0.792   26.0392
 0.791   25.9605
 0.790   25.9967
 0.789   26.0158
 0.788   25.9405
 0.787   25.9466
 0.786   25.9590
 0.785   25.9121
 0.784   25.9137
 0.783   25.9443
 0.782   25.8371
 0.781   25.8454
 0.780   25.8823
 0.779   25.8370
 0.778   25.8305
 0.777   25.8464
 0.776   25.7790
 0.775   25.7547
 0.774   25.7675
 0.773   25.7311
 0.772   25.7045
 0.771   25.7338
 0.770   25.6857
 0.769   25.6587
 0.768   25.6599
 0.767   25.6569
 0.766   25.6061
 0.765   25.6220
 0.764   25.6169
 0.763   25.5464
 0.762   25.5514
 0.761   25.5574
 0.760   25.4951
 0.759   25.4771
 0.758   25.4821
 0.757   25.4386
 0.756   25.4462
 0.755   25.4368
 0.754   25.3893
 0.753   25.3859
 0.752   25.3822
 0.751   25.3549
 0.750   25.3126
 0.749   25.3259
 0.748   25.3094
 0.747   25.2555
 0.746   25.2663
 0.745   25.2664
 0.744   25.2104
 0.743   25.2070
 0.742   25.2140
 0.741   25.1541
 0.740   25.1537
 0.739   25.1380
 0.738   25.1049
 0.737   25.0842
 0.736   25.0827
 0.735   25.0586
 0.734   25.0245
 0.733   25.0258
 0.732   25.0035
 0.731   24.9727
 0.730   24.9679
 0.729   24.9630
 0.728   24.9185
 0.727   24.9311
 0.726   24.9155
 0.725   24.8812
 0.724   24.8710
 0.723   24.8611
 0.722   24.8287
 0.721   24.8274
 0.720   24.8271
 0.719   24.7764
 0.718   24.7775
 0.717   24.7662
 0.716   24.7339
 0.715   24.7285
 0.714   24.7189
 0.713   24.6771
 0.712   24.6658
 0.711   24.6608
 0.710   24.6329
 0.709   24.6273
 0.708   24.6137
 0.707   24.5880
 0.706   24.5762
 0.705   24.5724
 0.704   24.5455
 0.703   24.5437
 0.702   24.5328
 0.701   24.5031
 0.700   24.4812
 0.699   24.4804
 0.698   24.4620
 0.697   24.4389
 0.696   24.4276
 0.695   24.4086
 0.694   24.3895
 0.693   24.3853
 0.692   24.3735
 0.691   24.3592
 0.690   24.3530
 0.689   24.3366
 0.688   24.3038
 0.687   24.3006
 0.686   24.2779
 0.685   24.2577
 0.684   24.2531
 0.683   24.2477
 0.682   24.2330
 0.681   24.2304
 0.680   24.2197
 0.679   24.1935
 0.678   24.1946
 0.677   24.1821
 0.676   24.1577
 0.675   24.1509
 0.674   24.1438
 0.673   24.1258
 0.672   24.1120
 0.671   24.1124
 0.670   24.0942
 0.669   24.0790
 0.668   24.0735
 0.667   24.0553
 0.666   24.0347
 0.665   24.0278
 0.664   24.0241
 0.663   24.0117
 0.662   24.0005
 0.661   23.9832
 0.660   23.9648
 0.659   23.9613
 0.658   23.9479
 0.657   23.9271
 0.656   23.9168
 0.655   23.9052
 0.654   23.8805
 0.653   23.8676
 0.652   23.8593
 0.651   23.8439
 0.650   23.8322
 0.649   23.8237
 0.648   23.8044
 0.647   23.7899
 0.646   23.7894
 0.645   23.7737
 0.644   23.7547
 0.643   23.7482
 0.642   23.7340
 0.641   23.7156
 0.640   23.7075
 0.639   23.6934
 0.638   23.6775
 0.637   23.6684
 0.636   23.6538
 0.635   23.6371
 0.634   23.6263
 0.633   23.6140
 0.632   23.5942
 0.631   23.5785
 0.630   23.5630
 0.629   23.5467
 0.628   23.5342
 0.627   23.5094
 0.626   23.4983
 0.625   23.4971
 0.624   23.4824
 0.623   23.4697
 0.622   23.4556
 0.621   23.4421
 0.620   23.4349
 0.619   23.4224
 0.618   23.4087
 0.617   23.3933
 0.616   23.3807
 0.615   23.3709
 0.614   23.3556
 0.613   23.3460
 0.612   23.3367
 0.611   23.3266
 0.610   23.3176
 0.609   23.3057
 0.608   23.2926
 0.607   23.2763
 0.606   23.2655
 0.605   23.2576
 0.604   23.2409
 0.603   23.2259
 0.602   23.2139
 0.601   23.2058
 0.600   23.1978
 0.599   23.1930
 0.598   23.1920
 0.597   23.1818
 0.596   23.1723
 0.595   23.1653
 0.594   23.1544
 0.593   23.1414
 0.592   23.1270
 0.591   23.1120
 0.590   23.1026
 0.589   23.0896
 0.588   23.0723
 0.587   23.0591
 0.586   23.0549
 0.585   23.0389
 0.584   23.0185
 0.583   23.0139
 0.582   23.0061
 0.581   22.9948
 0.580   22.9799
 0.579   22.9642
 0.578   22.9529
 0.577   22.9435
 0.576   22.9332
 0.575   22.9224
 0.574   22.9092
 0.573   22.8928
 0.572   22.8773
 0.571   22.8649
 0.570   22.8552
 0.569   22.8475
 0.568   22.8444
 0.567   22.8347
 0.566   22.8254
 0.565   22.8194
 0.564   22.8161
 0.563   22.8033
 0.562   22.8011
 0.561   22.7499
 0.560   22.7147
 0.559   22.7008
 0.558   22.6972
 0.557   22.6829
 0.556   22.6716
 0.555   22.6592
 0.554   22.6445
 0.553   22.6328
 0.552   22.6206
 0.551   22.6078
 0.550   22.5875
 0.549   22.5682
 0.548   22.5510
 0.547   22.5381
 0.546   22.5260
 0.545   22.5157
 0.544   22.5025
 0.543   22.4864
 0.542   22.4675
 0.541   22.4567
 0.540   22.4389
 0.539   22.4282
 0.538   22.4124
 0.537   22.3995
 0.536   22.3836
 0.535   22.3746
 0.534   22.3665
 0.533   22.3540
 0.532   22.3420
 0.531   22.3282
 0.530   22.3161
 0.529   22.3085
 0.528   22.2919
 0.527   22.2830
 0.526   22.2607
 0.525   22.2547
 0.524   22.2382
 0.523   22.2264
 0.522   22.2120
 0.521   22.1997
 0.520   22.1875
 0.519   22.1694
 0.518   22.1557
 0.517   22.1429
 0.516   22.1309
 0.515   22.1141
 0.514   22.0905
 0.513   22.0798
 0.512   22.0621
 0.511   22.0339
 0.510   22.0093
 0.509   21.9965
 0.508   21.9672
 0.507   21.9439
 0.506   21.9199
 0.505   21.8958
 0.504   21.8692
 0.503   21.8452
 0.502   21.8286
 0.501   21.7965
 0.500   21.7711
 0.499   21.7463
 0.498   21.7246
 0.497   21.6909
 0.496   21.6595
 0.495   21.6334
 0.494   21.6005
 0.493   21.5705
 0.492   21.5346
 0.491   21.4982
 0.490   21.4548
 0.489   21.4300
 0.488   21.3921
 0.487   21.3431
 0.486   21.3015
 0.485   21.2613
 0.484   21.2148
 0.483   21.1685
 0.482   21.1386
 0.481   21.1177
 0.480   21.1127
 0.479   21.1148
 0.478   21.1169
 0.477   21.1211
 0.476   21.1123
 0.475   21.0776
 0.474   21.0549
 0.473   21.0273
 0.472   21.0016
 0.471   20.9807
 0.470   20.9607
 0.469   20.9435
 0.468   20.9210
 0.467   20.8958
 0.466   20.8806
 0.465   20.8559
 0.464   20.8326
 0.463   20.8122
 0.462   20.7950
 0.461   20.7657
 0.460   20.7418
 0.459   20.7057
 0.458   20.6741
 0.457   20.6443
 0.456   20.6118
 0.455   20.5748
 0.454   20.5368
 0.453   20.4862
 0.452   20.4330
 0.451   20.3863
 0.450   20.3412
 0.449   20.2781
 0.448   20.2294
 0.447   20.1614
 0.446   20.0941
 0.445   20.0332
 0.444   19.9703
 0.443   19.9234
 0.442   19.8994
 0.441   19.8851
 0.440   19.8707
 0.439   19.8672
 0.438   19.8598
 0.437   19.8569
 0.436   19.8461
 0.435   19.8353
 0.434   19.8271
 0.433   19.8055
 0.432   19.7848
 0.431   19.7781
 0.430   19.7641
 0.429   19.7429
 0.428   19.7289
 0.427   19.7166
 0.426   19.7028
 0.425   19.6937
 0.424   19.6838
 0.423   19.6691
 0.422   19.6520
 0.421   19.6426
 0.420   19.6215
 0.419   19.6077
 0.418   19.5942
 0.417   19.5711
 0.416   19.5501
 0.415   19.5292
 0.414   19.5141
 0.413   19.4808
 0.412   19.4632
 0.411   19.4385
 0.410   19.4057
 0.409   19.3781
 0.408   19.3518
 0.407   19.3216
 0.406   19.2941
 0.405   19.2620
 0.404   19.2262
 0.403   19.2061
 0.402   19.1784
 0.401   19.1392
 0.400   19.1167
