Name: Sillimanite-Garnet Gneiss
Type: Rock
Class: Metamorphic
Subclass: Gneiss
Particle Size: Solid surface
Sample No.: Ward80.txt
Owner: JPL
Wavelength range:  IR 
Origin: Ward's Collection of American Rocks.  Sample locality - near Hague, Warren County, New York.  Collected by - JPL.
Collected by:  Ward's Natural Science
Description: A banded rock.  A compact, granular rock with poor gneissic
structure.  It has a mottled color; dark red due to garnet and pale 
green apparently due to quartz and feldpsar.  
Geologic age - Pre-Cambrian.


Measurement: Hemispherical reflectance
First Column: X
Second Column: Y
X Units: Wavelength (micrometers)
Y Units: Reflectance (percent)
First X Value: 15.3871
Last X Value: 1.9998
Number of X Values: 2257
Additional information: None

15.3871   4.84426
15.3416   4.41779
15.2964   4.47719
15.2514   4.66635
15.2066   4.73166
15.1622   4.76622
15.1180   5.01494
15.0740   4.95312
15.0303   5.05259
14.9869   5.27771
14.9437   5.28469
14.9008   5.57140
14.8581   6.13969
14.8156   6.40740
14.7734   6.48108
14.7314   6.76934
14.6897   7.29988
14.6482   7.68162
14.6069   8.42196
14.5659   9.12914
14.5251   9.66795
14.4845   9.98197
14.4442  10.13150
14.4041  10.09910
14.3642   9.92933
14.3245   9.53634
14.2850   9.27581
14.2458   9.23738
14.2068   9.38470
14.1679   9.73782
14.1293   9.90762
14.0909   9.98664
14.0528   9.97287
14.0148   9.83808
13.9770   9.82595
13.9394   9.86465
13.9021   9.72406
13.8649   9.70928
13.8279   9.70929
13.7911   9.55275
13.7546   9.49355
13.7182   9.35527
13.6820   9.34538
13.6460   9.38819
13.6101   9.15716
13.5745   9.05297
13.5391   9.04123
13.5038   8.79393
13.4687   8.59412
13.4339   8.27901
13.3991   8.00842
13.3646   7.83572
13.3302   7.88928
13.2961   7.84793
13.2621   7.68836
13.2282   7.61240
13.1946   7.57659
13.1611   7.38423
13.1278   7.14859
13.0946   7.04508
13.0616   7.18297
13.0288   7.19573
12.9962   7.15133
12.9637   7.22673
12.9313   7.40459
12.8992   7.63030
12.8672   8.04174
12.8353   8.50908
12.8036   8.74684
12.7721   8.69928
12.7407   8.44888
12.7095   8.06384
12.6784   7.75075
12.6475   7.67082
12.6167   7.92681
12.5861   8.30272
12.5556   8.65428
12.5253   9.01458
12.4951   9.18434
12.4651   9.24510
12.4352   9.20617
12.4054   8.84741
12.3758   8.27190
12.3463   8.00079
12.3170   7.91666
12.2878   8.09982
12.2588   8.29666
12.2299   8.39420
12.2011   8.39360
12.1725   8.50756
12.1439   8.71737
12.1156   8.70496
12.0873   8.61957
12.0592   8.47937
12.0312   8.51580
12.0034   8.62645
11.9757   8.76482
11.9481   8.79818
11.9206   8.90863
11.8933   9.09785
11.8661   9.37098
11.8390   9.67601
11.8120   9.96836
11.7852  10.09940
11.7584  10.10550
11.7318  10.06160
11.7053  10.04460
11.6790  10.07990
11.6527  10.21810
11.6266  10.25400
11.6006  10.56090
11.5747  11.07410
11.5489  11.57220
11.5233  12.19120
11.4977  12.72350
11.4723  13.19740
11.4469  13.69730
11.4217  13.97860
11.3966  14.13280
11.3716  14.18990
11.3468  13.95050
11.3220  13.68800
11.2973  13.62200
11.2728  13.46790
11.2483  13.45890
11.2240  13.87590
11.1997  14.63310
11.1756  15.61210
11.1515  16.58210
11.1276  17.42070
11.1038  17.93200
11.0801  18.08460
11.0564  18.15990
11.0329  18.12070
11.0095  17.85960
10.9862  17.54230
10.9629  17.23290
10.9398  16.80240
10.9168  16.35700
10.8938  15.78510
10.8710  15.12340
10.8483  14.44400
10.8256  13.71090
10.8031  12.89560
10.7806  12.16870
10.7582  11.53610
10.7360  10.95580
10.7138  10.65550
10.6917  10.63680
10.6697  10.82230
10.6478  11.13150
10.6260  11.35160
10.6042  11.53920
10.5826  11.91740
10.5610  12.43330
10.5396  12.87330
10.5182  13.34830
10.4969  13.98810
10.4757  14.51490
10.4546  15.22920
10.4335  16.15080
10.4126  16.94840
10.3917  17.69320
10.3709  18.14610
10.3502  18.51460
10.3296  18.83400
10.3091  18.99530
10.2886  19.08730
10.2683  19.36250
10.2480  19.75050
10.2277  20.08850
10.2076  20.22790
10.1876  20.36810
10.1676  20.57090
10.1477  20.81370
10.1279  21.07060
10.1081  21.36010
10.0885  21.50580
10.0689  21.57560
10.0494  21.74850
10.0299  22.07970
10.0106  22.27460
 9.9913  22.42410
 9.9720  22.55850
 9.9529  22.72250
 9.9338  22.85330
 9.9148  22.79760
 9.8959  22.86770
 9.8771  22.89620
 9.8583  22.70920
 9.8396  22.68170
 9.8210  22.61730
 9.8024  22.59750
 9.7839  22.47380
 9.7655  22.28600
 9.7471  22.19230
 9.7288  22.21280
 9.7106  22.30930
 9.6925  22.55480
 9.6744  22.67580
 9.6564  22.57140
 9.6384  22.32290
 9.6205  22.12740
 9.6027  21.88280
 9.5850  21.73490
 9.5673  21.54240
 9.5497  21.28050
 9.5321  20.97830
 9.5146  20.78110
 9.4972  20.80400
 9.4798  20.78010
 9.4625  20.58680
 9.4453  20.54460
 9.4281  20.62550
 9.4110  20.79280
 9.3940  21.08500
 9.3770  21.47900
 9.3600  21.88860
 9.3432  22.16650
 9.3264  22.21970
 9.3096  22.25570
 9.2930  22.34860
 9.2763  22.44220
 9.2598  22.33430
 9.2432  22.01210
 9.2268  21.74290
 9.2104  21.68810
 9.1941  21.58550
 9.1778  21.40840
 9.1616  21.28310
 9.1454  21.11440
 9.1293  20.89740
 9.1133  20.63580
 9.0973  20.39720
 9.0814  20.20160
 9.0655  20.05450
 9.0497  19.93950
 9.0339  19.87570
 9.0182  19.84330
 9.0025  19.62350
 8.9870  19.48600
 8.9714  19.43770
 8.9559  19.44450
 8.9405  19.57850
 8.9251  19.66810
 8.9097  19.65240
 8.8945  19.81470
 8.8792  19.93120
 8.8641  19.95760
 8.8489  19.85840
 8.8338  19.75650
 8.8188  19.81270
 8.8039  19.83550
 8.7889  19.71260
 8.7741  19.49650
 8.7592  19.29580
 8.7445  19.15680
 8.7297  19.07470
 8.7151  18.99660
 8.7005  18.74870
 8.6859  18.31410
 8.6714  17.62100
 8.6569  16.68280
 8.6425  15.70810
 8.6281  15.33590
 8.6137  15.98900
 8.5994  17.20780
 8.5852  18.26290
 8.5710  18.99810
 8.5569  19.60070
 8.5428  20.07510
 8.5287  20.47440
 8.5147  20.85940
 8.5008  21.19950
 8.4869  21.33920
 8.4730  21.18260
 8.4592  21.05980
 8.4454  21.12190
 8.4316  21.09390
 8.4180  20.81930
 8.4043  20.63480
 8.3907  20.37870
 8.3772  20.18890
 8.3637  20.03220
 8.3502  19.71810
 8.3368  19.43200
 8.3234  19.28990
 8.3100  19.09200
 8.2967  18.90900
 8.2835  18.56420
 8.2703  18.16930
 8.2571  17.77780
 8.2440  17.42600
 8.2309  17.00870
 8.2179  16.55850
 8.2049  15.95910
 8.1919  15.31980
 8.1790  14.78070
 8.1661  14.07490
 8.1532  13.41090
 8.1404  12.76590
 8.1277  11.79820
 8.1150  10.86070
 8.1023  10.14090
 8.0897   9.40981
 8.0770   8.75459
 8.0645   8.18236
 8.0520   7.54668
 8.0395   6.80517
 8.0270   6.24162
 8.0146   5.95847
 8.0023   5.66599
 7.9899   5.39210
 7.9776   5.11131
 7.9654   4.73153
 7.9532   4.40694
 7.9410   4.18592
 7.9288   3.93149
 7.9167   3.70538
 7.9047   3.54399
 7.8926   3.38961
 7.8807   3.31909
 7.8687   3.10751
 7.8568   2.97828
 7.8449   2.92642
 7.8330   2.74291
 7.8212   2.64254
 7.8094   2.67654
 7.7977   2.63759
 7.7860   2.58579
 7.7743   2.52183
 7.7627   2.56264
 7.7511   2.54510
 7.7395   2.50700
 7.7280   2.48404
 7.7165   2.38451
 7.7050   2.36362
 7.6936   2.40942
 7.6822   2.40510
 7.6708   2.24453
 7.6595   2.18325
 7.6482   2.23364
 7.6369   2.22036
 7.6257   2.22561
 7.6145   2.25116
 7.6033   2.17378
 7.5922   2.15002
 7.5811   2.11462
 7.5700   2.12818
 7.5590   2.13706
 7.5480   2.11191
 7.5370   2.15106
 7.5261   2.24899
 7.5152   2.22272
 7.5043   2.24095
 7.4935   2.17785
 7.4826   2.03277
 7.4718   2.10565
 7.4611   2.25209
 7.4504   2.26653
 7.4397   2.25303
 7.4290   2.26659
 7.4184   2.34135
 7.4078   2.28666
 7.3972   2.22560
 7.3867   2.23810
 7.3762   2.26727
 7.3657   2.25818
 7.3553   2.17058
 7.3449   2.11427
 7.3345   2.13570
 7.3241   2.23018
 7.3138   2.32510
 7.3035   2.36632
 7.2932   2.29296
 7.2830   2.27365
 7.2727   2.29057
 7.2626   2.30128
 7.2524   2.30301
 7.2423   2.32176
 7.2322   2.31968
 7.2221   2.25234
 7.2120   2.34560
 7.2020   2.47673
 7.1921   2.47483
 7.1821   2.39782
 7.1722   2.41978
 7.1623   2.36903
 7.1524   2.38260
 7.1425   2.46457
 7.1327   2.45237
 7.1229   2.45893
 7.1131   2.49242
 7.1034   2.46151
 7.0937   2.38605
 7.0840   2.46411
 7.0743   2.54238
 7.0647   2.52647
 7.0551   2.51109
 7.0455   2.55640
 7.0359   2.66354
 7.0264   2.71875
 7.0169   2.67907
 7.0074   2.60642
 6.9979   2.63840
 6.9885   2.60371
 6.9791   2.52805
 6.9697   2.61832
 6.9604   2.77657
 6.9510   2.81292
 6.9417   2.71794
 6.9324   2.64118
 6.9232   2.69322
 6.9140   2.77047
 6.9047   2.75709
 6.8956   2.66147
 6.8864   2.63198
 6.8773   2.60996
 6.8682   2.73912
 6.8591   2.80995
 6.8500   2.74301
 6.8410   2.72989
 6.8320   2.78309
 6.8230   2.80527
 6.8140   2.84796
 6.8051   2.92202
 6.7962   2.94472
 6.7873   2.88598
 6.7784   2.84297
 6.7695   2.82103
 6.7607   2.74842
 6.7519   2.77974
 6.7431   2.83991
 6.7344   2.88335
 6.7256   2.88321
 6.7169   2.88511
 6.7082   2.91423
 6.6996   2.87228
 6.6909   2.82886
 6.6823   2.88359
 6.6737   2.87669
 6.6651   2.88581
 6.6566   2.93018
 6.6480   2.97166
 6.6395   3.04150
 6.6310   3.03401
 6.6226   3.00648
 6.6141   3.00114
 6.6057   2.99666
 6.5973   3.01133
 6.5889   2.99549
 6.5805   2.98209
 6.5722   3.02225
 6.5639   3.03192
 6.5556   3.00359
 6.5473   3.07503
 6.5390   3.08506
 6.5308   3.09282
 6.5226   3.14622
 6.5144   3.15282
 6.5062   3.16165
 6.4981   3.23819
 6.4900   3.15910
 6.4818   3.16156
 6.4737   3.25097
 6.4657   3.24152
 6.4576   3.26229
 6.4496   3.30653
 6.4416   3.26977
 6.4336   3.28508
 6.4256   3.33718
 6.4177   3.38355
 6.4097   3.39180
 6.4018   3.31592
 6.3939   3.36170
 6.3860   3.35909
 6.3782   3.34169
 6.3704   3.35809
 6.3625   3.33215
 6.3547   3.25812
 6.3470   3.31986
 6.3392   3.38361
 6.3315   3.32456
 6.3237   3.25686
 6.3160   3.27832
 6.3083   3.40871
 6.3007   3.41178
 6.2930   3.29895
 6.2854   3.35163
 6.2778   3.38701
 6.2702   3.30064
 6.2626   3.26466
 6.2551   3.24727
 6.2476   3.26818
 6.2400   3.27488
 6.2325   3.35165
 6.2251   3.37799
 6.2176   3.39281
 6.2101   3.44585
 6.2027   3.45274
 6.1953   3.43599
 6.1879   3.40714
 6.1805   3.40713
 6.1732   3.38359
 6.1658   3.40725
 6.1585   3.48613
 6.1512   3.55318
 6.1439   3.55166
 6.1367   3.57948
 6.1294   3.58696
 6.1222   3.50132
 6.1149   3.50248
 6.1077   3.52155
 6.1006   3.55539
 6.0934   3.49257
 6.0862   3.46209
 6.0791   3.62692
 6.0720   3.73984
 6.0649   3.72349
 6.0578   3.64934
 6.0507   3.65332
 6.0437   3.59497
 6.0366   3.54686
 6.0296   3.67190
 6.0226   3.74116
 6.0156   3.63212
 6.0087   3.64897
 6.0017   3.67261
 5.9948   3.64871
 5.9878   3.68855
 5.9809   3.64408
 5.9740   3.67915
 5.9672   3.65317
 5.9603   3.57714
 5.9535   3.52519
 5.9466   3.55679
 5.9398   3.71610
 5.9330   3.76289
 5.9262   3.64711
 5.9195   3.60555
 5.9127   3.64623
 5.9060   3.60004
 5.8993   3.56341
 5.8926   3.56374
 5.8859   3.71639
 5.8792   3.73264
 5.8726   3.64619
 5.8659   3.69273
 5.8593   3.67189
 5.8527   3.61926
 5.8461   3.61878
 5.8395   3.67319
 5.8329   3.63881
 5.8264   3.62490
 5.8198   3.59758
 5.8133   3.53418
 5.8068   3.55120
 5.8003   3.57613
 5.7938   3.62615
 5.7874   3.66968
 5.7809   3.65207
 5.7745   3.59794
 5.7680   3.72316
 5.7616   3.72768
 5.7552   3.65211
 5.7489   3.68151
 5.7425   3.65693
 5.7361   3.63498
 5.7298   3.64586
 5.7235   3.64995
 5.7172   3.64306
 5.7109   3.72175
 5.7046   3.65976
 5.6983   3.55806
 5.6921   3.58969
 5.6858   3.63047
 5.6796   3.64242
 5.6734   3.62044
 5.6672   3.61300
 5.6610   3.66211
 5.6548   3.62664
 5.6487   3.57168
 5.6425   3.54406
 5.6364   3.47334
 5.6303   3.51350
 5.6242   3.61529
 5.6181   3.58413
 5.6120   3.49601
 5.6059   3.44672
 5.5999   3.38704
 5.5938   3.41143
 5.5878   3.52270
 5.5818   3.52308
 5.5758   3.54785
 5.5698   3.50043
 5.5638   3.42267
 5.5578   3.43252
 5.5519   3.47304
 5.5460   3.52666
 5.5400   3.54671
 5.5341   3.55344
 5.5282   3.52119
 5.5223   3.50672
 5.5164   3.57956
 5.5106   3.62131
 5.5047   3.61529
 5.4989   3.68390
 5.4931   3.80676
 5.4873   3.77570
 5.4815   3.68327
 5.4757   3.67288
 5.4699   3.70902
 5.4641   3.74267
 5.4584   3.82617
 5.4527   3.89902
 5.4469   3.90144
 5.4412   3.80692
 5.4355   3.76914
 5.4298   3.89271
 5.4241   3.90533
 5.4185   3.81723
 5.4128   3.74236
 5.4072   3.76386
 5.4015   3.77446
 5.3959   3.82586
 5.3903   3.85446
 5.3847   3.81197
 5.3791   3.83079
 5.3735   3.89609
 5.3680   3.83773
 5.3624   3.81924
 5.3569   3.88824
 5.3514   3.87538
 5.3458   3.85885
 5.3403   3.84361
 5.3348   3.86903
 5.3294   3.89867
 5.3239   3.87406
 5.3184   3.85505
 5.3130   3.92954
 5.3075   3.92780
 5.3021   3.89679
 5.2967   3.90314
 5.2913   3.86525
 5.2859   3.91049
 5.2805   3.99655
 5.2751   4.00234
 5.2698   4.04354
 5.2644   4.08847
 5.2591   4.07107
 5.2538   4.05796
 5.2485   4.02933
 5.2431   4.08888
 5.2378   4.15272
 5.2326   4.12747
 5.2273   4.17183
 5.2220   4.24937
 5.2168   4.22582
 5.2115   4.23826
 5.2063   4.29626
 5.2011   4.33357
 5.1959   4.32942
 5.1907   4.32434
 5.1855   4.33497
 5.1803   4.38026
 5.1751   4.39054
 5.1700   4.45461
 5.1648   4.48366
 5.1597   4.46301
 5.1545   4.46167
 5.1494   4.51602
 5.1443   4.45154
 5.1392   4.35867
 5.1341   4.40004
 5.1291   4.40818
 5.1240   4.53347
 5.1189   4.59281
 5.1139   4.55587
 5.1088   4.49894
 5.1038   4.49793
 5.0988   4.52709
 5.0938   4.52773
 5.0888   4.62678
 5.0838   4.67360
 5.0788   4.70569
 5.0738   4.71900
 5.0689   4.64661
 5.0639   4.69547
 5.0590   4.74935
 5.0541   4.69836
 5.0491   4.61766
 5.0442   4.60915
 5.0393   4.67581
 5.0344   4.72924
 5.0296   4.71462
 5.0247   4.72551
 5.0198   4.79844
 5.0150   4.91184
 5.0101   4.92328
 5.0053   4.85942
 5.0004   4.83190
 4.9956   4.91716
 4.9908   4.98489
 4.9860   4.96615
 4.9812   4.95495
 4.9765   4.94725
 4.9717   5.04798
 4.9669   5.08241
 4.9622   5.05994
 4.9574   5.14804
 4.9527   5.18499
 4.9480   5.17211
 4.9432   5.12495
 4.9385   5.15868
 4.9338   5.21668
 4.9291   5.20393
 4.9245   5.22730
 4.9198   5.25885
 4.9151   5.30452
 4.9105   5.39211
 4.9058   5.47338
 4.9012   5.55291
 4.8966   5.51713
 4.8919   5.50035
 4.8873   5.61963
 4.8827   5.76114
 4.8781   5.80163
 4.8736   5.78650
 4.8690   5.80452
 4.8644   5.81316
 4.8599   5.94682
 4.8553   5.99517
 4.8508   5.97940
 4.8462   5.97750
 4.8417   5.99371
 4.8372   5.96783
 4.8327   6.03001
 4.8282   6.09189
 4.8237   6.08165
 4.8192   6.14212
 4.8147   6.22393
 4.8103   6.21828
 4.8058   6.26016
 4.8014   6.31735
 4.7969   6.25553
 4.7925   6.29264
 4.7881   6.27766
 4.7836   6.25363
 4.7792   6.33873
 4.7748   6.41435
 4.7704   6.38066
 4.7660   6.37464
 4.7617   6.42394
 4.7573   6.42424
 4.7530   6.43061
 4.7486   6.47878
 4.7443   6.51298
 4.7399   6.55225
 4.7356   6.62489
 4.7313   6.66198
 4.7270   6.59538
 4.7226   6.58207
 4.7184   6.70017
 4.7141   6.76261
 4.7098   6.71409
 4.7055   6.68226
 4.7012   6.64169
 4.6970   6.59224
 4.6927   6.66354
 4.6885   6.71862
 4.6842   6.69367
 4.6800   6.63154
 4.6758   6.59388
 4.6716   6.65077
 4.6674   6.72073
 4.6632   6.69094
 4.6590   6.75687
 4.6548   6.87447
 4.6506   6.90060
 4.6465   6.92622
 4.6423   6.99914
 4.6382   7.06464
 4.6340   7.12567
 4.6299   7.13386
 4.6258   7.06127
 4.6216   7.08016
 4.6175   7.18808
 4.6134   7.24791
 4.6093   7.23488
 4.6052   7.26910
 4.6011   7.37524
 4.5971   7.36375
 4.5930   7.32941
 4.5889   7.37201
 4.5849   7.39746
 4.5808   7.46862
 4.5768   7.49429
 4.5727   7.51159
 4.5687   7.47482
 4.5647   7.47106
 4.5607   7.52310
 4.5567   7.59281
 4.5526   7.54697
 4.5487   7.56338
 4.5447   7.65115
 4.5407   7.61792
 4.5367   7.54583
 4.5328   7.65283
 4.5288   7.74157
 4.5248   7.64108
 4.5209   7.50924
 4.5170   7.40617
 4.5130   7.46895
 4.5091   7.52193
 4.5052   7.49798
 4.5013   7.46110
 4.4974   7.43264
 4.4935   7.44960
 4.4896   7.45227
 4.4857   7.42735
 4.4818   7.45085
 4.4779   7.49395
 4.4741   7.53858
 4.4702   7.44522
 4.4664   7.38073
 4.4625   7.47467
 4.4587   7.60348
 4.4549   7.59694
 4.4510   7.61388
 4.4472   7.75407
 4.4434   7.83010
 4.4396   7.72742
 4.4358   7.72076
 4.4320   7.80813
 4.4282   7.88096
 4.4245   7.89103
 4.4207   7.78576
 4.4169   7.66517
 4.4132   7.78590
 4.4094   7.92555
 4.4057   7.99999
 4.4019   8.00122
 4.3982   7.89251
 4.3945   7.93354
 4.3907   8.09710
 4.3870   8.13198
 4.3833   8.16189
 4.3796   8.18138
 4.3759   8.13535
 4.3722   8.18266
 4.3685   8.26184
 4.3649   8.24333
 4.3612   8.09234
 4.3575   8.00164
 4.3539   8.00357
 4.3502   8.00107
 4.3466   7.97392
 4.3429   7.86351
 4.3393   7.95927
 4.3357   8.15388
 4.3320   8.18403
 4.3284   8.19691
 4.3248   8.27567
 4.3212   8.37837
 4.3176   8.45178
 4.3140   8.42689
 4.3105   8.51058
 4.3069   8.59819
 4.3033   8.65392
 4.2997   8.68382
 4.2962   8.68318
 4.2926   8.65659
 4.2890   8.69375
 4.2855   8.69959
 4.2820   8.71455
 4.2784   8.76978
 4.2749   8.85507
 4.2714   8.95934
 4.2679   9.02741
 4.2644   9.07580
 4.2609   9.16495
 4.2574   9.10896
 4.2539   9.15996
 4.2504   9.28437
 4.2469   9.37271
 4.2434   9.36511
 4.2400   9.41044
 4.2365   9.29464
 4.2330   9.29733
 4.2296   9.31389
 4.2261   9.24353
 4.2227   9.26567
 4.2193   9.39100
 4.2158   9.49177
 4.2124   9.50174
 4.2090   9.44364
 4.2056   9.44121
 4.2022   9.59077
 4.1988   9.66996
 4.1954   9.68957
 4.1920   9.68636
 4.1886   9.60507
 4.1852   9.55272
 4.1818   9.72619
 4.1785   9.77184
 4.1751   9.74195
 4.1717   9.81325
 4.1684   9.77735
 4.1650   9.70762
 4.1617   9.71957
 4.1584   9.86593
 4.1550   9.95723
 4.1517   9.93989
 4.1484   9.90427
 4.1451   9.89688
 4.1418   9.95070
 4.1384   9.97516
 4.1351   9.94430
 4.1319  10.03040
 4.1286  10.07400
 4.1253   9.95129
 4.1220   9.93100
 4.1187  10.01820
 4.1155  10.11250
 4.1122  10.17700
 4.1089  10.12200
 4.1057  10.18620
 4.1024  10.30140
 4.0992  10.37740
 4.0959  10.32710
 4.0927  10.13520
 4.0895  10.12260
 4.0863  10.21160
 4.0830  10.23490
 4.0798  10.31340
 4.0766  10.39810
 4.0734  10.41360
 4.0702  10.37860
 4.0670  10.28090
 4.0639  10.32530
 4.0607  10.45630
 4.0575  10.51540
 4.0543  10.39640
 4.0511  10.31090
 4.0480  10.43640
 4.0448  10.44470
 4.0417  10.48500
 4.0385  10.50750
 4.0354  10.41720
 4.0323  10.43190
 4.0291  10.41800
 4.0260  10.33540
 4.0229  10.44360
 4.0197  10.44440
 4.0166  10.43850
 4.0135  10.50950
 4.0104  10.54340
 4.0073  10.53280
 4.0042  10.56610
 4.0011  10.70570
 3.9981  10.64720
 3.9950  10.53460
 3.9919  10.55950
 3.9888  10.61000
 3.9857  10.70660
 3.9827  10.66200
 3.9796  10.58660
 3.9766  10.51280
 3.9735  10.54300
 3.9705  10.62190
 3.9675  10.65700
 3.9644  10.58850
 3.9614  10.61790
 3.9584  10.81640
 3.9554  10.76270
 3.9523  10.54990
 3.9493  10.58200
 3.9463  10.67390
 3.9433  10.71540
 3.9403  10.79840
 3.9373  10.81360
 3.9343  10.80500
 3.9314  10.87480
 3.9284  10.91210
 3.9254  10.98110
 3.9224  10.85160
 3.9195  10.81710
 3.9165  10.93600
 3.9136  10.97930
 3.9106  10.82760
 3.9077  10.80290
 3.9047  10.79820
 3.9018  10.77690
 3.8988  10.87710
 3.8959  10.97890
 3.8930  10.97880
 3.8901  10.82190
 3.8872  10.73340
 3.8842  10.81630
 3.8813  10.80290
 3.8784  10.78740
 3.8755  10.79630
 3.8726  10.79030
 3.8697  10.76770
 3.8669  10.83140
 3.8640  10.93720
 3.8611  10.89250
 3.8582  10.81240
 3.8554  10.79280
 3.8525  10.74440
 3.8496  10.74230
 3.8468  10.85220
 3.8439  10.90780
 3.8411  10.83550
 3.8382  10.82110
 3.8354  10.90370
 3.8326  10.87320
 3.8297  10.81890
 3.8269  10.90380
 3.8241  10.88000
 3.8213  10.86610
 3.8185  10.87140
 3.8157  10.73240
 3.8128  10.81020
 3.8100  10.93850
 3.8072  10.84170
 3.8045  10.75900
 3.8017  10.81010
 3.7989  10.89430
 3.7961  10.87900
 3.7933  10.87580
 3.7906  10.91370
 3.7878  10.81850
 3.7850  10.80130
 3.7822  10.85220
 3.7795  10.86550
 3.7767  10.85850
 3.7740  10.76360
 3.7713  10.66280
 3.7685  10.68110
 3.7658  10.87840
 3.7630  10.84190
 3.7603  10.75380
 3.7576  10.83990
 3.7549  10.80390
 3.7521  10.67920
 3.7494  10.61310
 3.7467  10.71340
 3.7440  10.73540
 3.7413  10.70150
 3.7386  10.60700
 3.7359  10.55370
 3.7332  10.81370
 3.7306  10.86940
 3.7279  10.88770
 3.7252  10.85050
 3.7225  10.91930
 3.7199  11.07920
 3.7172  10.90300
 3.7145  10.74030
 3.7119  10.66170
 3.7092  10.63440
 3.7066  10.67310
 3.7039  10.67930
 3.7013  10.77200
 3.6986  10.97970
 3.6960  10.93780
 3.6934  10.84150
 3.6907  10.78040
 3.6881  10.93450
 3.6855  11.12300
 3.6829  11.13770
 3.6803  10.97500
 3.6776  10.85700
 3.6750  10.90660
 3.6724  10.94440
 3.6698  10.90150
 3.6672  11.04610
 3.6646  11.16930
 3.6620  11.14980
 3.6595  11.08940
 3.6569  10.85160
 3.6543  10.92020
 3.6517  11.06180
 3.6492  10.97490
 3.6466  11.00170
 3.6440  11.15450
 3.6415  11.09780
 3.6389  11.03750
 3.6364  11.06580
 3.6338  11.04590
 3.6313  10.97720
 3.6287  11.04590
 3.6262  11.14230
 3.6237  11.23900
 3.6211  11.21450
 3.6186  10.97890
 3.6161  10.89300
 3.6136  10.95820
 3.6111  11.03410
 3.6085  10.95950
 3.6060  10.85230
 3.6035  10.87430
 3.6010  10.93700
 3.5985  11.04740
 3.5960  11.11140
 3.5935  11.05010
 3.5910  10.90390
 3.5886  10.84910
 3.5861  10.93410
 3.5836  10.98390
 3.5811  10.91740
 3.5787  10.73460
 3.5762  10.53960
 3.5737  10.47230
 3.5713  10.64750
 3.5688  10.85420
 3.5663  10.85830
 3.5639  10.79760
 3.5614  10.67730
 3.5590  10.67150
 3.5566  10.84180
 3.5541  10.85330
 3.5517  10.95600
 3.5493  10.95000
 3.5468  10.89580
 3.5444  10.82700
 3.5420  10.75740
 3.5396  10.63870
 3.5372  10.57270
 3.5347  10.58840
 3.5323  10.64450
 3.5299  10.75460
 3.5275  10.72210
 3.5251  10.66910
 3.5227  10.61900
 3.5203  10.51170
 3.5180  10.47560
 3.5156  10.50090
 3.5132  10.58750
 3.5108  10.67070
 3.5084  10.71010
 3.5061  10.61310
 3.5037  10.53880
 3.5013  10.52900
 3.4990  10.57110
 3.4966  10.51640
 3.4943  10.47230
 3.4919  10.27920
 3.4895  10.23030
 3.4872  10.50000
 3.4849  10.63930
 3.4825  10.65180
 3.4802  10.64200
 3.4778  10.60690
 3.4755  10.68000
 3.4732  10.65120
 3.4709  10.44190
 3.4685  10.35670
 3.4662  10.39710
 3.4639  10.48740
 3.4616  10.49890
 3.4593  10.53140
 3.4570  10.47690
 3.4547  10.21660
 3.4524  10.20830
 3.4501  10.35230
 3.4478  10.17110
 3.4455  10.14630
 3.4432  10.24090
 3.4409  10.26980
 3.4386  10.28200
 3.4364  10.42680
 3.4341  10.40660
 3.4318  10.33980
 3.4295  10.38020
 3.4273  10.19400
 3.4250  10.00420
 3.4228  10.04930
 3.4205  10.06540
 3.4182  10.20040
 3.4160  10.28580
 3.4137  10.23970
 3.4115  10.22940
 3.4093  10.11350
 3.4070  10.02460
 3.4048   9.93955
 3.4025   9.99274
 3.4003  10.08660
 3.3981  10.13440
 3.3958  10.05360
 3.3936   9.74114
 3.3914   9.45031
 3.3892   9.74512
 3.3870   9.96626
 3.3848   9.83327
 3.3826   9.81220
 3.3804   9.63263
 3.3782   9.75551
 3.3760   9.81185
 3.3738   9.61370
 3.3716   9.50306
 3.3694   9.66854
 3.3672   9.77314
 3.3650   9.56118
 3.3628   9.61602
 3.3606   9.83987
 3.3585   9.78471
 3.3563   9.52734
 3.3541   9.33749
 3.3520   9.37275
 3.3498   9.40341
 3.3476   9.48069
 3.3455   9.62530
 3.3433   9.70825
 3.3411   9.79189
 3.3390   9.64826
 3.3369   9.54258
 3.3347   9.57675
 3.3326   9.42805
 3.3304   9.31652
 3.3283   9.41380
 3.3262   9.45938
 3.3240   9.37022
 3.3219   9.20058
 3.3198   9.19552
 3.3176   9.27252
 3.3155   9.18964
 3.3134   9.15837
 3.3113   9.26905
 3.3092   9.24774
 3.3071   9.27088
 3.3049   9.43109
 3.3028   9.20872
 3.3007   9.22513
 3.2986   9.28690
 3.2965   9.22191
 3.2944   8.99230
 3.2924   8.96701
 3.2903   9.03261
 3.2882   9.16691
 3.2861   9.08205
 3.2840   8.84698
 3.2819   8.96442
 3.2799   9.02583
 3.2778   8.86422
 3.2757   8.81336
 3.2736   8.88878
 3.2716   8.72612
 3.2695   8.58258
 3.2675   8.69906
 3.2654   8.71688
 3.2634   8.62522
 3.2613   8.62481
 3.2593   8.69506
 3.2572   8.65620
 3.2552   8.59292
 3.2531   8.72354
 3.2511   8.81065
 3.2490   8.74640
 3.2470   8.76120
 3.2450   8.71157
 3.2429   8.56377
 3.2409   8.56246
 3.2389   8.40699
 3.2369   8.21134
 3.2348   8.18135
 3.2328   8.42108
 3.2308   8.63586
 3.2288   8.61559
 3.2268   8.53876
 3.2248   8.37223
 3.2228   8.22692
 3.2208   8.33565
 3.2188   8.41952
 3.2168   8.10622
 3.2148   8.11190
 3.2128   8.36868
 3.2108   8.29804
 3.2088   8.36231
 3.2068   8.48723
 3.2049   8.14822
 3.2029   7.87686
 3.2009   7.83128
 3.1989   7.73484
 3.1970   7.77873
 3.1950   7.99453
 3.1930   8.01008
 3.1911   8.03854
 3.1891   8.00995
 3.1871   7.97675
 3.1852   7.99218
 3.1832   8.04614
 3.1813   7.91044
 3.1793   7.71504
 3.1774   7.70393
 3.1754   7.59064
 3.1735   7.58604
 3.1715   7.70023
 3.1696   7.63859
 3.1677   7.64250
 3.1657   7.64931
 3.1638   7.85685
 3.1619   7.82208
 3.1599   7.58383
 3.1580   7.41406
 3.1561   7.28943
 3.1542   7.29603
 3.1523   7.25781
 3.1503   7.36034
 3.1484   7.35249
 3.1465   7.28448
 3.1446   7.27958
 3.1427   7.13378
 3.1408   7.02784
 3.1389   7.05460
 3.1370   6.82221
 3.1351   6.71197
 3.1332   6.96259
 3.1313   7.27616
 3.1294   7.46288
 3.1275   7.14594
 3.1257   6.90440
 3.1238   6.94320
 3.1219   7.11823
 3.1200   7.26912
 3.1181   7.13264
 3.1163   6.72424
 3.1144   6.59070
 3.1125   6.67193
 3.1107   6.74654
 3.1088   6.98048
 3.1069   6.91807
 3.1051   6.97737
 3.1032   7.01898
 3.1014   7.04135
 3.0995   6.94547
 3.0976   6.91954
 3.0958   7.13368
 3.0940   6.98125
 3.0921   6.87357
 3.0903   6.81922
 3.0884   6.55514
 3.0866   6.34601
 3.0848   6.37467
 3.0829   6.44319
 3.0811   6.50836
 3.0793   6.68154
 3.0774   6.52628
 3.0756   6.19390
 3.0738   6.10338
 3.0720   6.04363
 3.0701   6.18491
 3.0683   5.88185
 3.0665   5.57643
 3.0647   5.99196
 3.0629   6.33360
 3.0611   6.50420
 3.0593   6.38156
 3.0575   6.29234
 3.0557   6.25765
 3.0539   6.16328
 3.0521   6.25153
 3.0503   6.46612
 3.0485   6.75441
 3.0467   6.69928
 3.0449   6.56372
 3.0431   6.30064
 3.0413   6.08696
 3.0396   5.99898
 3.0378   6.06146
 3.0360   5.87206
 3.0342   5.70075
 3.0324   5.99715
 3.0307   6.11060
 3.0289   5.96469
 3.0271   5.82561
 3.0254   5.91329
 3.0236   5.91164
 3.0218   5.97193
 3.0201   6.04499
 3.0183   6.17064
 3.0166   6.12362
 3.0148   6.16596
 3.0130   5.89691
 3.0113   5.71962
 3.0096   5.89680
 3.0078   6.05589
 3.0061   5.95716
 3.0043   5.53330
 3.0026   5.47273
 3.0008   5.64218
 2.9991   5.94259
 2.9974   6.07301
 2.9956   6.21978
 2.9939   5.92520
 2.9922   5.59858
 2.9905   5.46413
 2.9887   5.49293
 2.9870   5.46397
 2.9853   5.94605
 2.9836   6.27954
 2.9819   6.20430
 2.9802   5.80195
 2.9784   5.62182
 2.9767   5.69899
 2.9750   5.54687
 2.9733   5.51237
 2.9716   5.35290
 2.9699   5.08526
 2.9682   5.36918
 2.9665   5.60266
 2.9648   5.35760
 2.9631   5.38279
 2.9614   5.58872
 2.9597   5.52380
 2.9581   5.53103
 2.9564   5.83812
 2.9547   5.53841
 2.9530   5.25217
 2.9513   5.34135
 2.9496   5.55551
 2.9480   5.60340
 2.9463   5.50095
 2.9446   5.41143
 2.9429   5.16653
 2.9413   5.57735
 2.9396   5.98725
 2.9379   5.66553
 2.9363   5.12544
 2.9346   5.46600
 2.9330   5.73784
 2.9313   5.70672
 2.9296   5.71828
 2.9280   5.75088
 2.9263   5.72372
 2.9247   5.23983
 2.9230   5.03147
 2.9214   5.10712
 2.9197   5.36639
 2.9181   5.72072
 2.9165   5.55748
 2.9148   5.32832
 2.9132   5.63486
 2.9116   6.18999
 2.9099   6.23502
 2.9083   5.83176
 2.9067   5.58547
 2.9050   5.07837
 2.9034   4.97955
 2.9018   5.59436
 2.9002   5.62214
 2.8985   5.85227
 2.8969   5.83470
 2.8953   5.63030
 2.8937   5.36941
 2.8921   5.21172
 2.8905   5.22954
 2.8888   5.56860
 2.8872   5.84551
 2.8856   6.04490
 2.8840   6.07033
 2.8824   5.74148
 2.8808   5.77855
 2.8792   6.16445
 2.8776   6.17635
 2.8760   6.30362
 2.8744   6.64012
 2.8728   6.63763
 2.8712   5.98297
 2.8697   5.86653
 2.8681   5.85709
 2.8665   5.57621
 2.8649   5.40255
 2.8633   5.66424
 2.8617   5.84473
 2.8602   5.96928
 2.8586   6.23537
 2.8570   6.30440
 2.8554   5.89051
 2.8539   5.71563
 2.8523   5.84050
 2.8507   5.86457
 2.8492   5.76672
 2.8476   5.88052
 2.8460   5.67870
 2.8445   5.76205
 2.8429   5.87887
 2.8413   5.68949
 2.8398   5.77122
 2.8382   5.89719
 2.8367   5.83655
 2.8351   5.79124
 2.8336   5.82102
 2.8320   5.70856
 2.8305   5.60294
 2.8289   5.57279
 2.8274   5.49191
 2.8259   5.59226
 2.8243   5.85997
 2.8228   5.96548
 2.8213   6.00935
 2.8197   6.25494
 2.8182   6.30652
 2.8167   6.32888
 2.8151   6.05907
 2.8136   5.89435
 2.8121   5.83878
 2.8106   5.39926
 2.8090   4.72265
 2.8075   5.67323
 2.8060   6.52387
 2.8045   6.41433
 2.8030   6.10281
 2.8014   6.12179
 2.7999   5.77520
 2.7984   5.34461
 2.7969   5.92316
 2.7954   6.53432
 2.7939   6.77865
 2.7924   6.29755
 2.7909   5.91205
 2.7894   5.78927
 2.7879   5.54383
 2.7864   5.42429
 2.7849   5.34850
 2.7834   5.74276
 2.7819   6.26305
 2.7804   6.32800
 2.7789   5.88528
 2.7774   5.00723
 2.7759   4.88802
 2.7745   5.10806
 2.7730   5.04632
 2.7715   5.31683
 2.7700   5.28177
 2.7685   5.22661
 2.7671   5.39051
 2.7656   5.38873
 2.7641   5.44354
 2.7626   5.48053
 2.7612   5.36557
 2.7597   4.98908
 2.7582   4.67399
 2.7568   4.77465
 2.7553   5.08345
 2.7538   5.16283
 2.7524   5.24932
 2.7509   5.19867
 2.7494   4.98584
 2.7480   5.18472
 2.7465   5.26809
 2.7451   5.17365
 2.7436   5.13691
 2.7422   5.32158
 2.7407   5.45147
 2.7393   5.11202
 2.7378   4.84798
 2.7364   5.19140
 2.7350   5.42854
 2.7335   5.74364
 2.7321   6.14446
 2.7306   6.27174
 2.7292   5.68990
 2.7278   5.50927
 2.7263   5.61751
 2.7249   6.03654
 2.7235   6.33295
 2.7220   6.33131
 2.7206   6.42825
 2.7192   7.12504
 2.7178   6.94718
 2.7163   6.48048
 2.7149   6.50981
 2.7135   6.75515
 2.7121   7.07691
 2.7106   7.45425
 2.7092   7.52030
 2.7078   7.35703
 2.7064   7.58037
 2.7050   8.15260
 2.7036   7.90211
 2.7022   7.63722
 2.7008   7.63498
 2.6994   7.67700
 2.6980   7.72804
 2.6965   7.81731
 2.6951   8.33593
 2.6938   8.68314
 2.6923   8.98611
 2.6910   9.35148
 2.6896   9.64773
 2.6882   9.77319
 2.6868   9.54464
 2.6854   9.77602
 2.6840  10.43660
 2.6826  10.73500
 2.6812  10.62490
 2.6798  10.55960
 2.6784  10.37600
 2.6771  10.36310
 2.6757  10.71120
 2.6743  10.59880
 2.6729  10.72610
 2.6715  11.24470
 2.6702  11.32300
 2.6688  11.00260
 2.6674  10.66320
 2.6660  10.86660
 2.6647  11.34120
 2.6633  10.98780
 2.6619  10.78610
 2.6606  11.15680
 2.6592  11.08290
 2.6578  10.97840
 2.6565  10.73440
 2.6551  10.69480
 2.6538  10.83720
 2.6524  10.87350
 2.6511  10.80080
 2.6497  10.79810
 2.6484  10.81320
 2.6470  11.49910
 2.6456  11.80060
 2.6443  11.23900
 2.6429  11.19520
 2.6416  11.52820
 2.6403  11.33040
 2.6389  10.93530
 2.6376  10.87620
 2.6362  10.96270
 2.6349  10.90180
 2.6336  10.96110
 2.6322  11.26850
 2.6309  11.42510
 2.6296  11.48860
 2.6282  11.40190
 2.6269  11.08680
 2.6256  10.87860
 2.6242  11.06770
 2.6229  11.26530
 2.6216  11.43250
 2.6203  11.18070
 2.6189  11.09660
 2.6176  11.25780
 2.6163  11.01070
 2.6150  11.13390
 2.6136  11.55040
 2.6123  11.68320
 2.6110  11.62380
 2.6097  11.43320
 2.6084  11.45610
 2.6071  11.36640
 2.6058  10.99640
 2.6044  10.75990
 2.6031  10.89160
 2.6018  10.99660
 2.6005  10.96340
 2.5992  10.84770
 2.5979  11.00620
 2.5966  11.23760
 2.5953  11.47550
 2.5940  11.43500
 2.5927  11.20460
 2.5914  11.34680
 2.5901  11.59880
 2.5888  11.02700
 2.5876  10.42960
 2.5863  10.57710
 2.5850  11.29070
 2.5837  11.51560
 2.5824  11.10890
 2.5811  11.10170
 2.5798  11.17400
 2.5785  10.86320
 2.5773  10.44440
 2.5760  10.89090
 2.5747  11.14910
 2.5734  10.89020
 2.5722  10.96470
 2.5709  11.13250
 2.5696  11.03520
 2.5683  11.15680
 2.5671  11.20990
 2.5658  11.02320
 2.5645  10.66670
 2.5633  10.78210
 2.5620  11.41350
 2.5607  11.47020
 2.5595  10.80480
 2.5582  10.58210
 2.5569  10.68750
 2.5557  11.37680
 2.5544  11.51500
 2.5532  10.96120
 2.5519  11.37450
 2.5507  12.03700
 2.5494  11.78270
 2.5481  11.39300
 2.5469  11.08300
 2.5456  11.21170
 2.5444  11.57250
 2.5431  11.67200
 2.5419  11.53870
 2.5406  11.01060
 2.5394  10.68140
 2.5382  10.92540
 2.5369  11.13160
 2.5357  11.45820
 2.5344  11.49930
 2.5332  11.37440
 2.5320  10.80540
 2.5307  10.47700
 2.5295  10.36400
 2.5283  10.48280
 2.5270  10.58440
 2.5258  10.79190
 2.5246  11.28450
 2.5233  11.64000
 2.5221  11.41530
 2.5209  11.19660
 2.5197  10.99070
 2.5184  11.20770
 2.5172  11.62230
 2.5160  11.71470
 2.5148  11.49190
 2.5136  10.92080
 2.5123  10.91760
 2.5111  11.59240
 2.5099  11.26960
 2.5087  10.98840
 2.5075  10.89140
 2.5063  10.97250
 2.5051  11.23520
 2.5038  10.92800
 2.5026  10.72900
 2.5014  10.78690
 2.5002  10.93760
 2.4990  10.80330
 2.4978  10.66260
 2.4966  10.71390
 2.4954  10.99660
 2.4942  11.16470
 2.4930  11.19560
 2.4918  11.48600
 2.4906  11.32990
 2.4894  10.91750
 2.4882  10.96930
 2.4870  10.77880
 2.4858  10.61070
 2.4846  10.81340
 2.4835  10.79450
 2.4823  11.02880
 2.4811  10.92580
 2.4799  10.62160
 2.4787  10.86680
 2.4775  10.85380
 2.4764  10.79720
 2.4752  10.86380
 2.4740  11.04690
 2.4728  11.12510
 2.4716  11.20080
 2.4705  10.98230
 2.4693  10.60560
 2.4681  10.60150
 2.4669  10.87150
 2.4657  11.29720
 2.4646  11.28430
 2.4634  11.06720
 2.4622  10.90680
 2.4611  11.20960
 2.4599  11.53340
 2.4587  11.47780
 2.4576  11.25740
 2.4564  11.20770
 2.4552  11.25850
 2.4541  11.26820
 2.4529  10.85970
 2.4518  10.38610
 2.4506  10.52030
 2.4494  10.41800
 2.4483  10.55010
 2.4471  10.91840
 2.4460  11.09770
 2.4448  11.07020
 2.4437  11.03820
 2.4425  11.15410
 2.4414  11.24510
 2.4402  10.97320
 2.4391  10.90440
 2.4379  10.63690
 2.4368  10.54440
 2.4356  10.23270
 2.4345  10.23920
 2.4333  10.64450
 2.4322  10.72950
 2.4311  10.61000
 2.4299  11.39660
 2.4288  11.73520
 2.4276  11.41430
 2.4265  11.07240
 2.4254  10.52060
 2.4242  10.55800
 2.4231  10.68340
 2.4220  11.14150
 2.4209  11.46880
 2.4197  10.87350
 2.4186  10.87030
 2.4175  10.84210
 2.4163  11.30940
 2.4152  11.33020
 2.4141  11.58340
 2.4130  11.71140
 2.4118  11.24190
 2.4107  11.13130
 2.4096  10.93340
 2.4085  10.99550
 2.4074  11.35110
 2.4063  11.40460
 2.4051  11.31320
 2.4040  11.17660
 2.4029  11.17860
 2.4018  11.21640
 2.4007  11.41330
 2.3996  11.19760
 2.3985  10.99790
 2.3973  11.05670
 2.3962  11.05120
 2.3951  10.79690
 2.3940  10.84130
 2.3929  10.94500
 2.3918  11.17320
 2.3907  11.64310
 2.3896  11.36680
 2.3885  11.06580
 2.3874  11.14440
 2.3863  11.17100
 2.3852  11.37500
 2.3841  11.36230
 2.3830  10.80340
 2.3819  10.86190
 2.3808  11.13970
 2.3798  11.03440
 2.3786  10.81080
 2.3776  10.73830
 2.3765  10.68040
 2.3754  10.85340
 2.3743  11.06210
 2.3732  11.03330
 2.3721  10.88330
 2.3710  11.04320
 2.3700  10.97220
 2.3689  10.55020
 2.3678  10.52700
 2.3667  10.78720
 2.3656  10.88700
 2.3645  10.69890
 2.3635  10.71620
 2.3624  11.14850
 2.3613  11.57650
 2.3603  11.41990
 2.3592  11.23970
 2.3581  11.54210
 2.3570  11.55840
 2.3560  11.23050
 2.3549  11.08900
 2.3538  11.07180
 2.3527  11.12470
 2.3517  11.13870
 2.3506  10.62320
 2.3495  10.28230
 2.3485  10.73670
 2.3474  11.15600
 2.3464  11.38200
 2.3453  10.92280
 2.3442  11.05790
 2.3432  11.35410
 2.3421  10.94610
 2.3411  10.68990
 2.3400  10.97820
 2.3390  11.26710
 2.3379  11.53150
 2.3369  11.15600
 2.3358  10.42510
 2.3347  10.58660
 2.3337  10.62040
 2.3326  10.93910
 2.3316  11.36570
 2.3306  11.72970
 2.3295  11.69240
 2.3285  11.39270
 2.3274  11.09890
 2.3264  11.33940
 2.3253  11.34340
 2.3243  11.21670
 2.3232  10.80530
 2.3222  10.71560
 2.3212  11.09500
 2.3201  11.28730
 2.3191  11.48720
 2.3180  11.33570
 2.3170  10.93640
 2.3160  11.35360
 2.3149  11.53730
 2.3139  11.03950
 2.3129  11.26030
 2.3118  11.42670
 2.3108  11.31740
 2.3098  11.01630
 2.3088  11.06350
 2.3077  11.07260
 2.3067  11.05200
 2.3057  11.25920
 2.3047  11.62070
 2.3036  11.80110
 2.3026  11.44270
 2.3016  11.90320
 2.3006  11.98160
 2.2995  11.63140
 2.2985  11.49460
 2.2975  11.34820
 2.2965  11.04200
 2.2955  11.09720
 2.2944  11.53630
 2.2934  11.84620
 2.2924  12.14290
 2.2914  11.79880
 2.2904  11.56590
 2.2894  12.14910
 2.2884  12.48210
 2.2874  12.39920
 2.2864  12.00060
 2.2854  11.83100
 2.2843  11.45450
 2.2833  11.58050
 2.2823  11.86380
 2.2813  10.97860
 2.2803  11.07560
 2.2793  11.57030
 2.2783  11.69710
 2.2773  12.03640
 2.2763  11.86360
 2.2753  11.06960
 2.2743  11.23000
 2.2733  11.61080
 2.2723  11.98790
 2.2713  12.12380
 2.2703  11.66380
 2.2694  11.39710
 2.2684  11.49640
 2.2674  11.65030
 2.2664  11.23060
 2.2654  11.35190
 2.2644  11.57850
 2.2634  11.92990
 2.2624  12.45120
 2.2614  12.60410
 2.2605  12.50650
 2.2595  12.07220
 2.2585  11.89000
 2.2575  11.52280
 2.2565  11.36950
 2.2555  11.42890
 2.2546  11.37480
 2.2536  11.41690
 2.2526  11.33020
 2.2516  11.27090
 2.2506  11.65730
 2.2497  12.11270
 2.2487  11.60180
 2.2477  11.54480
 2.2467  11.47160
 2.2458  11.28410
 2.2448  11.72910
 2.2438  11.53400
 2.2428  11.03580
 2.2419  10.79160
 2.2409  11.21500
 2.2399  11.26430
 2.2390  11.48070
 2.2380  11.56290
 2.2370  11.77370
 2.2361  12.18680
 2.2351  12.01100
 2.2342  12.25460
 2.2332  12.10590
 2.2322  11.72780
 2.2313  11.66840
 2.2303  11.60140
 2.2294  10.99860
 2.2284  11.05810
 2.2274  11.59110
 2.2265  12.06870
 2.2255  12.31670
 2.2246  12.54610
 2.2236  12.07210
 2.2227  11.53880
 2.2217  11.55240
 2.2208  11.34910
 2.2198  11.67670
 2.2189  11.76190
 2.2179  11.23770
 2.2170  10.88010
 2.2160  11.09130
 2.2151  11.26280
 2.2141  10.96560
 2.2132  11.45310
 2.2122  11.67310
 2.2113  11.44400
 2.2103  11.75190
 2.2094  11.63180
 2.2085  11.40060
 2.2075  12.01320
 2.2066  12.01780
 2.2056  10.89110
 2.2047  10.37310
 2.2038  10.20940
 2.2028  10.91310
 2.2019  11.84890
 2.2010  12.12750
 2.2000  12.14350
 2.1991  11.69890
 2.1982  11.11040
 2.1972  11.27020
 2.1963  11.10800
 2.1954  10.75590
 2.1944  11.11190
 2.1935  11.65310
 2.1926  12.00410
 2.1917  11.65620
 2.1907  11.28400
 2.1898  11.50430
 2.1889  11.35680
 2.1880  11.12930
 2.1870  11.78660
 2.1861  12.18740
 2.1852  11.75350
 2.1843  11.13540
 2.1833  10.71460
 2.1824  10.76690
 2.1815  11.09830
 2.1806  10.51570
 2.1797  10.37680
 2.1788  11.59720
 2.1778  11.77070
 2.1769  11.44690
 2.1760  11.24870
 2.1751  11.33020
 2.1742  11.64280
 2.1733  12.03560
 2.1724  12.13160
 2.1715  11.97140
 2.1706  12.46420
 2.1696  12.78570
 2.1687  12.34090
 2.1678  11.67670
 2.1669  11.42410
 2.1660  11.52890
 2.1651  11.97940
 2.1642  12.17980
 2.1633  11.85440
 2.1624  12.13460
 2.1615  12.57310
 2.1606  12.76870
 2.1597  12.77730
 2.1588  12.53570
 2.1579  12.21510
 2.1570  12.24880
 2.1561  12.33960
 2.1552  11.71890
 2.1543  10.89840
 2.1534  11.66790
 2.1525  12.51420
 2.1517  12.24390
 2.1507  12.00790
 2.1499  12.15470
 2.1490  12.27920
 2.1481  12.18530
 2.1472  12.01960
 2.1463  12.10740
 2.1454  11.86420
 2.1445  12.33840
 2.1436  13.23410
 2.1428  12.32350
 2.1419  11.95020
 2.1410  12.75760
 2.1401  12.16980
 2.1392  11.55110
 2.1383  12.22360
 2.1375  13.28540
 2.1366  13.49060
 2.1357  13.32600
 2.1348  12.79670
 2.1339  12.19820
 2.1331  12.36060
 2.1322  12.49870
 2.1313  12.53070
 2.1304  12.57540
 2.1296  12.02120
 2.1287  12.42260
 2.1278  12.82760
 2.1269  12.82080
 2.1261  12.84440
 2.1252  12.41740
 2.1243  12.15130
 2.1235  12.43840
 2.1226  12.32350
 2.1217  11.17680
 2.1208  11.73510
 2.1200  12.51800
 2.1191  12.37020
 2.1183  12.16690
 2.1174  12.21370
 2.1165  12.84070
 2.1157  12.87200
 2.1148  11.89520
 2.1139  11.29520
 2.1131  11.90230
 2.1122  12.59220
 2.1113  12.75530
 2.1105  13.17660
 2.1096  13.09440
 2.1088  12.88750
 2.1079  12.22410
 2.1071  12.60890
 2.1062  13.30870
 2.1054  12.62750
 2.1045  12.03840
 2.1036  12.61410
 2.1028  13.01560
 2.1019  11.99250
 2.1011  11.44130
 2.1002  11.11910
 2.0994  11.44350
 2.0985  12.00830
 2.0977  12.78360
 2.0968  13.00320
 2.0960  13.20990
 2.0951  13.17360
 2.0943  13.23960
 2.0934  13.53570
 2.0926  12.85040
 2.0918  11.45100
 2.0909  11.59920
 2.0901  11.85610
 2.0892  11.68180
 2.0884  12.01560
 2.0875  12.67270
 2.0867  13.33430
 2.0859  13.59600
 2.0850  12.30490
 2.0842  11.73780
 2.0833  12.13840
 2.0825  11.48030
 2.0817  11.85900
 2.0808  12.90860
 2.0800  13.31410
 2.0792  13.47300
 2.0783  13.16890
 2.0775  13.56530
 2.0767  14.76730
 2.0759  14.29810
 2.0750  13.38390
 2.0742  12.80370
 2.0734  12.83850
 2.0725  13.07590
 2.0717  13.08570
 2.0709  12.85380
 2.0701  11.95220
 2.0692  10.94950
 2.0684  11.14160
 2.0676  11.60030
 2.0667  11.96550
 2.0659  11.84960
 2.0651  11.81240
 2.0643  12.20950
 2.0635  12.54610
 2.0626  12.14570
 2.0618  11.53980
 2.0610  12.74630
 2.0602  14.06780
 2.0594  14.47080
 2.0585  14.27110
 2.0577  13.24780
 2.0569  13.70640
 2.0561  14.89600
 2.0553  13.82760
 2.0545  12.41710
 2.0537  12.45840
 2.0528  11.08650
 2.0520  11.54020
 2.0512  12.78030
 2.0504  11.89950
 2.0496  11.26950
 2.0488  10.95820
 2.0480  11.85750
 2.0472  11.13870
 2.0464  11.88600
 2.0456  12.84600
 2.0447  13.85670
 2.0439  14.66600
 2.0431  13.27920
 2.0423  11.62700
 2.0415  12.47250
 2.0407  14.09610
 2.0399  13.70390
 2.0391  13.32930
 2.0383  12.76410
 2.0375  12.14930
 2.0367  11.48890
 2.0359  12.29390
 2.0351  12.71670
 2.0343  12.72520
 2.0335  12.22660
 2.0327  12.77200
 2.0319  12.69420
 2.0311  11.61690
 2.0303  12.06450
 2.0295  12.54520
 2.0287  12.19060
 2.0280  11.49260
 2.0272  10.88080
 2.0264  12.71170
 2.0256  13.23860
 2.0248  13.60730
 2.0240  14.48240
 2.0232  14.44310
 2.0224  12.54770
 2.0216  11.34480
 2.0208  12.05380
 2.0200  12.62780
 2.0193  12.20720
 2.0185  11.28770
 2.0177  10.83770
 2.0169  12.56740
 2.0161  14.04150
 2.0153  13.16200
 2.0146  12.68600
 2.0138  14.04610
 2.0130  12.68360
 2.0122  11.54830
 2.0114  12.04650
 2.0107  10.95270
 2.0099  10.84350
 2.0091  12.15530
 2.0083  11.92400
 2.0075  11.69630
 2.0068  11.86560
 2.0060  12.52070
 2.0052  13.49270
 2.0044  12.48890
 2.0037  11.92180
 2.0029  13.19140
 2.0021  12.78400
 2.0013  11.35080
 2.0006  11.96510
 1.9998  12.97890
