Name: Actinolite Ca_2(Mg,Fe^2+)_5Si_8O_22(OH)_2
Type: Mineral
Class: Silicates
Subclass: Inosilicates
Particle Size: 45-125um
Sample No.: IN-4A
Owner: JPL
Wavelength range: IR
Origin: USA, California, San Bernadino County, Wrightwood
Collected by Burminco
Description: 





Measurement: Hemispherical reflectance
First Column: X
Second Column: Y
X Units:  Wavelength (micrometers)
Y Units:  Reflectance (percent)
First X Value: 15.3853
Last X Value: 2.00032
Number of X Values: 2256
Additional information: in04aa.txt
 
15.3853	2.14934
15.3397	1.96428
15.2945	1.92464
15.2495	2.20101
15.2048	2.32513
15.1603	2.23241
15.1161	2.15401
15.0722	2.32057
15.0285	2.39733
14.9851	2.23718
14.9419	2.34867
14.8989	2.81714
14.8563	3.11283
14.8138	3.18288
14.7716	3.389
14.7296	3.70801
14.6879	3.88208
14.6464	4.06161
14.6052	4.3108
14.5641	4.40894
14.5233	4.19527
14.4828	4.04098
14.4424	3.80932
14.4023	3.5101
14.3624	3.24942
14.3227	2.9661
14.2833	2.61336
14.244	2.50451
14.205	2.4802
14.1662	2.24056
14.1276	2.22388
14.0892	2.21409
14.051	2.22703
14.0131	2.37739
13.9753	2.51651
13.9377	2.5774
13.9004	2.75163
13.8632	2.81283
13.8262	2.71775
13.7895	2.69681
13.7529	2.68455
13.7165	2.75917
13.6803	2.90551
13.6443	2.98665
13.6085	3.0491
13.5729	3.02072
13.5374	3.06391
13.5022	3.31752
13.4671	3.61561
13.4322	4.04006
13.3975	4.29666
13.363	4.52159
13.3286	4.71414
13.2944	5.25299
13.2604	6.00601
13.2266	6.63828
13.193	7.10738
13.1595	7.35604
13.1262	7.32729
13.093	6.85788
13.06	5.94125
13.0272	4.95894
12.9946	3.91841
12.9621	2.99716
12.9298	2.41437
12.8976	2.20143
12.8656	2.14343
12.8337	2.18025
12.8021	2.24075
12.7705	2.29315
12.7391	2.48581
12.7079	2.73007
12.6769	2.85893
12.6459	2.87585
12.6152	2.943
12.5845	3.23471
12.5541	3.40887
12.5238	3.52592
12.4936	3.51582
12.4635	3.44767
12.4337	3.50493
12.4039	3.59526
12.3743	3.79829
12.3448	3.91704
12.3155	4.06149
12.2863	4.13275
12.2573	4.09108
12.2284	4.25999
12.1996	4.37194
12.171	4.39899
12.1425	4.42639
12.1141	4.374
12.0859	4.50693
12.0578	4.63739
12.0298	4.6201
12.0019	4.70903
11.9742	4.77397
11.9466	4.75246
11.9192	4.79683
11.8918	4.91367
11.8646	5.09914
11.8375	5.20769
11.8106	5.05049
11.7837	4.96263
11.757	5.12647
11.7304	5.22511
11.7039	5.32473
11.6776	5.38305
11.6513	5.52274
11.6252	5.58986
11.5992	5.54047
11.5733	5.64105
11.5475	5.79164
11.5219	5.81845
11.4963	5.92148
11.4709	6.02426
11.4455	6.17086
11.4203	6.39259
11.3952	6.44666
11.3702	6.40968
11.3454	6.55266
11.3206	6.67706
11.2959	6.82126
11.2714	6.89619
11.2469	6.94997
11.2226	7.08214
11.1983	7.32144
11.1742	7.55279
11.1502	7.77897
11.1263	7.94479
11.1024	8.07244
11.0787	8.20891
11.0551	8.58638
11.0316	9.16189
11.0081	9.67366
10.9848	10.04
10.9616	10.4655
10.9385	10.9611
10.9154	11.3691
10.8925	11.7704
10.8697	11.7259
10.8469	11.2993
10.8243	10.7424
10.8017	10.0267
10.7793	9.32947
10.7569	8.99062
10.7346	9.19486
10.7125	9.71915
10.6904	10.293
10.6684	11.1234
10.6465	12.177
10.6247	13.2565
10.6029	14.3371
10.5813	15.5038
10.5597	16.6076
10.5383	17.7216
10.5169	18.6685
10.4956	19.4761
10.4744	20.2003
10.4533	20.8971
10.4323	21.4599
10.4113	21.8605
10.3904	22.2789
10.3697	22.842
10.349	23.3872
10.3284	23.8646
10.3078	24.4241
10.2874	25.0006
10.267	25.5372
10.2467	26.1169
10.2265	26.8851
10.2064	27.799
10.1863	28.8347
10.1663	29.997
10.1464	31.0465
10.1266	31.9225
10.1069	32.6597
10.0872	33.2559
10.0676	33.5521
10.0481	33.6246
10.0287	33.5472
10.0093	33.3136
9.99005	32.9765
9.97084	32.44
9.95169	31.7189
9.93263	30.9221
9.91364	30.0061
9.89472	28.9976
9.87587	27.7703
9.8571	26.4284
9.83839	24.865
9.81976	22.9366
9.80119	20.8699
9.78271	18.763
9.76428	16.9553
9.74592	15.6595
9.72764	15.4041
9.70943	15.9242
9.69128	16.469
9.6732	17.1186
9.65518	17.7596
9.63724	18.0812
9.61935	17.8066
9.60155	17.0587
9.5838	16.4536
9.56611	16.297
9.5485	16.4397
9.53094	16.5153
9.51345	16.7014
9.49604	16.8473
9.47867	16.8107
9.46137	16.7103
9.44414	16.589
9.42697	16.5566
9.40986	16.825
9.39281	17.3148
9.37583	17.8213
9.35891	18.2685
9.34204	18.82
9.32524	19.5271
9.3085	20.0002
9.29182	20.0968
9.27519	20.0635
9.25863	19.9986
9.24213	19.7956
9.22568	19.5594
9.2093	19.0746
9.19297	18.4421
9.17669	17.7992
9.16048	17.1637
9.14433	16.3462
9.12823	15.4009
9.11218	14.3838
9.0962	13.405
9.08027	12.4511
9.06439	11.3633
9.04858	10.268
9.03281	9.4984
9.0171	8.9485
9.00145	8.62026
8.98585	8.43439
8.9703	8.3591
8.9548	8.47469
8.93937	8.69182
8.92398	8.84894
8.90865	8.93145
8.89337	9.14688
8.87814	9.67185
8.86296	10.4154
8.84784	11.2671
8.83277	12.1944
8.81774	12.9102
8.80277	13.4889
8.78786	13.9326
8.77298	14.3618
8.75816	14.8138
8.7434	15.0051
8.72868	15.0563
8.714	15.0119
8.69938	14.8729
8.68481	14.4654
8.67029	13.8939
8.65581	13.2915
8.64139	12.3099
8.62701	10.9351
8.61268	9.41271
8.5984	7.97693
8.58416	6.55851
8.56997	5.45185
8.55583	4.68918
8.54174	3.97257
8.52769	3.36766
8.51368	2.87089
8.49973	2.35695
8.48582	1.99627
8.47195	1.81293
8.45813	1.48281
8.44436	1.22725
8.43062	0.984867
8.41693	0.826715
8.4033	0.727392
8.3897	0.677798
8.37614	0.650937
8.36264	0.618884
8.34917	0.59905
8.33574	0.541023
8.32236	0.460438
8.30903	0.4166
8.29573	0.336167
8.28248	0.357561
8.26927	0.431014
8.2561	0.484496
8.24298	0.420036
8.2299	0.465091
8.21685	0.459364
8.20385	0.400846
8.19089	0.457825
8.17797	0.613215
8.16509	0.556336
8.15225	0.500233
8.13946	0.561115
8.1267	0.679842
8.11398	0.648588
8.10131	0.586742
8.08867	0.642763
8.07606	0.717321
8.0635	0.722332
8.05099	0.793619
8.0385	0.844673
8.02606	0.908613
8.01366	0.974512
8.00129	0.884897
7.98896	0.848633
7.97667	1.05871
7.96442	1.12992
7.9522	1.23052
7.94002	1.34366
7.92788	1.38061
7.91578	1.39961
7.90371	1.43225
7.89168	1.4368
7.87969	1.45957
7.86773	1.58838
7.85581	1.69457
7.84392	1.70164
7.83207	1.82636
7.82026	1.85435
7.80849	1.83721
7.79674	1.94919
7.78503	2.0516
7.77337	2.05503
7.76173	2.10558
7.75012	2.18461
7.73856	2.18201
7.72703	2.23829
7.71553	2.32946
7.70406	2.39344
7.69263	2.43783
7.68123	2.49315
7.66987	2.59991
7.65855	2.8427
7.64725	3.0138
7.63598	2.97243
7.62475	2.95264
7.61356	3.01603
7.60239	3.09865
7.59126	3.19394
7.58017	3.25182
7.5691	3.38956
7.55806	3.43836
7.54707	3.43967
7.5361	3.49495
7.52516	3.56235
7.51425	3.52744
7.50338	3.44284
7.49253	3.46722
7.48172	3.54175
7.47094	3.65268
7.46019	3.63678
7.44947	3.56118
7.43879	3.60506
7.42813	3.62929
7.4175	3.70088
7.4069	3.77162
7.39634	3.76568
7.3858	3.79844
7.37529	3.91879
7.36482	3.96079
7.35437	4.01362
7.34396	4.12122
7.33357	4.21463
7.32321	4.32114
7.31288	4.45252
7.30258	4.56567
7.29231	4.75809
7.28207	4.92783
7.27185	5.07795
7.26167	5.1636
7.25152	5.16467
7.24139	5.28652
7.23129	5.425
7.22122	5.5696
7.21117	5.69012
7.20116	5.84414
7.19117	5.97536
7.18121	6.07961
7.17128	6.17257
7.16137	6.28307
7.1515	6.39325
7.14164	6.49707
7.13182	6.64402
7.12203	6.84064
7.11225	6.96889
7.10251	7.02185
7.0928	7.12115
7.08311	7.21838
7.07344	7.31187
7.06381	7.43052
7.0542	7.64861
7.04461	7.82766
7.03506	7.83253
7.02552	7.92387
7.01601	8.10699
7.00653	8.29245
6.99708	8.42459
6.98765	8.5259
6.97824	8.61048
6.96886	8.80161
6.95951	9.08078
6.95018	9.07597
6.94087	9.07293
6.9316	9.15577
6.92234	9.23784
6.91311	9.4413
6.90391	9.59379
6.89473	9.60186
6.88557	9.69125
6.87644	9.84025
6.86733	10.1219
6.85824	10.1121
6.84918	9.89815
6.84015	9.92014
6.83114	10.026
6.82215	10.1231
6.81319	10.2624
6.80424	10.4613
6.79532	10.702
6.78643	10.8009
6.77756	10.6777
6.76871	10.709
6.75989	10.7379
6.75109	10.8235
6.74231	10.8765
6.73355	11.0327
6.72482	11.2208
6.71611	11.328
6.70742	11.3456
6.69875	11.3742
6.69011	11.5678
6.68149	11.7823
6.67289	11.7897
6.66431	11.774
6.65576	11.8927
6.64722	12.2848
6.63871	12.8636
6.63022	12.9567
6.62175	12.8485
6.61331	12.945
6.60488	13.157
6.59648	13.4812
6.5881	13.6626
6.57974	13.8133
6.5714	13.9482
6.56308	13.8982
6.55478	13.9411
6.54651	13.8673
6.53825	13.7605
6.53001	13.6941
6.5218	13.7518
6.51361	13.555
6.50544	13.4326
6.49729	13.7509
6.48915	13.7432
6.48104	13.3387
6.47295	13.0558
6.46488	12.7736
6.45683	12.5567
6.4488	12.4183
6.44079	12.2777
6.4328	12.1843
6.42482	12.26
6.41687	12.5195
6.40894	12.0803
6.40103	11.3949
6.39314	11.1964
6.38526	10.9934
6.37741	10.8083
6.36957	10.6757
6.36176	10.4036
6.35396	10.1663
6.34618	10.0533
6.33843	9.68271
6.33069	9.26434
6.32297	8.89484
6.31527	8.60123
6.30758	8.39266
6.29992	8.19637
6.29227	7.97265
6.28465	7.79016
6.27704	7.63142
6.26945	7.4606
6.26188	7.33826
6.25432	7.21451
6.24679	7.1351
6.23927	7.04667
6.23177	6.90121
6.22429	6.79909
6.21683	6.81115
6.20938	6.75509
6.20195	6.70722
6.19454	6.79547
6.18715	7.0054
6.17978	7.04856
6.17242	6.96563
6.16508	7.05524
6.15776	7.17237
6.15045	7.13619
6.14317	7.14337
6.1359	7.21134
6.12864	7.32078
6.12141	7.59487
6.11419	7.88117
6.10699	7.88661
6.0998	7.85532
6.09263	7.96466
6.08549	8.13574
6.07835	8.39505
6.07123	8.68324
6.06413	8.80105
6.05705	9.13279
6.04998	9.69748
6.04293	9.68399
6.0359	9.55348
6.02888	9.57226
6.02187	9.6527
6.01489	9.81006
6.00792	9.71308
6.00096	9.55183
5.99403	9.61486
5.98711	9.54448
5.9802	9.24184
5.97331	9.0829
5.96644	8.97445
5.95958	8.6189
5.95274	8.35977
5.94591	8.36912
5.9391	8.49916
5.9323	8.34787
5.92552	8.03835
5.91876	7.92933
5.91201	7.88662
5.90528	7.96647
5.89856	8.33537
5.89186	8.50621
5.88517	8.67406
5.8785	8.7651
5.87184	8.70105
5.8652	8.93883
5.85857	9.062
5.85196	9.14975
5.84536	9.24743
5.83878	9.3617
5.83221	9.47989
5.82566	9.70023
5.81912	9.86032
5.81259	9.85244
5.80608	9.87991
5.79959	9.92343
5.79311	9.98064
5.78665	10.0779
5.78019	10.1633
5.77376	10.3733
5.76734	10.7337
5.76093	10.7369
5.75453	10.7081
5.74815	10.8369
5.74179	10.9011
5.73543	10.9962
5.7291	11.0308
5.72277	11.1741
5.71646	11.3166
5.71017	11.3118
5.70389	11.0641
5.69762	10.9398
5.69136	10.968
5.68513	10.941
5.6789	11.0483
5.67268	11.0302
5.66648	10.8869
5.6603	11.0106
5.65413	11.1716
5.64797	11.2414
5.64182	11.2275
5.63569	11.0655
5.62957	11.0284
5.62347	11.1384
5.61737	11.2991
5.61129	11.4065
5.60522	11.5715
5.59917	11.6839
5.59313	11.6793
5.5871	11.8408
5.58109	12.1777
5.57509	12.2343
5.5691	12.2583
5.56312	12.4292
5.55716	12.5601
5.55121	12.6716
5.54528	12.7386
5.53935	12.8185
5.53344	12.9936
5.52754	13.1213
5.52166	13.1538
5.51578	13.2256
5.50992	13.2592
5.50407	13.262
5.49823	13.1645
5.49241	13.0558
5.4866	12.8795
5.4808	12.8279
5.47501	12.7243
5.46923	12.714
5.46347	12.6881
5.45772	12.6576
5.45198	12.7566
5.44625	12.9557
5.44054	13.1931
5.43484	13.386
5.42914	13.5926
5.42347	13.9234
5.4178	14.0319
5.41214	14.0055
5.4065	14.0685
5.40087	14.1105
5.39525	14.1502
5.38964	14.1889
5.38404	14.2051
5.37846	14.1683
5.37288	14.1754
5.36732	14.0979
5.36177	13.9219
5.35623	13.9169
5.35071	13.9518
5.34519	13.7306
5.33968	13.6059
5.33419	13.6767
5.32871	13.7359
5.32324	13.8785
5.31778	14.0882
5.31233	14.2961
5.30689	14.5057
5.30147	14.7459
5.29605	15.0068
5.29065	15.1918
5.28525	15.2343
5.27987	15.3101
5.2745	15.3433
5.26914	15.403
5.26379	15.4518
5.25845	15.5049
5.25312	15.6133
5.24781	15.8529
5.2425	16.2025
5.23721	16.6136
5.23192	16.9223
5.22665	17.2381
5.22138	17.6438
5.21613	18.094
5.21089	18.35
5.20566	18.3809
5.20044	18.3332
5.19522	18.1663
5.19002	17.9762
5.18483	17.7832
5.17965	17.5565
5.17448	17.2726
5.16933	16.9414
5.16418	16.6471
5.15904	16.419
5.15391	16.212
5.14879	16.0059
5.14368	15.7862
5.13859	15.6468
5.1335	15.5729
5.12842	15.5349
5.12335	15.6311
5.1183	15.7445
5.11325	15.786
5.10821	15.8878
5.10318	16.054
5.09817	16.1968
5.09316	16.2357
5.08816	16.3153
5.08317	16.4202
5.07819	16.4113
5.07322	16.5236
5.06826	16.6894
5.06331	16.774
5.05837	16.9403
5.05344	17.0106
5.04852	17.0709
5.04361	17.1803
5.03871	17.346
5.03382	17.5383
5.02894	17.789
5.02406	18.0332
5.0192	18.2444
5.01435	18.4289
5.0095	18.5857
5.00467	18.785
4.99984	19.0368
4.99502	19.2517
4.99021	19.4119
4.98542	19.5272
4.98063	19.7564
4.97585	20.0533
4.97108	20.2699
4.96632	20.4026
4.96156	20.5687
4.95682	20.7902
4.95209	20.8782
4.94736	21.0031
4.94264	21.2757
4.93794	21.5054
4.93324	21.6567
4.92855	21.8841
4.92387	22.1971
4.9192	22.4699
4.91453	22.6089
4.90988	22.7596
4.90524	23.0336
4.9006	23.2861
4.89597	23.4004
4.89135	23.4709
4.88674	23.567
4.88214	23.6817
4.87755	23.7675
4.87296	23.8056
4.86839	23.9083
4.86382	24.0578
4.85926	24.1438
4.85471	24.1776
4.85017	24.1902
4.84564	24.2077
4.84111	24.199
4.8366	24.2157
4.83209	24.1639
4.82759	24.0813
4.8231	24.1013
4.81862	24.1746
4.81415	24.255
4.80968	24.3093
4.80522	24.3823
4.80077	24.5549
4.79633	24.8027
4.7919	25.0365
4.78747	25.3521
4.78306	25.7223
4.77865	26.1292
4.77425	26.5882
4.76986	27.0429
4.76547	27.4315
4.7611	27.8354
4.75673	28.2831
4.75237	28.6884
4.74802	29.077
4.74367	29.4785
4.73934	29.8195
4.73501	30.161
4.73069	30.517
4.72638	30.7982
4.72207	30.994
4.71777	31.2325
4.71348	31.4823
4.7092	31.7142
4.70493	31.9121
4.70066	32.2009
4.69641	32.454
4.69216	32.7412
4.68791	33.1258
4.68368	33.5118
4.67945	33.9426
4.67523	34.3276
4.67102	34.6483
4.66682	34.9594
4.66262	35.3301
4.65843	35.7347
4.65425	36.2179
4.65007	36.667
4.64591	37.0588
4.64175	37.3921
4.6376	37.7963
4.63345	38.2696
4.62932	38.718
4.62519	39.1927
4.62106	39.6658
4.61695	40.0354
4.61284	40.4057
4.60874	40.733
4.60465	41.1091
4.60056	41.5003
4.59648	41.8402
4.59241	42.129
4.58835	42.4618
4.58429	42.7657
4.58024	43.1501
4.5762	43.5619
4.57216	43.9587
4.56814	44.3715
4.56411	44.7783
4.5601	45.2074
4.55609	45.708
4.55209	46.2204
4.5481	46.6506
4.54411	46.9789
4.54013	47.2131
4.53616	47.4139
4.5322	47.7007
4.52824	47.9673
4.52429	48.3228
4.52034	48.7141
4.51641	48.9971
4.51247	49.305
4.50855	49.5866
4.50463	49.7694
4.50072	49.9909
4.49682	50.2342
4.49292	50.5473
4.48903	50.8487
4.48515	51.1281
4.48127	51.3547
4.4774	51.5271
4.47354	51.7377
4.46968	51.9426
4.46584	52.1413
4.46199	52.3918
4.45815	52.5595
4.45432	52.6887
4.4505	52.799
4.44668	52.9588
4.44287	53.1231
4.43907	53.2895
4.43527	53.4335
4.43148	53.6055
4.4277	53.7799
4.42392	53.8631
4.42015	53.9242
4.41638	53.9963
4.41262	54.1244
4.40887	54.2655
4.40513	54.3258
4.40139	54.3948
4.39765	54.5465
4.39393	54.6829
4.39021	54.7365
4.38649	54.7433
4.38278	54.8018
4.37908	54.9621
4.37539	55.0152
4.3717	55.0561
4.36801	55.166
4.36434	55.2657
4.36067	55.3649
4.357	55.4001
4.35335	55.353
4.34969	55.3272
4.34605	55.3459
4.34241	55.3528
4.33877	55.3823
4.33514	55.3266
4.33152	55.3652
4.32791	55.4517
4.3243	55.3832
4.32069	55.2265
4.3171	55.1396
4.31351	55.0586
4.30992	54.9447
4.30634	54.868
4.30277	54.796
4.2992	54.7584
4.29564	54.6871
4.29208	54.529
4.28853	54.3984
4.28499	54.4352
4.28145	54.4579
4.27792	54.4519
4.27439	54.5293
4.27087	54.7283
4.26735	54.9915
4.26384	55.3372
4.26034	55.6837
4.25684	55.8814
4.25335	55.7006
4.24986	55.3003
4.24638	54.8661
4.24291	54.5513
4.23944	54.3919
4.23598	54.3403
4.23252	54.3528
4.22906	54.5245
4.22562	54.7322
4.22218	54.9712
4.21874	55.2787
4.21531	55.6545
4.21189	56.012
4.20847	56.3648
4.20506	56.6946
4.20165	56.9393
4.19825	57.0477
4.19485	57.1624
4.19146	57.2566
4.18807	57.2711
4.18469	57.2222
4.18132	57.2358
4.17795	57.2792
4.17458	57.3184
4.17123	57.3756
4.16787	57.4324
4.16453	57.5052
4.16118	57.5707
4.15785	57.6085
4.15451	57.5808
4.15119	57.5775
4.14787	57.6311
4.14455	57.6621
4.14124	57.6774
4.13794	57.696
4.13464	57.7387
4.13134	57.8383
4.12805	57.9163
4.12477	57.9007
4.12149	57.963
4.11822	58.0193
4.11495	58.0625
4.11168	58.0734
4.10843	58.1497
4.10517	58.2497
4.10192	58.2924
4.09868	58.3452
4.09545	58.3907
4.09221	58.4783
4.08899	58.5396
4.08576	58.4889
4.08255	58.5257
4.07933	58.6208
4.07613	58.6652
4.07292	58.7598
4.06973	58.7723
4.06654	58.7694
4.06335	58.8451
4.06017	58.8434
4.05699	58.773
4.05382	58.7688
4.05065	58.8381
4.04749	58.8994
4.04433	58.911
4.04118	58.8655
4.03803	58.7873
4.03489	58.7632
4.03175	58.7839
4.02862	58.7952
4.02549	58.7767
4.02237	58.7705
4.01925	58.7802
4.01614	58.7426
4.01303	58.7468
4.00993	58.6962
4.00683	58.6423
4.00373	58.621
4.00064	58.6092
3.99756	58.5525
3.99448	58.6097
3.9914	58.6601
3.98833	58.6177
3.98527	58.5806
3.98221	58.616
3.97915	58.6903
3.9761	58.7157
3.97305	58.7634
3.97001	58.8021
3.96697	58.866
3.96394	58.9287
3.96091	59.0036
3.95789	59.0188
3.95487	59.0555
3.95186	59.1907
3.94885	59.2441
3.94584	59.2439
3.94284	59.2983
3.93984	59.455
3.93685	59.5687
3.93386	59.6437
3.93088	59.6958
3.9279	59.6915
3.92493	59.7231
3.92196	59.7383
3.919	59.7436
3.91604	59.8516
3.91308	59.9159
3.91013	59.9463
3.90718	59.9848
3.90424	60.0531
3.9013	60.1241
3.89837	60.148
3.89544	60.1966
3.89252	60.237
3.8896	60.2022
3.88668	60.2277
3.88377	60.2869
3.88086	60.352
3.87796	60.3538
3.87506	60.4005
3.87217	60.4514
3.86928	60.4434
3.86639	60.4058
3.86351	60.4069
3.86064	60.4764
3.85776	60.512
3.8549	60.4908
3.85203	60.5162
3.84917	60.526
3.84631	60.5081
3.84346	60.5422
3.84062	60.5655
3.83777	60.5467
3.83494	60.6094
3.8321	60.679
3.82927	60.6779
3.82644	60.6923
3.82362	60.7097
3.82081	60.7215
3.81799	60.8009
3.81518	60.8225
3.81238	60.8379
3.80958	60.9239
3.80678	61.0391
3.80399	61.023
3.8012	61.0497
3.79841	61.1395
3.79563	61.2052
3.79286	61.2899
3.79008	61.3019
3.78731	61.2835
3.78455	61.3228
3.78179	61.3826
3.77903	61.3946
3.77628	61.3841
3.77353	61.3809
3.77079	61.3767
3.76805	61.3483
3.76531	61.366
3.76258	61.4303
3.75985	61.477
3.75713	61.4688
3.7544	61.4437
3.75169	61.4126
3.74898	61.4312
3.74627	61.4414
3.74356	61.3696
3.74086	61.4068
3.73816	61.4088
3.73547	61.3991
3.73278	61.4362
3.7301	61.356
3.72741	61.2729
3.72474	61.3024
3.72206	61.3475
3.71939	61.2844
3.71673	61.2753
3.71406	61.3484
3.71141	61.3375
3.70875	61.19
3.7061	60.9056
3.70345	60.7941
3.70081	61.0074
3.69817	61.1148
3.69553	60.8359
3.6929	60.4099
3.69027	60.3996
3.68765	60.8377
3.68503	61.0125
3.68241	61.0797
3.6798	61.126
3.67719	61.1023
3.67458	61.082
3.67198	61.0537
3.66938	60.9325
3.66678	60.8643
3.66419	60.8697
3.66161	60.9025
3.65902	60.9416
3.65644	60.9408
3.65387	60.8629
3.65129	60.8347
3.64872	60.8382
3.64616	60.8051
3.64359	60.7467
3.64103	60.7466
3.63848	60.7741
3.63593	60.726
3.63338	60.6827
3.63084	60.6908
3.6283	60.6986
3.62576	60.6746
3.62322	60.6593
3.62069	60.6416
3.61817	60.6371
3.61564	60.6057
3.61312	60.5441
3.61061	60.5209
3.6081	60.4552
3.60559	60.4359
3.60308	60.4288
3.60058	60.4058
3.59808	60.3088
3.59558	60.2282
3.59309	60.2268
3.59061	60.2665
3.58812	60.2011
3.58564	60.1175
3.58316	60.0173
3.58069	59.9311
3.57822	59.9044
3.57575	59.8399
3.57328	59.7477
3.57082	59.698
3.56836	59.6974
3.56591	59.6438
3.56346	59.5566
3.56101	59.5262
3.55857	59.5057
3.55613	59.474
3.55369	59.4299
3.55126	59.3268
3.54883	59.2252
3.5464	59.1496
3.54397	59.0857
3.54155	59.0385
3.53914	58.933
3.53672	58.7867
3.53431	58.6999
3.5319	58.682
3.5295	58.5893
3.5271	58.4329
3.5247	58.2638
3.52231	58.1862
3.51991	58.1262
3.51753	57.9741
3.51514	57.8565
3.51276	57.8066
3.51038	57.6483
3.50801	57.433
3.50563	57.3608
3.50327	57.2552
3.5009	57.1231
3.49854	57.0478
3.49618	56.9921
3.49382	56.93
3.49147	56.8734
3.48912	56.8325
3.48677	56.7581
3.48443	56.7063
3.48209	56.6366
3.47975	56.5193
3.47742	56.3951
3.47509	56.3509
3.47276	56.325
3.47044	56.2893
3.46812	56.3195
3.4658	56.3857
3.46348	56.2891
3.46117	56.2144
3.45886	56.1379
3.45656	55.9979
3.45425	55.8794
3.45195	55.8474
3.44966	55.7689
3.44736	55.7014
3.44507	55.6216
3.44279	55.4751
3.4405	55.3076
3.43822	55.2267
3.43594	55.117
3.43367	54.9631
3.43139	54.7742
3.42912	54.5708
3.42686	54.368
3.42459	54.0873
3.42233	53.8915
3.42007	53.7606
3.41782	53.5574
3.41557	53.3142
3.41332	52.9977
3.41108	52.7983
3.40883	52.6438
3.40659	52.4556
3.40435	52.2752
3.40212	52.0648
3.39989	51.911
3.39766	51.7894
3.39544	51.5452
3.39322	51.322
3.391	51.128
3.38878	50.8974
3.38657	50.6589
3.38436	50.5272
3.38215	50.3853
3.37994	50.1498
3.37774	49.8225
3.37554	49.5973
3.37335	49.5089
3.37115	49.4337
3.36896	49.3163
3.36678	49.0899
3.36459	48.8166
3.36241	48.6188
3.36023	48.385
3.35805	48.1711
3.35588	47.9236
3.35371	47.696
3.35154	47.4269
3.34938	47.1367
3.34721	47.0293
3.34505	47.0926
3.3429	47.157
3.34074	47.3399
3.33859	47.4626
3.33644	47.6004
3.3343	47.8709
3.33215	48.1881
3.33001	48.4078
3.32788	48.5451
3.32574	48.5944
3.32361	48.4876
3.32148	48.4567
3.31936	48.5608
3.31723	48.6372
3.31511	48.6368
3.31299	48.6602
3.31088	48.7504
3.30876	48.7554
3.30665	48.8198
3.30455	49.0429
3.30244	49.3081
3.30034	49.502
3.29824	49.7393
3.29614	50.0727
3.29405	50.3056
3.29196	50.456
3.28987	50.6589
3.28778	50.999
3.2857	51.3455
3.28362	51.7345
3.28154	52.073
3.27946	52.3076
3.27739	52.475
3.27532	52.4863
3.27325	52.5647
3.27119	52.6424
3.26913	52.7263
3.26707	52.6697
3.26501	52.7047
3.26295	52.7048
3.2609	52.6389
3.25885	52.6955
3.2568	52.7316
3.25476	52.693
3.25272	52.6209
3.25068	52.5031
3.24864	52.4474
3.24661	52.4097
3.24458	52.3213
3.24255	52.2815
3.24052	52.2508
3.2385	52.265
3.23648	52.2191
3.23446	52.0584
3.23244	51.9966
3.23043	51.9859
3.22841	51.8514
3.2264	51.7293
3.2244	51.6443
3.22239	51.5452
3.22039	51.4336
3.21839	51.3848
3.2164	51.2896
3.2144	51.126
3.21241	50.966
3.21042	50.8875
3.20844	50.8627
3.20645	50.6906
3.20447	50.3395
3.20249	50.2164
3.20051	50.097
3.19854	49.8689
3.19657	49.6651
3.1946	49.6005
3.19263	49.4031
3.19067	49.19
3.1887	48.9783
3.18674	48.6147
3.18479	48.3022
3.18283	48.131
3.18088	47.9931
3.17893	47.9104
3.17698	47.7563
3.17504	47.6599
3.17309	47.6588
3.17115	47.5646
3.16921	47.4715
3.16728	47.4834
3.16534	47.6819
3.16341	47.842
3.16148	47.9172
3.15956	48.0932
3.15763	48.2998
3.15571	48.3762
3.15379	48.4344
3.15187	48.3886
3.14996	48.4431
3.14805	48.6599
3.14614	48.8081
3.14423	48.8329
3.14232	48.8076
3.14042	48.8284
3.13852	48.7663
3.13662	48.6418
3.13472	48.6343
3.13283	48.585
3.13094	48.4934
3.12905	48.4834
3.12716	48.502
3.12528	48.5022
3.12339	48.4429
3.12151	48.2623
3.11964	48.1137
3.11776	47.955
3.11589	47.8752
3.11401	47.7831
3.11214	47.8446
3.11028	47.938
3.10841	47.7942
3.10655	47.5845
3.10469	47.5432
3.10283	47.6145
3.10098	47.6343
3.09912	47.5584
3.09727	47.4294
3.09542	47.2578
3.09358	47.2159
3.09173	47.1728
3.08989	47.0102
3.08805	46.9027
3.08621	46.9
3.08437	46.8277
3.08254	46.6439
3.08071	46.554
3.07888	46.4598
3.07705	46.2781
3.07523	46.2352
3.0734	46.2286
3.07158	46.0156
3.06977	45.8965
3.06795	45.924
3.06613	45.9131
3.06432	45.7705
3.06251	45.6655
3.0607	45.5676
3.0589	45.4327
3.0571	45.2849
3.05529	45.2341
3.05349	45.1434
3.0517	44.9846
3.0499	44.8149
3.04811	44.6736
3.04632	44.6357
3.04453	44.6557
3.04274	44.511
3.04096	44.3562
3.03918	44.1813
3.0374	44.0711
3.03562	44.0435
3.03384	43.9631
3.03207	43.8913
3.03029	43.8855
3.02852	43.6539
3.02676	43.4281
3.02499	43.4044
3.02323	43.3529
3.02146	43.198
3.0197	43.0118
3.01795	42.9069
3.01619	42.9846
3.01444	42.8936
3.01269	42.6918
3.01094	42.6369
3.00919	42.5248
3.00744	42.2515
3.0057	42.1316
3.00396	42.0988
3.00222	41.9584
3.00048	41.7224
2.99875	41.5485
2.99701	41.4848
2.99528	41.3369
2.99355	41.1318
2.99183	40.9685
2.9901	40.8381
2.98838	40.7197
2.98666	40.5795
2.98494	40.4306
2.98322	40.3354
2.9815	40.2538
2.97979	40.2244
2.97808	40.1288
2.97637	40.0857
2.97466	39.9923
2.97295	39.916
2.97125	39.9209
2.96955	39.9129
2.96785	39.9462
2.96615	40.1594
2.96446	40.4159
2.96276	40.4398
2.96107	40.3558
2.95938	40.3849
2.95769	40.6083
2.95601	40.7313
2.95432	40.6877
2.95264	40.6907
2.95096	40.863
2.94928	41.0631
2.9476	41.2521
2.94593	41.2911
2.94425	41.2277
2.94258	41.1441
2.94092	41.019
2.93925	40.9738
2.93758	40.9823
2.93592	40.9653
2.93426	40.7931
2.9326	40.6834
2.93094	40.5956
2.92928	40.3194
2.92763	40.2027
2.92598	40.2518
2.92433	40.207
2.92268	40.0824
2.92103	39.8729
2.91939	39.801
2.91775	39.6954
2.9161	39.4488
2.91447	39.285
2.91283	39.2814
2.91119	39.2342
2.90956	39.0864
2.90793	38.9714
2.9063	38.8932
2.90467	38.7883
2.90304	38.747
2.90142	38.7915
2.89979	38.7514
2.89817	38.6206
2.89656	38.5121
2.89494	38.5437
2.89332	38.7129
2.89171	38.8891
2.8901	39.0097
2.88849	39.0401
2.88688	39.0231
2.88527	39.1315
2.88367	39.2259
2.88206	39.1711
2.88046	39.1777
2.87886	39.2129
2.87727	39.4089
2.87567	39.5387
2.87408	39.7186
2.87248	39.9611
2.87089	40.222
2.8693	40.5309
2.86772	40.7174
2.86613	40.8227
2.86455	41.0403
2.86297	41.34
2.86139	41.5745
2.85981	41.721
2.85823	41.9643
2.85666	42.1325
2.85508	42.2986
2.85351	42.4426
2.85194	42.4913
2.85038	42.592
2.84881	42.6996
2.84724	42.8357
2.84568	42.9598
2.84412	43.0821
2.84256	42.9753
2.841	42.9735
2.83945	43.2067
2.83789	43.2808
2.83634	43.2701
2.83479	43.3118
2.83324	43.2489
2.83169	43.1613
2.83015	43.1144
2.82861	43.1634
2.82706	43.1339
2.82552	43.0915
2.82398	43.1088
2.82245	43.0784
2.82091	43.0388
2.81938	43.0964
2.81784	43.1047
2.81631	43.1627
2.81479	43.2318
2.81326	43.2087
2.81173	43.1397
2.81021	43.1313
2.80869	43.2182
2.80716	43.3521
2.80565	43.6991
2.80413	43.9346
2.80261	43.6987
2.8011	43.405
2.79959	43.2921
2.79808	43.1849
2.79657	42.9304
2.79506	42.6503
2.79355	42.2679
2.79205	41.8372
2.79055	41.2505
2.78904	40.6871
2.78754	40.1638
2.78605	39.1529
2.78455	38.1171
2.78306	37.4552
2.78156	36.5781
2.78007	35.4831
2.77858	34.1773
2.77709	32.8241
2.77561	31.3355
2.77412	29.7286
2.77264	28.5205
2.77116	27.9312
2.76968	27.1291
2.7682	26.3783
2.76672	25.7163
2.76524	24.8622
2.76377	23.9765
2.7623	22.6597
2.76083	20.8471
2.75936	19.6825
2.75789	19.5316
2.75642	20.0277
2.75496	19.9821
2.7535	19.0918
2.75203	17.98
2.75057	16.8134
2.74912	15.823
2.74766	14.6086
2.7462	13.1331
2.74475	12.1739
2.7433	12.3352
2.74185	13.2697
2.7404	13.9592
2.73895	13.323
2.7375	11.8465
2.73606	10.7123
2.73462	9.68486
2.73318	8.84118
2.73174	8.68771
2.7303	9.66208
2.72886	11.3998
2.72742	11.4366
2.72599	10.2547
2.72456	9.32223
2.72313	8.59454
2.7217	8.41975
2.72027	10.0447
2.71884	14.3861
2.71742	20.5336
2.71599	26.1872
2.71457	29.6864
2.71315	31.3736
2.71173	32.8925
2.71032	33.7687
2.7089	33.8001
2.70748	33.7484
2.70607	33.7654
2.70466	33.7761
2.70325	33.9553
2.70184	34.2961
2.70043	34.3466
2.69903	34.336
2.69762	34.6849
2.69622	35.2422
2.69482	35.797
2.69342	35.9693
2.69202	35.9115
2.69062	36.5029
2.68923	37.5617
2.68783	38.8802
2.68644	40.3096
2.68505	41.6579
2.68366	43.2004
2.68227	44.8509
2.68089	46.8125
2.6795	49.2155
2.67812	51.0695
2.67673	52.6371
2.67535	53.5753
2.67397	54.246
2.6726	55.2484
2.67122	57.1756
2.66984	57.876
2.66847	57.3668
2.6671	58.1273
2.66572	58.4167
2.66435	57.8048
2.66299	57.0118
2.66162	56.9717
2.66025	56.9721
2.65889	56.8009
2.65753	56.4879
2.65616	56.6696
2.65481	56.5907
2.65345	56.5465
2.65209	56.5209
2.65073	56.1561
2.64938	55.9064
2.64803	55.8325
2.64667	55.8978
2.64532	55.9017
2.64397	55.5633
2.64263	55.3847
2.64128	55.2475
2.63994	55.1506
2.63859	55.041
2.63725	54.977
2.63591	55.0502
2.63457	55.3697
2.63323	55.4134
2.6319	55.6058
2.63056	56.124
2.62923	55.5276
2.62789	55.2075
2.62656	55.607
2.62523	55.0168
2.6239	54.6671
2.62258	54.7064
2.62125	55.2936
2.61993	55.4876
2.6186	55.1583
2.61728	55.5158
2.61596	55.2059
2.61464	54.6293
2.61332	54.6425
2.61201	54.4013
2.61069	54.4097
2.60938	54.6127
2.60807	54.5652
2.60675	54.678
2.60544	54.8563
2.60414	54.4762
2.60283	54.1266
2.60152	53.954
2.60022	53.8041
2.59891	53.8077
2.59761	54.0626
2.59631	54.8459
2.59501	55.8305
2.59371	54.8541
2.59242	53.6911
2.59112	53.4645
2.58983	53.4821
2.58853	53.5995
2.58724	53.6354
2.58595	53.3114
2.58466	53.5743
2.58338	53.6333
2.58209	53.1353
2.5808	53.0646
2.57952	52.7365
2.57824	52.7055
2.57695	52.889
2.57567	52.6178
2.5744	52.6138
2.57312	52.6092
2.57184	52.0243
2.57057	51.9739
2.56929	51.9738
2.56802	51.6466
2.56675	51.5237
2.56548	51.7791
2.56421	52.1294
2.56294	52.2078
2.56168	52.2036
2.56041	51.9718
2.55915	51.6408
2.55789	51.518
2.55662	51.5066
2.55536	51.6002
2.5541	51.8848
2.55285	52.201
2.55159	52.3366
2.55034	52.3567
2.54908	52.3624
2.54783	52.4343
2.54658	52.3376
2.54533	52.3427
2.54408	52.4469
2.54283	52.5174
2.54159	52.4437
2.54034	52.3854
2.5391	52.2103
2.53785	52.0905
2.53661	52.1743
2.53537	52.0605
2.53413	51.8691
2.53289	51.8594
2.53166	51.8919
2.53042	51.9053
2.52919	51.948
2.52795	51.9572
2.52672	51.7977
2.52549	51.688
2.52426	51.5715
2.52303	51.3972
2.52181	51.1403
2.52058	51.0147
2.51936	50.9756
2.51813	50.6098
2.51691	50.3178
2.51569	50.2813
2.51447	50.282
2.51325	50.2738
2.51203	50.229
2.51082	50.267
2.5096	50.2933
2.50839	50.34
2.50717	50.3369
2.50596	50.2188
2.50475	50.1082
2.50354	50.0664
2.50233	50.0455
2.50113	49.9439
2.49992	49.6851
2.49872	49.6276
2.49751	49.7232
2.49631	49.7067
2.49511	49.6062
2.49391	49.5709
2.49271	49.4891
2.49151	49.4789
2.49031	49.5841
2.48912	49.4824
2.48792	49.4706
2.48673	49.5346
2.48554	49.494
2.48435	49.437
2.48316	49.2428
2.48197	49.1074
2.48078	49.0671
2.4796	48.9378
2.47841	48.9609
2.47723	49.0005
2.47604	49.0096
2.47486	49.0871
2.47368	49.2019
2.4725	49.1166
2.47132	48.9886
2.47014	48.9682
2.46897	48.9694
2.46779	48.9265
2.46662	48.8596
2.46545	48.7827
2.46427	48.6847
2.4631	48.6568
2.46193	48.6599
2.46077	48.7296
2.4596	48.8042
2.45843	48.895
2.45727	49.0146
2.4561	49.2065
2.45494	49.4535
2.45378	49.6445
2.45262	49.8738
2.45146	49.9402
2.4503	49.8081
2.44914	49.8053
2.44799	49.8012
2.44683	49.7541
2.44568	49.8159
2.44452	49.8833
2.44337	49.7303
2.44222	49.6739
2.44107	49.8181
2.43992	49.9391
2.43877	50.2479
2.43763	50.7048
2.43648	51.088
2.43534	51.3283
2.43419	51.2568
2.43305	51.1801
2.43191	51.1234
2.43077	51.141
2.42963	51.1521
2.42849	51.0246
2.42736	50.9902
2.42622	50.9436
2.42509	50.8226
2.42395	50.6402
2.42282	50.4403
2.42169	50.2212
2.42056	49.9901
2.41943	49.7396
2.4183	49.4012
2.41717	49.3704
2.41605	49.509
2.41492	49.5834
2.4138	49.6095
2.41267	49.6765
2.41155	49.688
2.41043	49.5429
2.40931	49.3253
2.40819	49.0843
2.40707	48.9627
2.40595	48.6612
2.40484	48.1996
2.40372	47.7997
2.40261	47.5383
2.4015	47.2159
2.40039	46.5992
2.39928	45.7838
2.39817	44.8766
2.39706	44.0141
2.39595	43.2948
2.39484	42.7898
2.39374	42.5174
2.39263	42.2341
2.39153	41.808
2.39043	41.4409
2.38932	41.0571
2.38822	40.7164
2.38712	40.5158
2.38603	40.4939
2.38493	40.6859
2.38383	41.2697
2.38274	41.9514
2.38164	42.6492
2.38055	43.3186
2.37946	43.902
2.37836	44.5653
2.37727	45.4423
2.37618	46.2431
2.3751	46.8188
2.37401	47.5573
2.37292	48.2766
2.37184	48.7115
2.37075	49.1644
2.36967	49.5872
2.36859	49.856
2.3675	50.0794
2.36642	50.474
2.36534	50.8884
2.36427	51.2116
2.36319	51.4833
2.36211	51.7486
2.36104	51.8697
2.35996	51.9303
2.35889	52.0228
2.35781	52.0755
2.35674	52.133
2.35567	52.1097
2.3546	52.2344
2.35353	52.344
2.35247	52.3041
2.3514	52.1696
2.35033	52.2103
2.34927	52.4435
2.3482	52.4655
2.34714	52.3039
2.34608	52.2697
2.34502	52.1924
2.34396	51.8266
2.3429	51.4698
2.34184	51.3144
2.34078	50.9883
2.33973	50.4516
2.33867	50.0633
2.33762	49.8843
2.33656	49.4153
2.33551	48.6185
2.33446	47.8235
2.33341	47.1013
2.33236	46.0573
2.33131	44.976
2.33026	44.208
2.32922	43.4885
2.32817	42.6916
2.32712	41.6769
2.32608	40.5311
2.32504	39.4049
2.324	38.3793
2.32295	37.6185
2.32191	36.9503
2.32087	36.758
2.31984	36.8758
2.3188	36.8058
2.31776	36.6675
2.31673	36.5543
2.31569	36.5984
2.31466	36.6135
2.31362	36.7489
2.31259	36.998
2.31156	37.3357
2.31053	37.9497
2.3095	38.3624
2.30847	38.4419
2.30745	38.5601
2.30642	38.7059
2.3054	38.9218
2.30437	39.1383
2.30335	39.0523
2.30232	38.8974
2.3013	38.5964
2.30028	38.0181
2.29926	37.7327
2.29824	38.0847
2.29722	38.6983
2.29621	39.2386
2.29519	39.87
2.29417	40.7708
2.29316	41.8603
2.29215	43.0369
2.29113	44.1156
2.29012	45.0902
2.28911	45.9547
2.2881	46.4567
2.28709	46.8598
2.28608	47.1667
2.28507	47.345
2.28407	47.7373
2.28306	48.1263
2.28206	48.4469
2.28105	48.8594
2.28005	49.4026
2.27905	49.9313
2.27805	50.4173
2.27705	50.8738
2.27605	51.3535
2.27505	51.8577
2.27405	52.2161
2.27305	52.6146
2.27206	53.1538
2.27106	53.4671
2.27007	53.8863
2.26907	54.2575
2.26808	54.505
2.26709	54.944
2.2661	55.4311
2.26511	55.8245
2.26412	56.2456
2.26313	56.6462
2.26214	56.8054
2.26116	56.891
2.26017	57.0459
2.25919	57.0506
2.2582	57.0507
2.25722	57.0036
2.25624	56.9101
2.25526	56.9076
2.25428	56.8651
2.2533	56.7728
2.25232	56.8564
2.25134	56.8791
2.25036	56.7235
2.24939	56.5659
2.24841	56.5741
2.24744	56.7201
2.24646	56.9865
2.24549	57.2486
2.24452	57.5572
2.24355	58.0217
2.24257	58.2076
2.24161	58.2631
2.24064	58.5023
2.23967	59.0084
2.2387	59.4901
2.23774	59.7784
2.23677	60.0994
2.23581	60.4542
2.23484	60.7554
2.23388	61.1216
2.23292	61.311
2.23196	61.4813
2.231	61.6425
2.23004	61.8172
2.22908	61.9146
2.22812	61.8451
2.22716	61.9434
2.22621	62.0431
2.22525	62.0689
2.2243	62.157
2.22334	62.2828
2.22239	62.4074
2.22144	62.4644
2.22049	62.42
2.21953	62.5366
2.21859	62.7411
2.21764	62.7769
2.21669	62.7303
2.21574	62.7875
2.21479	62.8407
2.21385	62.8276
2.2129	62.7889
2.21196	62.7468
2.21102	62.8019
2.21007	62.8328
2.20913	62.9389
2.20819	63.122
2.20725	63.2426
2.20631	63.195
2.20537	63.2853
2.20444	63.3555
2.2035	63.2563
2.20256	63.2267
2.20163	63.2902
2.20069	63.3465
2.19976	63.4753
2.19883	63.6077
2.19789	63.5283
2.19696	63.5321
2.19603	63.6775
2.1951	63.6984
2.19417	63.7499
2.19325	63.7608
2.19232	63.6544
2.19139	63.6874
2.19047	63.8301
2.18954	63.931
2.18862	63.9356
2.18769	63.9102
2.18677	63.9735
2.18585	64.0813
2.18493	64.1172
2.18401	63.9622
2.18309	63.8641
2.18217	64.0616
2.18125	64.2343
2.18033	64.1806
2.17942	64.0851
2.1785	64.0748
2.17759	64.0349
2.17667	64.2729
2.17576	64.4125
2.17485	64.3943
2.17393	64.3815
2.17302	64.293
2.17211	64.3301
2.1712	64.4207
2.17029	64.4645
2.16939	64.4503
2.16848	64.4802
2.16757	64.5133
2.16667	64.4378
2.16576	64.5325
2.16486	64.5754
2.16395	64.5827
2.16305	64.6766
2.16215	64.7549
2.16125	64.6628
2.16035	64.4142
2.15945	64.4363
2.15855	64.6469
2.15765	64.6428
2.15675	64.5693
2.15586	64.4396
2.15496	64.4932
2.15406	64.7139
2.15317	64.8442
2.15228	64.8895
2.15138	64.8379
2.15049	64.7665
2.1496	64.6896
2.14871	64.4959
2.14782	64.5164
2.14693	64.5861
2.14604	64.5066
2.14515	64.616
2.14427	64.705
2.14338	64.7248
2.14249	64.8365
2.14161	64.8651
2.14072	64.7268
2.13984	64.6681
2.13896	64.8349
2.13808	64.6807
2.13719	64.4934
2.13631	64.6126
2.13543	64.7112
2.13455	64.6991
2.13368	64.4992
2.1328	64.1463
2.13192	64.1508
2.13105	64.275
2.13017	64.2168
2.1293	64.1582
2.12842	64.2541
2.12755	64.4466
2.12668	64.5827
2.1258	64.5377
2.12493	64.4063
2.12406	64.4318
2.12319	64.508
2.12232	64.4667
2.12145	64.4787
2.12059	64.4908
2.11972	64.5513
2.11885	64.4695
2.11799	64.3923
2.11712	64.4493
2.11626	64.3483
2.1154	64.4805
2.11453	64.674
2.11367	64.7265
2.11281	64.8891
2.11195	64.8991
2.11109	64.7619
2.11023	64.7326
2.10937	64.8311
2.10851	65.0354
2.10766	65.4172
2.1068	65.9566
2.10594	66.4413
2.10509	66.8184
2.10423	67.007
2.10338	67.1299
2.10253	67.2058
2.10168	67.2668
2.10082	67.2215
2.09997	67.3142
2.09912	67.512
2.09827	67.737
2.09742	67.6191
2.09658	67.4638
2.09573	67.6057
2.09488	67.64
2.09404	67.649
2.09319	67.9333
2.09235	68.0621
2.0915	67.892
2.09066	67.9841
2.08982	68.026
2.08897	67.8938
2.08813	67.7813
2.08729	67.9995
2.08645	68.1956
2.08561	68.1795
2.08477	68.1064
2.08394	68.483
2.0831	68.6426
2.08226	68.7159
2.08143	68.7805
2.08059	68.9173
2.07976	68.8494
2.07892	68.5494
2.07809	68.757
2.07726	69.0355
2.07643	69.295
2.07559	69.0752
2.07476	68.8223
2.07393	68.8675
2.0731	68.8898
2.07228	69.0528
2.07145	69.0194
2.07062	68.8771
2.06979	68.9473
2.06897	69.133
2.06814	69.3041
2.06732	69.2964
2.06649	69.4481
2.06567	69.468
2.06485	69.539
2.06403	69.5396
2.0632	69.4458
2.06238	69.3833
2.06156	69.3997
2.06074	69.496
2.05993	69.6801
2.05911	69.6563
2.05829	69.6439
2.05747	69.7275
2.05666	69.6221
2.05584	69.7393
2.05503	69.9646
2.05421	69.9508
2.0534	69.9708
2.05259	70.0471
2.05177	70.0344
2.05096	69.9383
2.05015	70.0441
2.04934	70.2893
2.04853	70.3272
2.04772	70.249
2.04691	70.4032
2.04611	70.5373
2.0453	70.5936
2.04449	70.554
2.04369	70.6037
2.04288	70.778
2.04208	70.8476
2.04127	70.8961
2.04047	70.851
2.03967	70.8725
2.03886	70.9324
2.03806	70.8629
2.03726	71.0303
2.03646	71.0458
2.03566	71.0647
2.03486	71.2349
2.03407	71.1914
2.03327	71.1698
2.03247	71.2572
2.03167	71.3427
2.03088	71.1155
2.03008	71.0088
2.02929	71.0953
2.0285	71.1721
2.0277	71.1462
2.02691	71.1185
2.02612	70.9515
2.02533	70.9859
2.02453	71.0172
2.02374	71.0937
2.02295	71.1678
2.02217	71.1577
2.02138	71.0172
2.02059	71.0054
2.0198	71.2733
2.01902	71.3691
2.01823	71.1569
2.01744	71.0132
2.01666	71.0499
2.01588	71.1273
2.01509	71.3338
2.01431	71.268
2.01353	71.2688
2.01275	71.2523
2.01196	71.1755
2.01118	71.3513
2.0104	71.4766
2.00963	71.352
2.00885	71.202
2.00807	71.2958
2.00729	71.3403
2.00651	71.4597
2.00574	71.5518
2.00496	71.5913
2.00419	71.5931
2.00341	71.7308
2.00264	71.7149
2.00187	71.6406
2.00109	71.7969
2.00032	71.9609
