Name: Riebeckite Na_2(Fe^2+,Mg)_3,Fe_2^3+Si_8O_22(OH)_2
Type: Mineral
Class: Silicates
Subclass: Inosilicates
Particle Size: 0-45um
Sample No.: IN-7A
Owner: JPL
Wavelength range: IR
Origin: Canada, Ontario
Collected by Ward's
Description: 





Measurement: Hemispherical reflectance
First Column: X
Second Column: Y
X Units:  Wavelength (micrometers)
Y Units:  Reflectance (percent)
First X Value: 15.3853
Last X Value: 2.00032
Number of X Values: 2256
Additional information: in07aa.txt
 
15.3853	2.1744
15.3397	2.35914
15.2945	2.37122
15.2495	2.32528
15.2048	2.19305
15.1603	2.09992
15.1161	1.96472
15.0722	1.8139
15.0285	1.9091
14.9851	2.21326
14.9419	2.10829
14.8989	2.06768
14.8563	2.10843
14.8138	2.04333
14.7716	2.27103
14.7296	2.43075
14.6879	2.31199
14.6464	2.10901
14.6052	2.13574
14.5641	2.27952
14.5233	2.39224
14.4828	2.63082
14.4424	2.66442
14.4023	2.82202
14.3624	2.79852
14.3227	2.82101
14.2833	3.01095
14.244	3.21162
14.205	3.00274
14.1662	2.84426
14.1276	3.0463
14.0892	3.21935
14.051	3.35541
14.0131	3.51762
13.9753	3.55834
13.9377	3.4384
13.9004	3.37055
13.8632	3.41901
13.8262	3.62108
13.7895	3.62742
13.7529	3.46221
13.7165	3.35059
13.6803	3.53667
13.6443	3.71559
13.6085	3.58842
13.5729	3.39664
13.5374	3.39063
13.5022	3.49861
13.4671	3.49119
13.4322	3.26653
13.3975	3.21525
13.363	3.29096
13.3286	3.2955
13.2944	3.41336
13.2604	3.54643
13.2266	3.59367
13.193	3.4359
13.1595	3.34404
13.1262	3.69082
13.093	3.97021
13.06	4.09321
13.0272	4.29752
12.9946	4.75669
12.9621	5.1255
12.9298	5.12653
12.8976	5.24983
12.8656	5.2727
12.8337	5.29387
12.8021	5.34481
12.7705	5.39621
12.7391	5.65284
12.7079	5.86446
12.6769	5.79878
12.6459	5.76697
12.6152	5.91739
12.5845	5.89496
12.5541	5.92198
12.5238	6.12776
12.4936	6.39412
12.4635	6.48073
12.4337	6.4437
12.4039	6.46711
12.3743	6.54077
12.3448	6.63277
12.3155	6.74459
12.2863	6.90342
12.2573	7.09688
12.2284	7.09845
12.1996	6.98604
12.171	7.06222
12.1425	7.10543
12.1141	7.06638
12.0859	7.01911
12.0578	6.92558
12.0298	6.74504
12.0019	6.71315
11.9742	6.78249
11.9466	6.85452
11.9192	6.73613
11.8918	6.55551
11.8646	6.43817
11.8375	6.29233
11.8106	6.16634
11.7837	6.04213
11.757	5.95581
11.7304	5.93242
11.7039	5.8241
11.6776	5.76121
11.6513	5.63863
11.6252	5.47344
11.5992	5.49806
11.5733	5.52699
11.5475	5.34801
11.5219	5.32383
11.4963	5.31073
11.4709	5.20579
11.4455	5.10166
11.4203	5.11141
11.3952	5.08244
11.3702	5.0044
11.3454	5.01195
11.3206	4.99999
11.2959	5.00734
11.2714	5.10903
11.2469	5.15031
11.2226	5.0959
11.1983	5.14532
11.1742	5.13186
11.1502	5.04992
11.1263	5.1124
11.1024	5.14211
11.0787	5.16595
11.0551	5.21034
11.0316	5.28743
11.0081	5.25091
10.9848	5.28381
10.9616	5.35338
10.9385	5.36109
10.9154	5.35268
10.8925	5.32941
10.8697	5.34059
10.8469	5.36078
10.8243	5.25951
10.8017	5.27256
10.7793	5.3447
10.7569	5.46177
10.7346	5.48047
10.7125	5.56868
10.6904	5.65791
10.6684	5.7241
10.6465	5.91237
10.6247	6.04578
10.6029	6.13786
10.5813	6.35532
10.5597	6.55481
10.5383	6.5988
10.5169	6.57861
10.4956	6.57485
10.4744	6.7657
10.4533	7.08824
10.4323	7.36164
10.4113	7.59659
10.3904	7.80765
10.3697	8.03937
10.349	8.25054
10.3284	8.35714
10.3078	8.4913
10.2874	8.6107
10.267	8.69465
10.2467	8.78809
10.2265	8.83658
10.2064	8.8711
10.1863	8.91722
10.1663	8.97368
10.1464	8.9574
10.1266	8.894
10.1069	8.78082
10.0872	8.72057
10.0676	8.74401
10.0481	8.66434
10.0287	8.46822
10.0093	8.26957
9.99005	8.19048
9.97084	8.09471
9.95169	7.90436
9.93263	7.70528
9.91364	7.54097
9.89472	7.41813
9.87587	7.24898
9.8571	6.96242
9.83839	6.78255
9.81976	6.54831
9.80119	6.26031
9.78271	6.06472
9.76428	5.96416
9.74592	6.03972
9.72764	6.06494
9.70943	6.0467
9.69128	6.06478
9.6732	6.0401
9.65518	6.18683
9.63724	6.33367
9.61935	6.49492
9.60155	6.63494
9.5838	6.63243
9.56611	6.69266
9.5485	6.83105
9.53094	6.97131
9.51345	7.06545
9.49604	7.08788
9.47867	7.07666
9.46137	7.02797
9.44414	7.01219
9.42697	7.00003
9.40986	6.99343
9.39281	6.96548
9.37583	6.72552
9.35891	6.73753
9.34204	6.80326
9.32524	6.5604
9.3085	6.41851
9.29182	6.5286
9.27519	6.46953
9.25863	6.21396
9.24213	6.01142
9.22568	5.7866
9.2093	5.42569
9.19297	5.31087
9.17669	5.08008
9.16048	4.69892
9.14433	4.42722
9.12823	4.25559
9.11218	3.96426
9.0962	3.7431
9.08027	3.68174
9.06439	3.5195
9.04858	3.28172
9.03281	3.17498
9.0171	3.12781
9.00145	3.01845
8.98585	2.97193
8.9703	2.961
8.9548	3.13183
8.93937	3.29782
8.92398	3.39508
8.90865	3.59016
8.89337	3.78811
8.87814	4.01763
8.86296	4.36267
8.84784	4.64144
8.83277	4.80944
8.81774	5.02442
8.80277	5.18717
8.78786	5.30221
8.77298	5.28681
8.75816	5.20066
8.7434	5.17108
8.72868	4.91511
8.714	4.54397
8.69938	4.16088
8.68481	3.70824
8.67029	3.29329
8.65581	3.08284
8.64139	2.87823
8.62701	2.64002
8.61268	2.25921
8.5984	2.01675
8.58416	1.81081
8.56997	1.56117
8.55583	1.40584
8.54174	1.39232
8.52769	1.42895
8.51368	1.46274
8.49973	1.30401
8.48582	1.32498
8.47195	1.47976
8.45813	1.36622
8.44436	1.34947
8.43062	1.44942
8.41693	1.4666
8.4033	1.46902
8.3897	1.54676
8.37614	1.68029
8.36264	1.81494
8.34917	1.93478
8.33574	2.05219
8.32236	2.21992
8.30903	2.33313
8.29573	2.40869
8.28248	2.58159
8.26927	2.78841
8.2561	2.91749
8.24298	3.02037
8.2299	3.09723
8.21685	3.19982
8.20385	3.30105
8.19089	3.47325
8.17797	3.79504
8.16509	3.92871
8.15225	4.06526
8.13946	4.28713
8.1267	4.56045
8.11398	4.79894
8.10131	4.92429
8.08867	4.98378
8.07606	5.04895
8.0635	5.23449
8.05099	5.56691
8.0385	5.70549
8.02606	5.84019
8.01366	6.19167
8.00129	6.5524
7.98896	6.68578
7.97667	6.79613
7.96442	6.97723
7.9522	7.17736
7.94002	7.41261
7.92788	7.63323
7.91578	7.75433
7.90371	7.95785
7.89168	8.21901
7.87969	8.37772
7.86773	8.59802
7.85581	8.83697
7.84392	9.01074
7.83207	9.08886
7.82026	9.19227
7.80849	9.5078
7.79674	9.71869
7.78503	9.85572
7.77337	10.0098
7.76173	10.2081
7.75012	10.4244
7.73856	10.6257
7.72703	10.8048
7.71553	10.9419
7.70406	11.1452
7.69263	11.2612
7.68123	11.3967
7.66987	11.6064
7.65855	11.7601
7.64725	11.9156
7.63598	12.1131
7.62475	12.2619
7.61356	12.4589
7.60239	12.6296
7.59126	12.7995
7.58017	12.9541
7.5691	13.0666
7.55806	13.2597
7.54707	13.4555
7.5361	13.6472
7.52516	13.8849
7.51425	14.0393
7.50338	14.199
7.49253	14.4064
7.48172	14.6298
7.47094	14.8467
7.46019	14.9531
7.44947	14.9708
7.43879	15.1431
7.42813	15.3535
7.4175	15.5419
7.4069	15.7744
7.39634	15.9353
7.3858	16.0472
7.37529	16.1503
7.36482	16.2606
7.35437	16.5052
7.34396	16.7448
7.33357	16.8446
7.32321	16.8605
7.31288	16.9043
7.30258	16.9654
7.29231	17.1246
7.28207	17.4465
7.27185	17.6218
7.26167	17.6853
7.25152	17.8628
7.24139	17.8663
7.23129	17.894
7.22122	18.1112
7.21117	18.416
7.20116	18.5287
7.19117	18.5268
7.18121	18.7945
7.17128	19.1381
7.16137	19.2336
7.1515	19.3549
7.14164	19.375
7.13182	19.3351
7.12203	19.5804
7.11225	19.7006
7.10251	19.7298
7.0928	19.8678
7.08311	20.0472
7.07344	20.174
7.06381	20.2874
7.0542	20.6814
7.04461	21.0517
7.03506	20.7497
7.02552	20.7074
7.01601	20.7941
7.00653	20.8322
6.99708	21.0297
6.98765	21.1298
6.97824	21.1401
6.96886	21.4724
6.95951	21.8848
6.95018	21.5183
6.94087	21.3076
6.9316	21.3409
6.92234	21.4662
6.91311	21.6922
6.90391	21.8673
6.89473	21.775
6.88557	21.8049
6.87644	22.1043
6.86733	22.9455
6.85824	22.945
6.84918	22.318
6.84015	22.1696
6.83114	22.5632
6.82215	22.6791
6.81319	22.5252
6.80424	22.7982
6.79532	23.508
6.78643	23.8424
6.77756	23.6242
6.76871	23.5124
6.75989	23.5133
6.75109	23.7126
6.74231	23.8811
6.73355	24.1141
6.72482	24.4833
6.71611	24.9056
6.70742	25.0294
6.69875	24.8025
6.69011	25.1438
6.68149	25.7496
6.67289	25.7306
6.66431	25.5438
6.65576	25.5424
6.64722	26.3897
6.63871	27.6848
6.63022	27.3852
6.62175	26.5944
6.61331	26.4544
6.60488	26.4725
6.59648	26.7821
6.5881	26.9897
6.57974	27.424
6.5714	27.7927
6.56308	27.1668
6.55478	26.9456
6.54651	26.6967
6.53825	26.473
6.53001	26.6215
6.5218	26.9272
6.51361	26.5041
6.50544	26.6109
6.49729	27.706
6.48915	27.7376
6.48104	26.8311
6.47295	26.24
6.46488	25.6684
6.45683	25.3902
6.4488	25.3119
6.44079	25.2969
6.4328	25.4436
6.42482	25.8182
6.41687	26.8789
6.40894	26.2788
6.40103	24.6634
6.39314	24.1488
6.38526	24.0302
6.37741	24.0859
6.36957	24.0649
6.36176	23.5262
6.35396	23.5043
6.34618	24.081
6.33843	23.5803
6.33069	22.8625
6.32297	22.7308
6.31527	22.5387
6.30758	22.3873
6.29992	22.2582
6.29227	22.1889
6.28465	22.1496
6.27704	22.1402
6.26945	22.0888
6.26188	21.9895
6.25432	21.8799
6.24679	21.8954
6.23927	21.9639
6.23177	21.9486
6.22429	22.0343
6.21683	22.1389
6.20938	22.0959
6.20195	22.087
6.19454	22.389
6.18715	23.0847
6.17978	22.9218
6.17242	22.5565
6.16508	22.8899
6.15776	23.0791
6.15045	22.9029
6.14317	22.9684
6.1359	23.0235
6.12864	23.0839
6.12141	23.6842
6.11419	24.4567
6.10699	24.2057
6.0998	23.8088
6.09263	23.8092
6.08549	24.0367
6.07835	24.7795
6.07123	25.1567
6.06413	24.7505
6.05705	25.4193
6.04998	27.0064
6.04293	26.0187
6.0359	24.7902
6.02888	24.7309
6.02187	24.9924
6.01489	25.308
6.00792	25.2233
6.00096	25.2265
5.99403	25.7112
5.98711	25.8561
5.9802	25.6058
5.97331	25.896
5.96644	26.0533
5.95958	25.582
5.95274	25.6461
5.94591	26.1291
5.9391	27.2659
5.9323	26.9746
5.92552	26.0487
5.91876	25.9493
5.91201	25.8702
5.90528	26.1404
5.89856	27.1785
5.89186	27.2251
5.88517	27.5953
5.8785	27.7124
5.87184	26.7441
5.8652	26.8001
5.85857	26.6881
5.85196	26.5417
5.84536	26.4975
5.83878	26.7141
5.83221	27.1912
5.82566	27.9236
5.81912	27.8981
5.81259	27.1319
5.80608	26.9486
5.79959	27.0175
5.79311	27.032
5.78665	27.1438
5.78019	27.3405
5.77376	27.9213
5.76734	28.8533
5.76093	28.2695
5.75453	27.6544
5.74815	27.9168
5.74179	27.8067
5.73543	27.727
5.7291	27.754
5.72277	28.0305
5.71646	28.3357
5.71017	28.539
5.70389	28.2474
5.69762	28.1822
5.69136	28.3978
5.68513	28.4326
5.6789	28.7002
5.67268	28.7868
5.66648	28.6535
5.6603	28.9261
5.65413	29.1886
5.64797	29.514
5.64182	29.9773
5.63569	29.5708
5.62957	29.2227
5.62347	29.2868
5.61737	29.4799
5.61129	29.5977
5.60522	29.7637
5.59917	29.768
5.59313	29.7302
5.5871	30.106
5.58109	30.6027
5.57509	30.5511
5.5691	30.3017
5.56312	30.4618
5.55716	30.6934
5.55121	30.8641
5.54528	30.9548
5.53935	31.1309
5.53344	31.3235
5.52754	31.6171
5.52166	31.873
5.51578	32.0261
5.50992	32.2157
5.50407	32.4648
5.49823	32.6344
5.49241	32.8515
5.4866	33.1472
5.4808	33.6756
5.47501	33.9303
5.46923	34.2629
5.46347	34.6047
5.45772	34.4846
5.45198	34.5398
5.44625	34.7957
5.44054	35.0186
5.43484	35.2405
5.42914	35.6931
5.42347	36.3193
5.4178	36.2524
5.41214	36.1408
5.4065	36.2928
5.40087	36.4391
5.39525	36.5692
5.38964	36.7349
5.38404	36.9609
5.37846	37.1223
5.37288	37.2489
5.36732	37.3185
5.36177	37.4549
5.35623	37.7424
5.35071	38.1058
5.34519	38.0315
5.33968	37.9014
5.33419	37.9067
5.32871	37.8783
5.32324	37.9009
5.31778	37.9397
5.31233	38.0518
5.30689	38.0955
5.30147	38.0774
5.29605	38.1833
5.29065	38.4027
5.28525	38.3499
5.27987	38.379
5.2745	38.4663
5.26914	38.4414
5.26379	38.4158
5.25845	38.5244
5.25312	38.6053
5.24781	38.6793
5.2425	38.6853
5.23721	38.7387
5.23192	38.755
5.22665	38.7511
5.22138	38.8626
5.21613	39.1188
5.21089	39.116
5.20566	38.9894
5.20044	39.0658
5.19522	39.0228
5.19002	38.9992
5.18483	38.9925
5.17965	38.999
5.17448	39.1009
5.16933	39.1372
5.16418	39.0777
5.15904	39.118
5.15391	39.2012
5.14879	39.2987
5.14368	39.2091
5.13859	39.1532
5.1335	39.1944
5.12842	39.2314
5.12335	39.2397
5.1183	39.2877
5.11325	39.3588
5.10821	39.4158
5.10318	39.4225
5.09817	39.4205
5.09316	39.5394
5.08816	39.6535
5.08317	39.728
5.07819	39.6865
5.07322	39.7091
5.06826	39.8337
5.06331	39.8938
5.05837	39.9777
5.05344	40.1153
5.04852	40.2032
5.04361	40.2995
5.03871	40.3388
5.03382	40.3656
5.02894	40.4972
5.02406	40.6817
5.0192	40.7909
5.01435	40.762
5.0095	40.8239
5.00467	41.0274
4.99984	41.185
4.99502	41.2539
4.99021	41.3385
4.98542	41.4803
4.98063	41.6352
4.97585	41.822
4.97108	41.9835
4.96632	42.057
4.96156	42.2275
4.95682	42.4148
4.95209	42.4993
4.94736	42.57
4.94264	42.6819
4.93794	42.8826
4.93324	43.1073
4.92855	43.2701
4.92387	43.4559
4.9192	43.6655
4.91453	43.8269
4.90988	44.0488
4.90524	44.2858
4.9006	44.4636
4.89597	44.6676
4.89135	44.8463
4.88674	45.0233
4.88214	45.2577
4.87755	45.4618
4.87296	45.6586
4.86839	45.8269
4.86382	46.068
4.85926	46.2984
4.85471	46.5155
4.85017	46.7349
4.84564	46.9197
4.84111	47.0812
4.8366	47.256
4.83209	47.4329
4.82759	47.6284
4.8231	47.8363
4.81862	48.0361
4.81415	48.185
4.80968	48.3612
4.80522	48.5168
4.80077	48.739
4.79633	48.9385
4.7919	49.1187
4.78747	49.3391
4.78306	49.5618
4.77865	49.7671
4.77425	49.9431
4.76986	50.0568
4.76547	50.28
4.7611	50.4859
4.75673	50.6163
4.75237	50.7732
4.74802	51.0096
4.74367	51.1914
4.73934	51.3828
4.73501	51.6467
4.73069	51.8287
4.72638	51.9648
4.72207	52.1466
4.71777	52.3234
4.71348	52.5246
4.7092	52.7539
4.70493	52.9373
4.70066	53.1321
4.69641	53.3134
4.69216	53.4767
4.68791	53.6581
4.68368	53.8689
4.67945	54.0891
4.67523	54.3033
4.67102	54.5294
4.66682	54.7464
4.66262	54.9407
4.65843	55.1353
4.65425	55.4262
4.65007	55.7061
4.64591	55.8873
4.64175	55.9941
4.6376	56.2092
4.63345	56.5527
4.62932	56.9125
4.62519	57.1378
4.62106	57.3183
4.61695	57.5617
4.61284	57.8432
4.60874	58.0966
4.60465	58.2837
4.60056	58.5014
4.59648	58.795
4.59241	59.0544
4.58835	59.2139
4.58429	59.3374
4.58024	59.5435
4.5762	59.8006
4.57216	60.0616
4.56814	60.2266
4.56411	60.3665
4.5601	60.5945
4.55609	60.8416
4.55209	61.0014
4.5481	61.1484
4.54411	61.3062
4.54013	61.4304
4.53616	61.595
4.5322	61.8392
4.52824	61.9434
4.52429	62.0203
4.52034	62.172
4.51641	62.29
4.51247	62.3527
4.50855	62.4577
4.50463	62.6453
4.50072	62.7452
4.49682	62.7799
4.49292	62.9533
4.48903	63.1209
4.48515	63.2309
4.48127	63.3048
4.4774	63.301
4.47354	63.3062
4.46968	63.4133
4.46584	63.5544
4.46199	63.6622
4.45815	63.6815
4.45432	63.7119
4.4505	63.7189
4.44668	63.7811
4.44287	63.9187
4.43907	64.0043
4.43527	64.0764
4.43148	64.1631
4.4277	64.1726
4.42392	64.2138
4.42015	64.2588
4.41638	64.3197
4.41262	64.3877
4.40887	64.3573
4.40513	64.3493
4.40139	64.3904
4.39765	64.4741
4.39393	64.5224
4.39021	64.5233
4.38649	64.5662
4.38278	64.6288
4.37908	64.7109
4.37539	64.791
4.3717	64.8405
4.36801	64.8159
4.36434	64.8522
4.36067	64.883
4.357	64.8446
4.35335	64.8874
4.34969	64.9633
4.34605	64.9771
4.34241	65.0191
4.33877	65.1369
4.33514	65.1877
4.33152	65.1566
4.32791	65.1765
4.3243	65.2425
4.32069	65.3135
4.3171	65.3308
4.31351	65.3953
4.30992	65.5503
4.30634	65.6631
4.30277	65.6878
4.2992	65.707
4.29564	65.6993
4.29208	65.7652
4.28853	65.8921
4.28499	65.9642
4.28145	66.0548
4.27792	66.0819
4.27439	66.0256
4.27087	66.0425
4.26735	66.0669
4.26384	66.0275
4.26034	65.8867
4.25684	65.8154
4.25335	65.926
4.24986	66.1247
4.24638	66.306
4.24291	66.4528
4.23944	66.4813
4.23598	66.545
4.23252	66.5855
4.22906	66.624
4.22562	66.6423
4.22218	66.571
4.21874	66.4934
4.21531	66.3925
4.21189	66.329
4.20847	66.2685
4.20506	66.2414
4.20165	66.2288
4.19825	66.2604
4.19485	66.3379
4.19146	66.35
4.18807	66.3361
4.18469	66.3313
4.18132	66.3762
4.17795	66.4441
4.17458	66.4514
4.17123	66.4585
4.16787	66.5346
4.16453	66.5349
4.16118	66.56
4.15785	66.6104
4.15451	66.6242
4.15119	66.6815
4.14787	66.6867
4.14455	66.674
4.14124	66.7481
4.13794	66.8055
4.13464	66.8118
4.13134	66.8002
4.12805	66.8598
4.12477	66.8861
4.12149	66.8997
4.11822	66.9087
4.11495	66.9185
4.11168	66.909
4.10843	66.946
4.10517	67.0343
4.10192	67.08
4.09868	67.0216
4.09545	67.0607
4.09221	67.122
4.08899	67.1397
4.08576	67.1399
4.08255	67.1633
4.07933	67.1587
4.07613	67.153
4.07292	67.1327
4.06973	67.1711
4.06654	67.2464
4.06335	67.2465
4.06017	67.1958
4.05699	67.2476
4.05382	67.2753
4.05065	67.261
4.04749	67.2903
4.04433	67.2902
4.04118	67.1628
4.03803	67.1097
4.03489	67.1407
4.03175	67.1649
4.02862	67.1108
4.02549	67.0188
4.02237	67.0055
4.01925	67.0124
4.01614	66.976
4.01303	66.9071
4.00993	66.8287
4.00683	66.8149
4.00373	66.7395
4.00064	66.6022
3.99756	66.5291
3.99448	66.4483
3.9914	66.4018
3.98833	66.3891
3.98527	66.3564
3.98221	66.2976
3.97915	66.2401
3.9761	66.2732
3.97305	66.3357
3.97001	66.2579
3.96697	66.2722
3.96394	66.4153
3.96091	66.5399
3.95789	66.6917
3.95487	66.8067
3.95186	66.845
3.94885	66.902
3.94584	67.0688
3.94284	67.2328
3.93984	67.3268
3.93685	67.4095
3.93386	67.488
3.93088	67.5173
3.9279	67.5516
3.92493	67.6177
3.92196	67.7063
3.919	67.71
3.91604	67.7346
3.91308	67.7527
3.91013	67.7901
3.90718	67.8182
3.90424	67.8896
3.9013	67.919
3.89837	67.9023
3.89544	67.9272
3.89252	67.9417
3.8896	67.9912
3.88668	68.0944
3.88377	68.1235
3.88086	68.1267
3.87796	68.2039
3.87506	68.252
3.87217	68.1731
3.86928	68.1331
3.86639	68.1866
3.86351	68.2394
3.86064	68.2646
3.85776	68.2874
3.8549	68.3144
3.85203	68.3487
3.84917	68.3296
3.84631	68.3233
3.84346	68.3318
3.84062	68.3338
3.83777	68.3259
3.83494	68.3194
3.8321	68.3797
3.82927	68.4064
3.82644	68.3712
3.82362	68.361
3.82081	68.4267
3.81799	68.4513
3.81518	68.4343
3.81238	68.4901
3.80958	68.5706
3.80678	68.6282
3.80399	68.6587
3.8012	68.6932
3.79841	68.7207
3.79563	68.7766
3.79286	68.8025
3.79008	68.8345
3.78731	68.8727
3.78455	68.9337
3.78179	68.9343
3.77903	68.8501
3.77628	68.8494
3.77353	68.8289
3.77079	68.8166
3.76805	68.8292
3.76531	68.8915
3.76258	68.9032
3.75985	68.9099
3.75713	69.0096
3.7544	68.9694
3.75169	68.9162
3.74898	68.9182
3.74627	68.9029
3.74356	68.8995
3.74086	68.9326
3.73816	68.9526
3.73547	68.9147
3.73278	68.8751
3.7301	68.894
3.72741	68.9002
3.72474	68.895
3.72206	68.8902
3.71939	68.8631
3.71673	68.817
3.71406	68.8118
3.71141	68.8454
3.70875	68.8615
3.7061	68.8051
3.70345	68.7843
3.70081	68.8145
3.69817	68.7976
3.69553	68.7698
3.6929	68.7724
3.69027	68.7537
3.68765	68.7453
3.68503	68.7541
3.68241	68.7338
3.6798	68.7118
3.67719	68.7047
3.67458	68.6603
3.67198	68.6554
3.66938	68.617
3.66678	68.5915
3.66419	68.6025
3.66161	68.7195
3.65902	68.7565
3.65644	68.6472
3.65387	68.6145
3.65129	68.5417
3.64872	68.4558
3.64616	68.4883
3.64359	68.5512
3.64103	68.6153
3.63848	68.5906
3.63593	68.5648
3.63338	68.5139
3.63084	68.4489
3.6283	68.3458
3.62576	68.3664
3.62322	68.4104
3.62069	68.4524
3.61817	68.4623
3.61564	68.4566
3.61312	68.4776
3.61061	68.4477
3.6081	68.348
3.60559	68.3059
3.60308	68.2465
3.60058	68.2102
3.59808	68.1925
3.59558	68.2257
3.59309	68.2472
3.59061	68.2283
3.58812	68.2014
3.58564	68.1861
3.58316	68.1159
3.58069	68.0384
3.57822	67.9933
3.57575	68.0038
3.57328	67.962
3.57082	67.9154
3.56836	67.9251
3.56591	67.9217
3.56346	67.8649
3.56101	67.8345
3.55857	67.7982
3.55613	67.7314
3.55369	67.6573
3.55126	67.6046
3.54883	67.6113
3.5464	67.5885
3.54397	67.508
3.54155	67.4427
3.53914	67.3527
3.53672	67.2464
3.53431	67.1776
3.5319	67.1241
3.5295	67.0007
3.5271	66.8725
3.5247	66.8023
3.52231	66.7388
3.51991	66.6234
3.51753	66.3574
3.51514	66.1846
3.51276	66.0546
3.51038	65.7989
3.50801	65.564
3.50563	65.3207
3.50327	65.2117
3.5009	65.1598
3.49854	65.152
3.49618	65.2472
3.49382	65.2635
3.49147	65.2296
3.48912	65.2579
3.48677	65.2622
3.48443	65.1726
3.48209	65.0772
3.47975	65.0768
3.47742	65.1312
3.47509	65.173
3.47276	65.1225
3.47044	65.1285
3.46812	65.1886
3.4658	65.2163
3.46348	65.241
3.46117	65.2311
3.45886	65.2224
3.45656	65.2203
3.45425	65.1192
3.45195	65.0465
3.44966	65.0656
3.44736	65.008
3.44507	64.8611
3.44279	64.8676
3.4405	64.8147
3.43822	64.7314
3.43594	64.6551
3.43367	64.5236
3.43139	64.409
3.42912	64.2273
3.42686	63.9604
3.42459	63.7966
3.42233	63.5821
3.42007	63.3477
3.41782	63.2138
3.41557	63.1535
3.41332	63.1946
3.41108	63.2554
3.40883	63.2861
3.40659	63.3629
3.40435	63.4691
3.40212	63.5675
3.39989	63.7253
3.39766	63.7921
3.39544	63.832
3.39322	63.8889
3.391	63.87
3.38878	63.8234
3.38657	63.7858
3.38436	63.6674
3.38215	63.5775
3.37994	63.4397
3.37774	63.406
3.37554	63.4264
3.37335	63.459
3.37115	63.5465
3.36896	63.5466
3.36678	63.5872
3.36459	63.5937
3.36241	63.6036
3.36023	63.7026
3.35805	63.8279
3.35588	63.8423
3.35371	63.781
3.35154	63.7778
3.34938	63.7643
3.34721	63.7297
3.34505	63.7165
3.3429	63.6918
3.34074	63.7193
3.33859	63.751
3.33644	63.8421
3.3343	63.9253
3.33215	63.9259
3.33001	63.8599
3.32788	63.8577
3.32574	63.7876
3.32361	63.7991
3.32148	63.8593
3.31936	63.8781
3.31723	63.8452
3.31511	63.786
3.31299	63.6869
3.31088	63.5835
3.30876	63.5627
3.30665	63.5973
3.30455	63.5953
3.30244	63.4864
3.30034	63.3982
3.29824	63.4198
3.29614	63.3853
3.29405	63.3125
3.29196	63.214
3.28987	63.132
3.28778	63.111
3.2857	63.0986
3.28362	63.0278
3.28154	62.9948
3.27946	62.9915
3.27739	62.9431
3.27532	62.9324
3.27325	62.8452
3.27119	62.75
3.26913	62.763
3.26707	62.7286
3.26501	62.7567
3.26295	62.7843
3.2609	62.6436
3.25885	62.5153
3.2568	62.4252
3.25476	62.4393
3.25272	62.506
3.25068	62.4833
3.24864	62.3894
3.24661	62.371
3.24458	62.3702
3.24255	62.3355
3.24052	62.3805
3.2385	62.3876
3.23648	62.2527
3.23446	62.2012
3.23244	62.227
3.23043	62.1492
3.22841	62.0569
3.2264	62.0354
3.2244	61.9713
3.22239	61.9449
3.22039	61.8842
3.21839	61.8191
3.2164	61.7684
3.2144	61.6884
3.21241	61.6263
3.21042	61.5757
3.20844	61.5738
3.20645	61.5417
3.20447	61.4934
3.20249	61.3702
3.20051	61.1977
3.19854	61.2223
3.19657	61.2671
3.1946	61.182
3.19263	61.0775
3.19067	61.0002
3.1887	60.8499
3.18674	60.7809
3.18479	60.8397
3.18283	60.788
3.18088	60.6705
3.17893	60.5366
3.17698	60.4627
3.17504	60.337
3.17309	60.2501
3.17115	60.1942
3.16921	60.1565
3.16728	60.0228
3.16534	59.9325
3.16341	59.8373
3.16148	59.8487
3.15956	59.8104
3.15763	59.7945
3.15571	59.807
3.15379	59.723
3.15187	59.5975
3.14996	59.5085
3.14805	59.4123
3.14614	59.3399
3.14423	59.3504
3.14232	59.3907
3.14042	59.2169
3.13852	59.0711
3.13662	59.0367
3.13472	58.9583
3.13283	58.854
3.13094	58.7537
3.12905	58.8038
3.12716	58.891
3.12528	58.85
3.12339	58.6473
3.12151	58.5012
3.11964	58.4825
3.11776	58.4387
3.11589	58.4126
3.11401	58.4045
3.11214	58.3196
3.11028	58.2948
3.10841	58.2513
3.10655	58.2526
3.10469	58.2329
3.10283	58.1094
3.10098	57.9589
3.09912	57.9418
3.09727	57.9179
3.09542	57.8987
3.09358	57.9129
3.09173	57.8575
3.08989	57.6517
3.08805	57.5694
3.08621	57.6012
3.08437	57.5967
3.08254	57.6056
3.08071	57.5443
3.07888	57.4639
3.07705	57.3069
3.07523	57.2482
3.0734	57.2471
3.07158	57.2136
3.06977	57.1191
3.06795	57.0605
3.06613	57.0288
3.06432	56.9251
3.06251	56.9359
3.0607	56.9798
3.0589	56.9157
3.0571	56.7444
3.05529	56.6606
3.05349	56.5642
3.0517	56.519
3.0499	56.5536
3.04811	56.5112
3.04632	56.4218
3.04453	56.4073
3.04274	56.3123
3.04096	56.1711
3.03918	56.0942
3.0374	56.0641
3.03562	56.0193
3.03384	56.0752
3.03207	55.9698
3.03029	55.8135
3.02852	55.6799
3.02676	55.6076
3.02499	55.5916
3.02323	55.5105
3.02146	55.4549
3.0197	55.3957
3.01795	55.4022
3.01619	55.3828
3.01444	55.2562
3.01269	55.1049
3.01094	55.0017
3.00919	54.9661
3.00744	54.9044
3.0057	54.9429
3.00396	54.939
3.00222	54.7377
3.00048	54.5805
2.99875	54.6098
2.99701	54.5124
2.99528	54.3779
2.99355	54.206
2.99183	54.0023
2.9901	53.9449
2.98838	53.9866
2.98666	53.9935
2.98494	53.9354
2.98322	53.8316
2.9815	53.743
2.97979	53.7261
2.97808	53.6335
2.97637	53.5832
2.97466	53.4977
2.97295	53.4108
2.97125	53.3927
2.96955	53.3277
2.96785	53.1935
2.96615	53.1379
2.96446	53.0944
2.96276	53.0335
2.96107	52.9671
2.95938	52.805
2.95769	52.7254
2.95601	52.6915
2.95432	52.6253
2.95264	52.6191
2.95096	52.555
2.94928	52.4763
2.9476	52.4314
2.94593	52.3255
2.94425	52.3167
2.94258	52.3098
2.94092	52.238
2.93925	52.1974
2.93758	52.1229
2.93592	52.031
2.93426	52.0456
2.9326	51.9925
2.93094	51.8443
2.92928	51.8651
2.92763	51.8428
2.92598	51.6877
2.92433	51.6072
2.92268	51.5822
2.92103	51.5565
2.91939	51.467
2.91775	51.4259
2.9161	51.3909
2.91447	51.3462
2.91283	51.3441
2.91119	51.3529
2.90956	51.2715
2.90793	51.128
2.9063	51.1218
2.90467	51.1604
2.90304	51.1399
2.90142	51.1155
2.89979	50.9754
2.89817	50.864
2.89656	50.8561
2.89494	50.9026
2.89332	50.9975
2.89171	50.9837
2.8901	50.925
2.88849	50.9023
2.88688	50.844
2.88527	50.7575
2.88367	50.6302
2.88206	50.507
2.88046	50.5344
2.87886	50.5108
2.87727	50.416
2.87567	50.392
2.87408	50.4083
2.87248	50.3892
2.87089	50.4165
2.8693	50.4483
2.86772	50.378
2.86613	50.335
2.86455	50.2198
2.86297	50.1453
2.86139	50.1404
2.85981	50.1597
2.85823	50.1402
2.85666	50.0371
2.85508	50.0724
2.85351	50.082
2.85194	50.0143
2.85038	50.0216
2.84881	50.0171
2.84724	50.0212
2.84568	49.8983
2.84412	49.6976
2.84256	49.6511
2.841	49.714
2.83945	49.6211
2.83789	49.6053
2.83634	49.6485
2.83479	49.6246
2.83324	49.5129
2.83169	49.3979
2.83015	49.3285
2.82861	49.4236
2.82706	49.4011
2.82552	49.2432
2.82398	49.1402
2.82245	49.22
2.82091	49.3593
2.81938	49.3893
2.81784	49.2577
2.81631	49.2552
2.81479	49.2396
2.81326	48.9904
2.81173	48.9115
2.81021	48.9352
2.80869	48.9132
2.80716	48.9455
2.80565	49.1246
2.80413	49.5089
2.80261	49.5492
2.8011	48.9543
2.79959	48.5585
2.79808	48.5846
2.79657	48.6287
2.79506	48.5569
2.79355	48.4238
2.79205	48.3606
2.79055	48.4077
2.78904	48.6146
2.78754	48.9031
2.78605	48.5626
2.78455	48.0528
2.78306	48.0815
2.78156	48.0232
2.78007	47.6961
2.77858	47.4051
2.77709	47.2543
2.77561	46.6683
2.77412	46.2088
2.77264	46.1908
2.77116	46.1135
2.76968	45.614
2.7682	45.2236
2.76672	44.8139
2.76524	44.0442
2.76377	43.574
2.7623	42.9924
2.76083	41.9207
2.75936	41.195
2.75789	40.7496
2.75642	40.7889
2.75496	39.5912
2.7535	37.1033
2.75203	35.4102
2.75057	34.0848
2.74912	33.085
2.74766	32.3642
2.7462	31.822
2.74475	31.5064
2.7433	31.3455
2.74185	31.3551
2.7404	31.085
2.73895	29.8368
2.7375	28.321
2.73606	27.6973
2.73462	27.5087
2.73318	27.1862
2.73174	27.1321
2.7303	27.2543
2.72886	27.3256
2.72742	27.2265
2.72599	27.5513
2.72456	27.9285
2.72313	27.8729
2.7217	28.5355
2.72027	29.4513
2.71884	29.3733
2.71742	29.8173
2.71599	30.5718
2.71457	31.4008
2.71315	32.4427
2.71173	34.2805
2.71032	35.6795
2.7089	36.4254
2.70748	37.3504
2.70607	38.7346
2.70466	40.5501
2.70325	42.6287
2.70184	45.0834
2.70043	47.2332
2.69903	49.1292
2.69762	51.3845
2.69622	54.1933
2.69482	57.3384
2.69342	59.6805
2.69202	60.9246
2.69062	62.5475
2.68923	64.4083
2.68783	66.1593
2.68644	67.6357
2.68505	68.8273
2.68366	69.9349
2.68227	70.4751
2.68089	71.2406
2.6795	72.9362
2.67812	73.8319
2.67673	74.5995
2.67535	74.1643
2.67397	73.4816
2.6726	73.9488
2.67122	76.6069
2.66984	76.9163
2.66847	75.3316
2.6671	76.6032
2.66572	77.115
2.66435	76.0257
2.66299	74.4163
2.66162	74.4739
2.66025	74.6743
2.65889	74.5137
2.65753	74.0912
2.65616	74.5111
2.65481	74.5546
2.65345	74.8294
2.65209	74.8918
2.65073	74.2822
2.64938	74.0694
2.64803	74.2841
2.64667	74.6348
2.64532	74.769
2.64397	74.2319
2.64263	74.2232
2.64128	74.2782
2.63994	74.2197
2.63859	74.1059
2.63725	74.0742
2.63591	74.1138
2.63457	74.6799
2.63323	74.6969
2.6319	75.3517
2.63056	76.7716
2.62923	75.6963
2.62789	75.1991
2.62656	75.8463
2.62523	74.806
2.6239	74.2937
2.62258	74.5362
2.62125	76.0737
2.61993	76.4249
2.6186	75.4794
2.61728	76.4766
2.61596	76.2312
2.61464	75.1
2.61332	75.1805
2.61201	75.0774
2.61069	75.3775
2.60938	75.6378
2.60807	75.7613
2.60675	76.6156
2.60544	77.3621
2.60414	76.4083
2.60283	75.7905
2.60152	75.5283
2.60022	75.0092
2.59891	74.7697
2.59761	75.4043
2.59631	77.469
2.59501	79.9278
2.59371	78.1199
2.59242	75.514
2.59112	74.9566
2.58983	75.3128
2.58853	75.7388
2.58724	76.0757
2.58595	75.6762
2.58466	76.3926
2.58338	76.5363
2.58209	75.6196
2.5808	75.5076
2.57952	74.9859
2.57824	75.2919
2.57695	75.8724
2.57567	75.4488
2.5744	75.6867
2.57312	76.0321
2.57184	75.1448
2.57057	75.4858
2.56929	75.7109
2.56802	75.0651
2.56675	74.7889
2.56548	75.2308
2.56421	75.8351
2.56294	76.0537
2.56168	76.2738
2.56041	75.7813
2.55915	74.9187
2.55789	74.6455
2.55662	74.6102
2.55536	74.6326
2.5541	74.9298
2.55285	75.262
2.55159	75.2653
2.55034	75.1313
2.54908	75.0924
2.54783	75.1555
2.54658	74.8409
2.54533	74.7429
2.54408	75.0093
2.54283	75.1892
2.54159	75.0153
2.54034	74.8091
2.5391	74.7408
2.53785	74.7114
2.53661	74.9304
2.53537	74.9046
2.53413	74.7608
2.53289	74.8274
2.53166	74.8195
2.53042	74.7075
2.52919	74.6151
2.52795	74.5696
2.52672	74.4946
2.52549	74.5382
2.52426	74.6129
2.52303	74.5164
2.52181	74.4205
2.52058	74.4499
2.51936	74.5465
2.51813	74.5738
2.51691	74.4385
2.51569	74.4142
2.51447	74.5089
2.51325	74.5267
2.51203	74.4268
2.51082	74.3731
2.5096	74.3997
2.50839	74.4401
2.50717	74.3888
2.50596	74.3061
2.50475	74.2578
2.50354	74.3332
2.50233	74.3451
2.50113	74.2413
2.49992	74.1977
2.49872	74.2702
2.49751	74.203
2.49631	74.0568
2.49511	74.1802
2.49391	74.314
2.49271	74.2699
2.49151	74.2776
2.49031	74.3057
2.48912	74.2655
2.48792	74.2458
2.48673	74.2483
2.48554	74.2478
2.48435	74.3284
2.48316	74.3235
2.48197	74.2728
2.48078	74.2576
2.4796	74.3282
2.47841	74.2995
2.47723	74.259
2.47604	74.2737
2.47486	74.2495
2.47368	74.2315
2.4725	74.2743
2.47132	74.3458
2.47014	74.4749
2.46897	74.4487
2.46779	74.4116
2.46662	74.3966
2.46545	74.3657
2.46427	74.395
2.4631	74.3796
2.46193	74.3122
2.46077	74.3319
2.4596	74.3017
2.45843	74.2393
2.45727	74.2739
2.4561	74.3783
2.45494	74.3696
2.45378	74.3165
2.45262	74.3297
2.45146	74.3638
2.4503	74.3747
2.44914	74.3246
2.44799	74.3423
2.44683	74.387
2.44568	74.3936
2.44452	74.3824
2.44337	74.3682
2.44222	74.4202
2.44107	74.4484
2.43992	74.3717
2.43877	74.3732
2.43763	74.2991
2.43648	74.2044
2.43534	74.2292
2.43419	74.4058
2.43305	74.4452
2.43191	74.2572
2.43077	74.1347
2.42963	74.1487
2.42849	74.169
2.42736	74.1549
2.42622	74.1259
2.42509	74.0322
2.42395	73.929
2.42282	73.8551
2.42169	73.7648
2.42056	73.6653
2.41943	73.5399
2.4183	73.425
2.41717	73.3545
2.41605	73.3277
2.41492	73.1856
2.4138	72.9652
2.41267	73.0021
2.41155	72.9472
2.41043	72.602
2.40931	72.4782
2.40819	72.417
2.40707	72.4882
2.40595	72.5085
2.40484	72.3101
2.40372	72.149
2.40261	72.0214
2.4015	71.9219
2.40039	71.8402
2.39928	71.6476
2.39817	71.513
2.39706	71.3759
2.39595	71.4062
2.39484	71.4972
2.39374	71.5001
2.39263	71.4379
2.39153	71.4812
2.39043	71.5049
2.38932	71.5745
2.38822	71.6434
2.38712	71.7175
2.38603	71.6738
2.38493	71.6949
2.38383	71.7813
2.38274	71.8547
2.38164	71.8742
2.38055	72.0338
2.37946	72.1187
2.37836	72.1639
2.37727	72.2924
2.37618	72.4789
2.3751	72.6407
2.37401	72.695
2.37292	72.7983
2.37184	72.954
2.37075	72.9558
2.36967	72.9973
2.36859	73.1346
2.3675	73.2266
2.36642	73.1331
2.36534	73.0043
2.36427	73.05
2.36319	73.1343
2.36211	73.0973
2.36104	73.0454
2.35996	72.8566
2.35889	72.7876
2.35781	72.8068
2.35674	72.705
2.35567	72.6719
2.3546	72.6178
2.35353	72.5251
2.35247	72.4107
2.3514	72.3127
2.35033	72.1997
2.34927	72.1135
2.3482	71.9173
2.34714	71.6956
2.34608	71.6475
2.34502	71.6345
2.34396	71.4722
2.3429	71.2526
2.34184	71.1929
2.34078	71.2163
2.33973	71.203
2.33867	71.1663
2.33762	70.949
2.33656	70.8357
2.33551	70.7889
2.33446	70.6917
2.33341	70.565
2.33236	70.4372
2.33131	70.3587
2.33026	70.4311
2.32922	70.5334
2.32817	70.4589
2.32712	70.3377
2.32608	70.2498
2.32504	70.3605
2.324	70.398
2.32295	70.4917
2.32191	70.5117
2.32087	70.5278
2.31984	70.7526
2.3188	70.9208
2.31776	71.0345
2.31673	71.1852
2.31569	71.3061
2.31466	71.3855
2.31362	71.5495
2.31259	71.7801
2.31156	71.9706
2.31053	72.112
2.3095	72.2566
2.30847	72.4987
2.30745	72.8145
2.30642	72.9979
2.3054	72.9967
2.30437	73.1075
2.30335	73.3797
2.30232	73.5957
2.3013	73.8161
2.30028	73.8933
2.29926	73.9415
2.29824	74.1026
2.29722	74.1985
2.29621	74.2578
2.29519	74.3748
2.29417	74.4343
2.29316	74.4876
2.29215	74.643
2.29113	74.789
2.29012	74.7232
2.28911	74.7444
2.2881	74.9712
2.28709	74.9887
2.28608	74.9989
2.28507	75.0963
2.28407	75.1332
2.28306	75.1554
2.28206	75.1225
2.28105	75.1524
2.28005	75.2358
2.27905	75.2341
2.27805	75.3455
2.27705	75.496
2.27605	75.4958
2.27505	75.462
2.27405	75.3643
2.27305	75.4101
2.27206	75.4996
2.27106	75.4129
2.27007	75.373
2.26907	75.4497
2.26808	75.5301
2.26709	75.5655
2.2661	75.5021
2.26511	75.452
2.26412	75.4585
2.26313	75.6306
2.26214	75.6663
2.26116	75.5069
2.26017	75.461
2.25919	75.5892
2.2582	75.5217
2.25722	75.462
2.25624	75.5411
2.25526	75.6123
2.25428	75.6848
2.2533	75.6407
2.25232	75.721
2.25134	75.7782
2.25036	75.7197
2.24939	75.7021
2.24841	75.6736
2.24744	75.7106
2.24646	75.7806
2.24549	75.7227
2.24452	75.7202
2.24355	75.819
2.24257	75.787
2.24161	75.8846
2.24064	75.9629
2.23967	75.9064
2.2387	75.8178
2.23774	75.7169
2.23677	75.7922
2.23581	75.8567
2.23484	75.8424
2.23388	75.7521
2.23292	75.7973
2.23196	75.8549
2.231	75.7967
2.23004	75.7441
2.22908	75.8413
2.22812	75.9324
2.22716	75.9845
2.22621	75.9387
2.22525	75.8634
2.2243	75.9239
2.22334	75.8975
2.22239	75.8876
2.22144	75.9114
2.22049	75.7457
2.21953	75.7753
2.21859	75.859
2.21764	75.7662
2.21669	75.751
2.21574	75.8313
2.21479	75.8982
2.21385	75.86
2.2129	75.8476
2.21196	75.8321
2.21102	75.8872
2.21007	75.8865
2.20913	75.8704
2.20819	75.9376
2.20725	75.8478
2.20631	75.804
2.20537	75.9331
2.20444	75.9549
2.2035	75.7784
2.20256	75.6887
2.20163	75.8389
2.20069	75.9597
2.19976	75.8358
2.19883	75.7155
2.19789	75.708
2.19696	75.6332
2.19603	75.6635
2.1951	75.8769
2.19417	75.8739
2.19325	75.7945
2.19232	75.6778
2.19139	75.6787
2.19047	75.7988
2.18954	75.7357
2.18862	75.6135
2.18769	75.5993
2.18677	75.6462
2.18585	75.7266
2.18493	75.8272
2.18401	75.8733
2.18309	75.813
2.18217	75.7018
2.18125	75.5432
2.18033	75.5613
2.17942	75.6348
2.1785	75.6822
2.17759	75.6657
2.17667	75.6992
2.17576	75.698
2.17485	75.6158
2.17393	75.6814
2.17302	75.5878
2.17211	75.5042
2.1712	75.6476
2.17029	75.7527
2.16939	75.7498
2.16848	75.6455
2.16757	75.4608
2.16667	75.5138
2.16576	75.5876
2.16486	75.5005
2.16395	75.4535
2.16305	75.5114
2.16215	75.5749
2.16125	75.5678
2.16035	75.4705
2.15945	75.5264
2.15855	75.5453
2.15765	75.4166
2.15675	75.4899
2.15586	75.4728
2.15496	75.3631
2.15406	75.4982
2.15317	75.7592
2.15228	75.7476
2.15138	75.5276
2.15049	75.4391
2.1496	75.334
2.14871	75.2332
2.14782	75.4124
2.14693	75.4519
2.14604	75.5011
2.14515	75.4282
2.14427	75.352
2.14338	75.3992
2.14249	75.3763
2.14161	75.4079
2.14072	75.2333
2.13984	75.0827
2.13896	75.3036
2.13808	75.4728
2.13719	75.4377
2.13631	75.4288
2.13543	75.236
2.13455	75.0156
2.13368	74.9774
2.1328	75.0945
2.13192	75.1922
2.13105	75.3303
2.13017	75.3107
2.1293	75.1189
2.12842	75.1119
2.12755	75.2057
2.12668	75.087
2.1258	75.1234
2.12493	75.1844
2.12406	75.0319
2.12319	74.9977
2.12232	75.0331
2.12145	75.0618
2.12059	75.0357
2.11972	75.0194
2.11885	74.9764
2.11799	75.1171
2.11712	75.294
2.11626	75.1971
2.1154	75.0959
2.11453	75.1398
2.11367	75.154
2.11281	75.1628
2.11195	75.0422
2.11109	74.8477
2.11023	74.7232
2.10937	74.8358
2.10851	75.1263
2.10766	75.1768
2.1068	75.0783
2.10594	75.0758
2.10509	75.0551
2.10423	75.0652
2.10338	75.0744
2.10253	75.0914
2.10168	75.1
2.10082	75.0726
2.09997	75.0662
2.09912	75.0971
2.09827	75.0326
2.09742	74.9007
2.09658	75.0158
2.09573	75.0939
2.09488	75.1751
2.09404	75.1132
2.09319	74.9907
2.09235	75.0805
2.0915	75.1216
2.09066	74.9308
2.08982	74.8393
2.08897	74.8683
2.08813	75.1879
2.08729	75.3704
2.08645	74.9909
2.08561	74.7833
2.08477	75.0044
2.08394	75.102
2.0831	74.907
2.08226	74.8238
2.08143	74.9157
2.08059	75.053
2.07976	74.9796
2.07892	74.6613
2.07809	74.8509
2.07726	75.1032
2.07643	74.8269
2.07559	74.5861
2.07476	74.577
2.07393	74.737
2.0731	74.9448
2.07228	75.1214
2.07145	75.0319
2.07062	75.1735
2.06979	75.188
2.06897	74.9291
2.06814	74.9397
2.06732	75.0211
2.06649	74.8922
2.06567	74.8489
2.06485	75.0538
2.06403	75.1662
2.0632	75.0694
2.06238	75.0345
2.06156	74.921
2.06074	74.772
2.05993	74.7536
2.05911	74.8222
2.05829	74.7374
2.05747	74.7391
2.05666	74.9214
2.05584	75.0038
2.05503	74.936
2.05421	74.8101
2.0534	74.7847
2.05259	74.9171
2.05177	74.9924
2.05096	74.7819
2.05015	74.7088
2.04934	74.8499
2.04853	75.038
2.04772	75.0435
2.04691	74.9814
2.04611	74.9838
2.0453	74.9401
2.04449	74.8065
2.04369	74.7315
2.04288	74.7157
2.04208	74.6803
2.04127	74.7845
2.04047	74.8114
2.03967	74.7809
2.03886	74.7767
2.03806	74.7827
2.03726	74.6529
2.03646	74.4103
2.03566	74.3738
2.03486	74.6973
2.03407	74.7801
2.03327	74.7345
2.03247	74.6319
2.03167	74.2896
2.03088	74.2663
2.03008	74.8359
2.02929	75.1479
2.0285	74.744
2.0277	74.3882
2.02691	74.2708
2.02612	74.3475
2.02533	74.5238
2.02453	74.6888
2.02374	74.6992
2.02295	74.6647
2.02217	74.5995
2.02138	74.519
2.02059	74.5957
2.0198	74.4159
2.01902	74.3206
2.01823	74.484
2.01744	74.4326
2.01666	74.3642
2.01588	74.3072
2.01509	74.4036
2.01431	74.6225
2.01353	74.5465
2.01275	74.3896
2.01196	74.3053
2.01118	74.4241
2.0104	74.4444
2.00963	74.3361
2.00885	74.2056
2.00807	74.3738
2.00729	74.3589
2.00651	74.1578
2.00574	74.2128
2.00496	74.317
2.00419	74.5565
2.00341	74.5079
2.00264	74.2847
2.00187	74.356
2.00109	74.2945
2.00032	74.1896
