Name: Brass plate
Type: Manmade materials
Class: Reflectance target
Subclass: 
Particle Size: Solid
Sample No.: SN: ILF-17464-2-2
Owner: JPL
Wavelength range: IR
Origin: Labsphere, P.O. Box 70, Shaker Street, North Sutton, NH 03260
(603) 927-4266
Description: Measurement made at center left. Field Brass 1.
Measured Oct. 29 1997.




Measurement: Hemispherical Reflectance
First Column: X
Second Column: Y
X Units: Wavelength (micrometers)
Y Units: Reflectence (percent)
First X Value: 15.3853
Last X Value: 2.00032
Number of X Values: 2256
Additional information: None.
 
15.3853	87.4008
15.3397	87.5629
15.2945	87.7775
15.2495	87.7171
15.2048	87.608
15.1603	87.5716
15.1161	87.5448
15.0722	87.5393
15.0285	87.473
14.9851	87.279
14.9419	87.4925
14.8989	87.6663
14.8563	87.5029
14.8138	87.5978
14.7716	87.6703
14.7296	87.5615
14.6879	87.5025
14.6464	87.4625
14.6052	87.4427
14.5641	87.6275
14.5233	87.5405
14.4828	87.3882
14.4424	87.3744
14.4023	87.5415
14.3624	87.6579
14.3227	87.6487
14.2833	87.6289
14.244	87.5638
14.205	87.5022
14.1662	87.4516
14.1276	87.3699
14.0892	87.1525
14.051	87.0581
14.0131	87.0459
13.9753	87.1265
13.9377	87.2514
13.9004	87.3379
13.8632	87.4867
13.8262	87.6131
13.7895	87.5253
13.7529	87.3853
13.7165	87.3665
13.6803	87.4431
13.6443	87.5058
13.6085	87.5447
13.5729	87.5948
13.5374	87.5122
13.5022	87.4827
13.4671	87.465
13.4322	87.3783
13.3975	87.4855
13.363	87.6837
13.3286	87.5632
13.2944	87.6282
13.2604	87.6487
13.2266	87.5613
13.193	87.4626
13.1595	87.3912
13.1262	87.3824
13.093	87.3197
13.06	87.2652
13.0272	87.2543
12.9946	87.1942
12.9621	87.0903
12.9298	87.0421
12.8976	87.0141
12.8656	87.0471
12.8337	87.0721
12.8021	87.0259
12.7705	87.0236
12.7391	87.0181
12.7079	86.9906
12.6769	87.0055
12.6459	86.988
12.6152	86.8291
12.5845	86.8781
12.5541	87.0514
12.5238	86.992
12.4936	86.9377
12.4635	87.0213
12.4337	87.1606
12.4039	87.195
12.3743	87.2197
12.3448	87.3355
12.3155	87.4155
12.2863	87.4943
12.2573	87.4794
12.2284	87.4562
12.1996	87.5974
12.171	87.6288
12.1425	87.5681
12.1141	87.5665
12.0859	87.5053
12.0578	87.4404
12.0298	87.4736
12.0019	87.5769
11.9742	87.6435
11.9466	87.6472
11.9192	87.6127
11.8918	87.494
11.8646	87.4978
11.8375	87.5501
11.8106	87.4503
11.7837	87.419
11.757	87.5503
11.7304	87.5734
11.7039	87.5799
11.6776	87.4992
11.6513	87.5071
11.6252	87.4285
11.5992	87.2694
11.5733	87.1328
11.5475	87.0073
11.5219	86.7535
11.4963	86.3939
11.4709	86.2577
11.4455	86.2257
11.4203	86.2406
11.3952	86.4202
11.3702	86.4923
11.3454	86.6642
11.3206	86.7927
11.2959	86.9001
11.2714	87.0293
11.2469	86.9762
11.2226	86.956
11.1983	87.0306
11.1742	86.9752
11.1502	86.8604
11.1263	86.7652
11.1024	86.6958
11.0787	86.6563
11.0551	86.7093
11.0316	86.6881
11.0081	86.5466
10.9848	86.4678
10.9616	86.4406
10.9385	86.4044
10.9154	86.3331
10.8925	86.3137
10.8697	86.2816
10.8469	86.2144
10.8243	86.2657
10.8017	86.3207
10.7793	86.2404
10.7569	86.2114
10.7346	86.1952
10.7125	86.1585
10.6904	86.1843
10.6684	86.155
10.6465	86.0165
10.6247	85.9493
10.6029	85.9665
10.5813	85.9663
10.5597	85.8525
10.5383	85.8094
10.5169	85.7402
10.4956	85.6983
10.4744	85.72
10.4533	85.6927
10.4323	85.6287
10.4113	85.4318
10.3904	85.371
10.3697	85.4201
10.349	85.3329
10.3284	85.222
10.3078	85.2277
10.2874	85.2036
10.267	85.1699
10.2467	85.1339
10.2265	85.0186
10.2064	84.9896
10.1863	84.8885
10.1663	84.8648
10.1464	84.8796
10.1266	84.8086
10.1069	84.7218
10.0872	84.6726
10.0676	84.6528
10.0481	84.656
10.0287	84.6296
10.0093	84.6109
9.99005	84.6493
9.97084	84.565
9.95169	84.4558
9.93263	84.4325
9.91364	84.4361
9.89472	84.4607
9.87587	84.4748
9.8571	84.4118
9.83839	84.3137
9.81976	84.3208
9.80119	84.3784
9.78271	84.3349
9.76428	84.3951
9.74592	84.4772
9.72764	84.423
9.70943	84.4549
9.69128	84.4774
9.6732	84.3565
9.65518	84.3025
9.63724	84.3592
9.61935	84.4329
9.60155	84.5095
9.5838	84.5533
9.56611	84.5022
9.5485	84.5369
9.53094	84.6496
9.51345	84.6428
9.49604	84.5104
9.47867	84.5596
9.46137	84.7151
9.44414	84.7754
9.42697	84.7984
9.40986	84.9278
9.39281	84.9594
9.37583	84.9549
9.35891	85.0291
9.34204	85.0331
9.32524	85.0281
9.3085	85.1041
9.29182	85.1537
9.27519	85.1607
9.25863	85.1733
9.24213	85.2359
9.22568	85.1935
9.2093	85.1587
9.19297	85.2283
9.17669	85.3337
9.16048	85.3748
9.14433	85.413
9.12823	85.5371
9.11218	85.5261
9.0962	85.4849
9.08027	85.5359
9.06439	85.5934
9.04858	85.6351
9.03281	85.6925
9.0171	85.7613
9.00145	85.7555
8.98585	85.6914
8.9703	85.7156
8.9548	85.772
8.93937	85.8157
8.92398	85.9048
8.90865	85.9491
8.89337	85.8526
8.87814	85.757
8.86296	85.8588
8.84784	85.8586
8.83277	85.8442
8.81774	85.8519
8.80277	85.8314
8.78786	85.9237
8.77298	85.9791
8.75816	85.9863
8.7434	85.9325
8.72868	85.8261
8.714	85.7838
8.69938	85.8119
8.68481	85.9247
8.67029	85.9962
8.65581	86.0146
8.64139	86.0068
8.62701	86.1483
8.61268	86.1834
8.5984	86.0741
8.58416	86.1641
8.56997	86.2561
8.55583	86.3497
8.54174	86.4984
8.52769	86.5406
8.51368	86.5806
8.49973	86.532
8.48582	86.6052
8.47195	86.6421
8.45813	86.6619
8.44436	86.764
8.43062	86.8629
8.41693	86.9213
8.4033	86.9337
8.3897	86.9332
8.37614	87.0223
8.36264	87.1023
8.34917	87.0988
8.33574	87.0685
8.32236	87.1324
8.30903	87.3508
8.29573	87.4026
8.28248	87.3363
8.26927	87.4059
8.2561	87.4636
8.24298	87.4781
8.2299	87.4925
8.21685	87.5348
8.20385	87.5857
8.19089	87.5819
8.17797	87.6182
8.16509	87.6805
8.15225	87.7495
8.13946	87.7914
8.1267	87.8681
8.11398	87.8791
8.10131	87.8606
8.08867	87.897
8.07606	87.9347
8.0635	87.8974
8.05099	87.9264
8.0385	87.9378
8.02606	87.9968
8.01366	88.0322
8.00129	87.9885
7.98896	88.0024
7.97667	88.0895
7.96442	88.2246
7.9522	88.3203
7.94002	88.358
7.92788	88.3423
7.91578	88.4391
7.90371	88.5212
7.89168	88.5838
7.87969	88.6293
7.86773	88.6439
7.85581	88.6872
7.84392	88.7168
7.83207	88.8077
7.82026	88.8994
7.80849	88.9051
7.79674	88.9206
7.78503	88.9232
7.77337	88.9138
7.76173	88.9115
7.75012	88.9304
7.73856	88.9819
7.72703	88.9848
7.71553	88.9436
7.70406	88.9389
7.69263	89.0058
7.68123	89.0102
7.66987	88.9804
7.65855	88.9427
7.64725	88.9535
7.63598	89.0398
7.62475	89.0672
7.61356	89.0777
7.60239	89.0314
7.59126	89.0186
7.58017	89.0032
7.5691	89.0245
7.55806	89.0837
7.54707	89.0314
7.5361	88.977
7.52516	88.9961
7.51425	89.0523
7.50338	89.0529
7.49253	89.015
7.48172	89.0668
7.47094	89.0465
7.46019	88.9504
7.44947	88.8896
7.43879	88.8174
7.42813	88.7409
7.4175	88.7651
7.4069	88.8022
7.39634	88.7312
7.3858	88.6432
7.37529	88.5735
7.36482	88.5351
7.35437	88.487
7.34396	88.4341
7.33357	88.4177
7.32321	88.3083
7.31288	88.2195
7.30258	88.1517
7.29231	88.1061
7.28207	88.1217
7.27185	88.099
7.26167	88.0328
7.25152	87.9349
7.24139	87.9241
7.23129	87.9175
7.22122	87.8646
7.21117	87.838
7.20116	87.822
7.19117	87.7941
7.18121	87.8509
7.17128	87.8976
7.16137	87.8243
7.1515	87.799
7.14164	87.828
7.13182	87.793
7.12203	87.759
7.11225	87.7507
7.10251	87.6942
7.0928	87.6564
7.08311	87.6699
7.07344	87.6878
7.06381	87.7411
7.0542	87.8471
7.04461	87.96
7.03506	87.8895
7.02552	87.8539
7.01601	87.8652
7.00653	87.8551
6.99708	87.8558
6.98765	87.801
6.97824	87.7582
6.96886	87.847
6.95951	87.8981
6.95018	87.7699
6.94087	87.7898
6.9316	87.7964
6.92234	87.7963
6.91311	87.8168
6.90391	87.818
6.89473	87.786
6.88557	87.8117
6.87644	87.9404
6.86733	88.1705
6.85824	88.1318
6.84918	87.8473
6.84015	87.7575
6.83114	87.8757
6.82215	87.9086
6.81319	87.8032
6.80424	87.8355
6.79532	87.992
6.78643	88.0359
6.77756	87.93
6.76871	87.8456
6.75989	87.7954
6.75109	87.8199
6.74231	87.9413
6.73355	88.0136
6.72482	88.0641
6.71611	88.1509
6.70742	88.1747
6.69875	88.0817
6.69011	88.2336
6.68149	88.4046
6.67289	88.3173
6.66431	88.2406
6.65576	88.2659
6.64722	88.5679
6.63871	88.8476
6.63022	88.7607
6.62175	88.6523
6.61331	88.6501
6.60488	88.6747
6.59648	88.8112
6.5881	88.9196
6.57974	89.0482
6.5714	89.1787
6.56308	89.0405
6.55478	89.0206
6.54651	88.9689
6.53825	88.9216
6.53001	88.9937
6.5218	89.1082
6.51361	89.0652
6.50544	89.1835
6.49729	89.5354
6.48915	89.5468
6.48104	89.3411
6.47295	89.2595
6.46488	89.182
6.45683	89.1945
6.4488	89.2882
6.44079	89.3083
6.4328	89.3915
6.42482	89.5306
6.41687	89.7715
6.40894	89.6198
6.40103	89.2946
6.39314	89.2054
6.38526	89.1444
6.37741	89.1643
6.36957	89.2061
6.36176	89.1822
6.35396	89.2126
6.34618	89.3479
6.33843	89.2134
6.33069	89.0111
6.32297	89.0107
6.31527	89.0135
6.30758	88.9592
6.29992	88.9132
6.29227	88.8457
6.28465	88.7837
6.27704	88.7607
6.26945	88.7461
6.26188	88.7882
6.25432	88.7962
6.24679	88.7923
6.23927	88.775
6.23177	88.7329
6.22429	88.762
6.21683	88.7925
6.20938	88.7501
6.20195	88.6856
6.19454	88.7728
6.18715	88.9869
6.17978	88.8518
6.17242	88.6344
6.16508	88.6373
6.15776	88.5993
6.15045	88.5613
6.14317	88.6358
6.1359	88.6642
6.12864	88.7424
6.12141	88.9829
6.11419	89.2174
6.10699	89.1683
6.0998	89.0848
6.09263	89.1191
6.08549	89.1878
6.07835	89.3157
6.07123	89.4157
6.06413	89.3585
6.05705	89.4972
6.04998	89.8639
6.04293	89.6983
6.0359	89.4392
6.02888	89.3111
6.02187	89.3271
6.01489	89.4988
6.00792	89.5349
6.00096	89.4645
5.99403	89.6268
5.98711	89.6769
5.9802	89.6398
5.97331	89.6844
5.96644	89.578
5.95958	89.4367
5.95274	89.4406
5.94591	89.5661
5.9391	89.8396
5.9323	89.7673
5.92552	89.536
5.91876	89.4866
5.91201	89.4926
5.90528	89.5706
5.89856	89.8507
5.89186	89.8869
5.88517	89.9308
5.8785	89.9448
5.87184	89.7635
5.8652	89.7986
5.85857	89.7173
5.85196	89.6327
5.84536	89.6223
5.83878	89.6864
5.83221	89.7773
5.82566	89.8634
5.81912	89.8421
5.81259	89.7352
5.80608	89.7745
5.79959	89.8285
5.79311	89.8199
5.78665	89.8259
5.78019	89.851
5.77376	89.9617
5.76734	90.1423
5.76093	90.0309
5.75453	89.9212
5.74815	89.9648
5.74179	89.9158
5.73543	89.8936
5.7291	89.9158
5.72277	89.9652
5.71646	90.0081
5.71017	90.0559
5.70389	89.9842
5.69762	89.9564
5.69136	90.0343
5.68513	89.9947
5.6789	89.9333
5.67268	89.9333
5.66648	89.9525
5.6603	90.0166
5.65413	90.0237
5.64797	90.0308
5.64182	90.0884
5.63569	90.0114
5.62957	89.9515
5.62347	89.9724
5.61737	89.9717
5.61129	89.9164
5.60522	89.8651
5.59917	89.8052
5.59313	89.7161
5.5871	89.6421
5.58109	89.6035
5.57509	89.5314
5.5691	89.4638
5.56312	89.4388
5.55716	89.4758
5.55121	89.6002
5.54528	89.6879
5.53935	89.6981
5.53344	89.7932
5.52754	89.9054
5.52166	89.9722
5.51578	89.9473
5.50992	89.9089
5.50407	89.9027
5.49823	89.867
5.49241	89.9408
5.4866	90.0453
5.4808	90.0203
5.47501	89.9919
5.46923	90.0673
5.46347	90.1581
5.45772	90.141
5.45198	90.0822
5.44625	90.0157
5.44054	90.036
5.43484	90.1368
5.42914	90.1512
5.42347	90.1879
5.4178	90.1179
5.41214	89.9934
5.4065	89.9807
5.40087	89.9623
5.39525	90.0001
5.38964	90.0341
5.38404	90.0789
5.37846	90.1012
5.37288	90.0463
5.36732	90.0044
5.36177	90.0501
5.35623	90.0732
5.35071	90.0784
5.34519	90.0473
5.33968	90.0254
5.33419	90.0334
5.32871	90.0159
5.32324	90.0489
5.31778	90.1066
5.31233	90.0805
5.30689	90.0479
5.30147	90.0106
5.29605	89.9977
5.29065	90.0212
5.28525	90.0507
5.27987	90.1129
5.2745	90.15
5.26914	90.1317
5.26379	90.1613
5.25845	90.1379
5.25312	90.1099
5.24781	90.134
5.2425	90.1885
5.23721	90.2089
5.23192	90.2
5.22665	90.2114
5.22138	90.1646
5.21613	90.193
5.21089	90.2342
5.20566	90.2618
5.20044	90.2734
5.19522	90.2552
5.19002	90.2346
5.18483	90.2232
5.17965	90.2157
5.17448	90.214
5.16933	90.2298
5.16418	90.1996
5.15904	90.1461
5.15391	90.1528
5.14879	90.2035
5.14368	90.2404
5.13859	90.2084
5.1335	90.1658
5.12842	90.2321
5.12335	90.3141
5.1183	90.2838
5.11325	90.2241
5.10821	90.2071
5.10318	90.2211
5.09817	90.1782
5.09316	90.1963
5.08816	90.2219
5.08317	90.2205
5.07819	90.2204
5.07322	90.2736
5.06826	90.273
5.06331	90.2313
5.05837	90.2494
5.05344	90.2708
5.04852	90.2622
5.04361	90.222
5.03871	90.1767
5.03382	90.1979
5.02894	90.2461
5.02406	90.2818
5.0192	90.3097
5.01435	90.288
5.0095	90.2552
5.00467	90.2678
4.99984	90.2945
4.99502	90.2874
4.99021	90.2717
4.98542	90.2462
4.98063	90.2417
4.97585	90.2158
4.97108	90.2033
4.96632	90.2338
4.96156	90.3152
4.95682	90.3484
4.95209	90.3436
4.94736	90.3344
4.94264	90.315
4.93794	90.3231
4.93324	90.3378
4.92855	90.3315
4.92387	90.2912
4.9192	90.2983
4.91453	90.3239
4.90988	90.3055
4.90524	90.3338
4.9006	90.3218
4.89597	90.3397
4.89135	90.3699
4.88674	90.3503
4.88214	90.3915
4.87755	90.393
4.87296	90.3683
4.86839	90.3482
4.86382	90.3691
4.85926	90.4118
4.85471	90.3668
4.85017	90.3171
4.84564	90.3306
4.84111	90.3715
4.8366	90.3722
4.83209	90.3508
4.82759	90.3816
4.8231	90.3807
4.81862	90.4036
4.81415	90.4705
4.80968	90.469
4.80522	90.3714
4.80077	90.3634
4.79633	90.4015
4.7919	90.3875
4.78747	90.3653
4.78306	90.3518
4.77865	90.3464
4.77425	90.3294
4.76986	90.3634
4.76547	90.3437
4.7611	90.3377
4.75673	90.3468
4.75237	90.4065
4.74802	90.4081
4.74367	90.3147
4.73934	90.309
4.73501	90.343
4.73069	90.3815
4.72638	90.3739
4.72207	90.3482
4.71777	90.33
4.71348	90.3357
4.7092	90.2985
4.70493	90.2892
4.70066	90.2631
4.69641	90.3076
4.69216	90.3063
4.68791	90.2772
4.68368	90.2677
4.67945	90.3378
4.67523	90.4404
4.67102	90.4634
4.66682	90.3838
4.66262	90.3146
4.65843	90.2933
4.65425	90.2916
4.65007	90.3086
4.64591	90.3404
4.64175	90.3515
4.6376	90.3227
4.63345	90.3069
4.62932	90.2837
4.62519	90.2543
4.62106	90.2686
4.61695	90.2794
4.61284	90.3208
4.60874	90.3447
4.60465	90.3175
4.60056	90.3385
4.59648	90.3596
4.59241	90.3452
4.58835	90.3413
4.58429	90.3332
4.58024	90.3399
4.5762	90.335
4.57216	90.3821
4.56814	90.3902
4.56411	90.3205
4.5601	90.2791
4.55609	90.2692
4.55209	90.2767
4.5481	90.3047
4.54411	90.3547
4.54013	90.4269
4.53616	90.4359
4.5322	90.332
4.52824	90.3447
4.52429	90.3818
4.52034	90.3176
4.51641	90.3183
4.51247	90.378
4.50855	90.3609
4.50463	90.3143
4.50072	90.281
4.49682	90.2648
4.49292	90.2985
4.48903	90.3655
4.48515	90.4223
4.48127	90.438
4.4774	90.419
4.47354	90.3565
4.46968	90.3028
4.46584	90.315
4.46199	90.297
4.45815	90.3109
4.45432	90.3584
4.4505	90.3726
4.44668	90.4339
4.44287	90.4572
4.43907	90.4464
4.43527	90.3997
4.43148	90.3302
4.4277	90.2868
4.42392	90.2873
4.42015	90.3423
4.41638	90.4019
4.41262	90.3907
4.40887	90.3393
4.40513	90.3396
4.40139	90.3128
4.39765	90.293
4.39393	90.3711
4.39021	90.3819
4.38649	90.4025
4.38278	90.3911
4.37908	90.3188
4.37539	90.2952
4.3717	90.3317
4.36801	90.3268
4.36434	90.3117
4.36067	90.321
4.357	90.3147
4.35335	90.3058
4.34969	90.3316
4.34605	90.3353
4.34241	90.2935
4.33877	90.3053
4.33514	90.3181
4.33152	90.2664
4.32791	90.1828
4.3243	90.1429
4.32069	90.1441
4.3171	90.1093
4.31351	90.0794
4.30992	90.0446
4.30634	89.9715
4.30277	89.8895
4.2992	89.8555
4.29564	89.8459
4.29208	89.8204
4.28853	89.7751
4.28499	89.7333
4.28145	89.7323
4.27792	89.6784
4.27439	89.7064
4.27087	89.7569
4.26735	89.7718
4.26384	89.8748
4.26034	90.098
4.25684	90.2641
4.25335	90.0989
4.24986	89.8608
4.24638	89.7196
4.24291	89.561
4.23944	89.4748
4.23598	89.495
4.23252	89.5352
4.22906	89.4791
4.22562	89.5052
4.22218	89.6484
4.21874	89.7625
4.21531	89.8462
4.21189	89.9881
4.20847	90.0966
4.20506	90.1537
4.20165	90.1846
4.19825	90.2118
4.19485	90.2634
4.19146	90.2943
4.18807	90.3345
4.18469	90.3378
4.18132	90.3009
4.17795	90.2887
4.17458	90.3054
4.17123	90.2974
4.16787	90.2993
4.16453	90.2611
4.16118	90.2662
4.15785	90.2931
4.15451	90.2418
4.15119	90.2219
4.14787	90.2584
4.14455	90.3056
4.14124	90.2617
4.13794	90.2262
4.13464	90.2826
4.13134	90.2741
4.12805	90.2282
4.12477	90.2196
4.12149	90.1979
4.11822	90.1962
4.11495	90.2038
4.11168	90.2062
4.10843	90.2731
4.10517	90.3242
4.10192	90.2759
4.09868	90.2313
4.09545	90.1776
4.09221	90.1277
4.08899	90.1293
4.08576	90.1578
4.08255	90.1759
4.07933	90.1786
4.07613	90.1691
4.07292	90.2059
4.06973	90.1955
4.06654	90.1743
4.06335	90.1425
4.06017	90.1532
4.05699	90.1321
4.05382	90.0966
4.05065	90.1048
4.04749	90.098
4.04433	90.1482
4.04118	90.1205
4.03803	90.1119
4.03489	90.1002
4.03175	90.0703
4.02862	90.0727
4.02549	90.0709
4.02237	90.0565
4.01925	89.995
4.01614	89.9036
4.01303	89.8395
4.00993	89.8753
4.00683	89.8974
4.00373	89.8452
4.00064	89.7698
3.99756	89.7529
3.99448	89.7467
3.9914	89.6972
3.98833	89.6482
3.98527	89.6357
3.98221	89.6218
3.97915	89.628
3.9761	89.6297
3.97305	89.5585
3.97001	89.5356
3.96697	89.553
3.96394	89.5135
3.96091	89.5364
3.95789	89.6433
3.95487	89.6749
3.95186	89.6265
3.94885	89.6051
3.94584	89.6434
3.94284	89.7566
3.93984	89.8256
3.93685	89.8665
3.93386	89.857
3.93088	89.8323
3.9279	89.843
3.92493	89.858
3.92196	89.8712
3.919	89.8556
3.91604	89.8697
3.91308	89.8942
3.91013	89.8712
3.90718	89.8896
3.90424	89.931
3.9013	89.8728
3.89837	89.8203
3.89544	89.8333
3.89252	89.8653
3.8896	89.9277
3.88668	89.9231
3.88377	89.8728
3.88086	89.8617
3.87796	89.8734
3.87506	89.9859
3.87217	89.9888
3.86928	89.8196
3.86639	89.8052
3.86351	89.9027
3.86064	89.838
3.85776	89.7885
3.8549	89.8127
3.85203	89.7985
3.84917	89.8201
3.84631	89.8613
3.84346	89.9831
3.84062	90.0221
3.83777	89.9611
3.83494	89.962
3.8321	90.0162
3.82927	89.9854
3.82644	89.9159
3.82362	89.9192
3.82081	89.8921
3.81799	89.9065
3.81518	89.8684
3.81238	89.8746
3.80958	89.9391
3.80678	89.9664
3.80399	89.9927
3.8012	90.0612
3.79841	90.0659
3.79563	90.0059
3.79286	89.9909
3.79008	89.9989
3.78731	89.9582
3.78455	89.9702
3.78179	89.9974
3.77903	90.0081
3.77628	90.0064
3.77353	90.0003
3.77079	90.0101
3.76805	90.0328
3.76531	90.0446
3.76258	90.022
3.75985	90.0053
3.75713	89.9671
3.7544	89.9727
3.75169	90.0006
3.74898	90.0463
3.74627	90.0457
3.74356	90.0006
3.74086	90.0082
3.73816	90.0497
3.73547	90.0657
3.73278	90.0214
3.7301	89.9897
3.72741	89.9951
3.72474	90.0295
3.72206	90.0014
3.71939	90.035
3.71673	90.0744
3.71406	90.0056
3.71141	90.0091
3.70875	90.0588
3.7061	90.0821
3.70345	90.0419
3.70081	89.9726
3.69817	89.9906
3.69553	90.0559
3.6929	90.0452
3.69027	90.0102
3.68765	89.9906
3.68503	90.0168
3.68241	89.9593
3.6798	89.9583
3.67719	89.9446
3.67458	89.9374
3.67198	89.9468
3.66938	89.9192
3.66678	89.9108
3.66419	89.9019
3.66161	89.9057
3.65902	89.9547
3.65644	90.0506
3.65387	90.0692
3.65129	89.9857
3.64872	89.9772
3.64616	89.9984
3.64359	89.9612
3.64103	89.914
3.63848	89.9442
3.63593	89.9674
3.63338	89.9306
3.63084	89.9235
3.6283	90.0416
3.62576	90.0073
3.62322	89.8936
3.62069	89.86
3.61817	89.8613
3.61564	89.8583
3.61312	89.8989
3.61061	89.8959
3.6081	89.8649
3.60559	89.8675
3.60308	89.8459
3.60058	89.8171
3.59808	89.8323
3.59558	89.8668
3.59309	89.8806
3.59061	89.8797
3.58812	89.8847
3.58564	89.9088
3.58316	89.8921
3.58069	89.7899
3.57822	89.8355
3.57575	89.8618
3.57328	89.831
3.57082	89.8208
3.56836	89.8059
3.56591	89.7971
3.56346	89.7738
3.56101	89.7698
3.55857	89.8481
3.55613	89.8799
3.55369	89.8809
3.55126	89.8201
3.54883	89.8042
3.5464	89.8359
3.54397	89.8111
3.54155	89.7463
3.53914	89.6934
3.53672	89.6691
3.53431	89.6978
3.5319	89.7281
3.5295	89.7165
3.5271	89.6947
3.5247	89.6425
3.52231	89.6447
3.51991	89.6258
3.51753	89.5368
3.51514	89.5407
3.51276	89.5584
3.51038	89.4704
3.50801	89.4306
3.50563	89.3874
3.50327	89.3426
3.5009	89.3746
3.49854	89.3322
3.49618	89.2696
3.49382	89.2702
3.49147	89.2805
3.48912	89.2982
3.48677	89.2911
3.48443	89.2569
3.48209	89.312
3.47975	89.3459
3.47742	89.3367
3.47509	89.3409
3.47276	89.2861
3.47044	89.2674
3.46812	89.2578
3.4658	89.2709
3.46348	89.3335
3.46117	89.3461
3.45886	89.3258
3.45656	89.3502
3.45425	89.3693
3.45195	89.3452
3.44966	89.3473
3.44736	89.304
3.44507	89.2261
3.44279	89.2186
3.4405	89.2446
3.43822	89.2519
3.43594	89.2986
3.43367	89.3455
3.43139	89.269
3.42912	89.1679
3.42686	89.1276
3.42459	89.1649
3.42233	89.219
3.42007	89.1971
3.41782	89.1118
3.41557	89.1479
3.41332	89.1119
3.41108	88.9931
3.40883	88.9906
3.40659	89.081
3.40435	89.0975
3.40212	89.0832
3.39989	89.0578
3.39766	89.1591
3.39544	89.2932
3.39322	89.2629
3.391	89.2148
3.38878	89.2703
3.38657	89.2092
3.38436	89.147
3.38215	89.0903
3.37994	89.0645
3.37774	89.0317
3.37554	89.0444
3.37335	89.1428
3.37115	89.266
3.36896	89.3574
3.36678	89.3298
3.36459	89.1735
3.36241	89.112
3.36023	89.2415
3.35805	89.2915
3.35588	89.2623
3.35371	89.2654
3.35154	89.3204
3.34938	89.3334
3.34721	89.2312
3.34505	89.2681
3.3429	89.3275
3.34074	89.3225
3.33859	89.3385
3.33644	89.3676
3.3343	89.3931
3.33215	89.3769
3.33001	89.3735
3.32788	89.407
3.32574	89.4378
3.32361	89.4787
3.32148	89.4624
3.31936	89.4446
3.31723	89.4395
3.31511	89.4346
3.31299	89.4737
3.31088	89.4023
3.30876	89.3749
3.30665	89.4901
3.30455	89.503
3.30244	89.4502
3.30034	89.4385
3.29824	89.4066
3.29614	89.441
3.29405	89.421
3.29196	89.4456
3.28987	89.5684
3.28778	89.5502
3.2857	89.4723
3.28362	89.4505
3.28154	89.4736
3.27946	89.4425
3.27739	89.4134
3.27532	89.4815
3.27325	89.4922
3.27119	89.4395
3.26913	89.4559
3.26707	89.4406
3.26501	89.4373
3.26295	89.4108
3.2609	89.3661
3.25885	89.3359
3.2568	89.2481
3.25476	89.3208
3.25272	89.422
3.25068	89.3979
3.24864	89.3132
3.24661	89.2664
3.24458	89.444
3.24255	89.4556
3.24052	89.4196
3.2385	89.3974
3.23648	89.3467
3.23446	89.3181
3.23244	89.2841
3.23043	89.3561
3.22841	89.4103
3.2264	89.4217
3.2244	89.4067
3.22239	89.3808
3.22039	89.313
3.21839	89.2997
3.2164	89.3083
3.2144	89.2941
3.21241	89.2158
3.21042	89.3013
3.20844	89.3691
3.20645	89.3381
3.20447	89.2789
3.20249	89.2683
3.20051	89.2778
3.19854	89.2311
3.19657	89.132
3.1946	89.1866
3.19263	89.2507
3.19067	89.2752
3.1887	89.2541
3.18674	89.2603
3.18479	89.2088
3.18283	89.1381
3.18088	89.1525
3.17893	89.1082
3.17698	89.1203
3.17504	89.2308
3.17309	89.2053
3.17115	89.1595
3.16921	89.2299
3.16728	89.2867
3.16534	89.2109
3.16341	89.1517
3.16148	89.1474
3.15956	89.1309
3.15763	89.125
3.15571	89.1308
3.15379	89.1839
3.15187	89.1241
3.14996	89.0976
3.14805	89.1552
3.14614	89.1792
3.14423	89.1638
3.14232	89.1609
3.14042	89.1368
3.13852	89.1343
3.13662	89.0774
3.13472	89.0468
3.13283	88.9876
3.13094	88.9745
3.12905	89.0299
3.12716	88.9877
3.12528	88.9769
3.12339	89.0535
3.12151	89.0707
3.11964	89.1325
3.11776	89.1728
3.11589	89.1122
3.11401	89.0113
3.11214	89.0205
3.11028	88.9601
3.10841	88.8398
3.10655	88.858
3.10469	88.9522
3.10283	89.0186
3.10098	89.0699
3.09912	89.0745
3.09727	88.9711
3.09542	88.8929
3.09358	88.9101
3.09173	88.9852
3.08989	89.0423
3.08805	89.0474
3.08621	88.9657
3.08437	88.8773
3.08254	88.9128
3.08071	88.919
3.07888	88.9177
3.07705	88.9269
3.07523	88.9149
3.0734	88.9265
3.07158	88.9144
3.06977	88.8964
3.06795	88.8865
3.06613	88.7441
3.06432	88.7565
3.06251	88.86
3.0607	88.8761
3.0589	88.8707
3.0571	88.8432
3.05529	88.9281
3.05349	88.9798
3.0517	88.9522
3.0499	88.9114
3.04811	88.8701
3.04632	88.8756
3.04453	88.8558
3.04274	88.8027
3.04096	88.7973
3.03918	88.8979
3.0374	88.8579
3.03562	88.7123
3.03384	88.7062
3.03207	88.7351
3.03029	88.8606
3.02852	88.9444
3.02676	88.8465
3.02499	88.7534
3.02323	88.7848
3.02146	88.7866
3.0197	88.7162
3.01795	88.7555
3.01619	88.8797
3.01444	88.8211
3.01269	88.6944
3.01094	88.7855
3.00919	88.9622
3.00744	88.9207
3.0057	88.7815
3.00396	88.7449
3.00222	88.6557
3.00048	88.6321
2.99875	88.6894
2.99701	88.7526
2.99528	88.8574
2.99355	88.835
2.99183	88.7667
2.9901	88.7708
2.98838	88.8069
2.98666	88.8668
2.98494	88.8842
2.98322	88.8698
2.9815	88.8764
2.97979	88.8655
2.97808	88.748
2.97637	88.6978
2.97466	88.7142
2.97295	88.6829
2.97125	88.6824
2.96955	88.8104
2.96785	88.8443
2.96615	88.7439
2.96446	88.6975
2.96276	88.662
2.96107	88.7208
2.95938	88.7515
2.95769	88.6872
2.95601	88.723
2.95432	88.776
2.95264	88.8028
2.95096	88.8028
2.94928	88.7393
2.9476	88.7111
2.94593	88.734
2.94425	88.6827
2.94258	88.6595
2.94092	88.7628
2.93925	88.7996
2.93758	88.6793
2.93592	88.6361
2.93426	88.6014
2.9326	88.6581
2.93094	88.7917
2.92928	88.762
2.92763	88.6466
2.92598	88.6681
2.92433	88.7189
2.92268	88.7463
2.92103	88.7882
2.91939	88.8548
2.91775	88.7339
2.9161	88.6631
2.91447	88.7918
2.91283	88.7711
2.91119	88.6529
2.90956	88.7749
2.90793	88.7933
2.9063	88.6578
2.90467	88.625
2.90304	88.6806
2.90142	88.8023
2.89979	88.7483
2.89817	88.62
2.89656	88.6802
2.89494	88.7119
2.89332	88.6517
2.89171	88.7497
2.8901	88.82
2.88849	88.8297
2.88688	88.7993
2.88527	88.6118
2.88367	88.5931
2.88206	88.6593
2.88046	88.6834
2.87886	88.7128
2.87727	88.7553
2.87567	88.7373
2.87408	88.7188
2.87248	88.7622
2.87089	88.7724
2.8693	88.8586
2.86772	88.8159
2.86613	88.8185
2.86455	88.884
2.86297	88.9152
2.86139	88.8306
2.85981	88.7535
2.85823	88.7279
2.85666	88.7285
2.85508	88.7865
2.85351	88.7588
2.85194	88.6675
2.85038	88.5716
2.84881	88.6529
2.84724	88.7697
2.84568	88.7102
2.84412	88.6247
2.84256	88.6597
2.841	88.7312
2.83945	88.6469
2.83789	88.7151
2.83634	88.7767
2.83479	88.7626
2.83324	88.7572
2.83169	88.7292
2.83015	88.8284
2.82861	88.8016
2.82706	88.8225
2.82552	88.7559
2.82398	88.568
2.82245	88.5402
2.82091	88.6926
2.81938	88.6679
2.81784	88.5673
2.81631	88.5951
2.81479	88.6888
2.81326	88.6727
2.81173	88.5658
2.81021	88.4282
2.80869	88.4938
2.80716	88.8399
2.80565	88.8459
2.80413	88.776
2.80261	88.8815
2.8011	88.7519
2.79959	88.6082
2.79808	88.4516
2.79657	88.4317
2.79506	88.5029
2.79355	88.3517
2.79205	88.5467
2.79055	88.9068
2.78904	88.6048
2.78754	88.51
2.78605	88.4539
2.78455	88.2834
2.78306	88.1906
2.78156	88.1847
2.78007	88.4859
2.77858	88.7558
2.77709	88.7689
2.77561	88.3941
2.77412	88.3736
2.77264	88.5001
2.77116	88.5184
2.76968	88.5143
2.7682	88.4487
2.76672	88.4647
2.76524	88.4126
2.76377	88.3196
2.7623	88.335
2.76083	88.3876
2.75936	88.446
2.75789	88.627
2.75642	88.7599
2.75496	88.8664
2.7535	88.8578
2.75203	88.6282
2.75057	88.5344
2.74912	88.5962
2.74766	88.6934
2.7462	88.6043
2.74475	88.6658
2.7433	88.8368
2.74185	89.0174
2.7404	89.0111
2.73895	88.8746
2.7375	88.8078
2.73606	88.9549
2.73462	89.0464
2.73318	88.9879
2.73174	88.9027
2.7303	88.845
2.72886	88.8884
2.72742	89.0598
2.72599	89.2375
2.72456	89.3087
2.72313	89.101
2.7217	89.1513
2.72027	89.4345
2.71884	89.2678
2.71742	89.069
2.71599	89.1619
2.71457	89.279
2.71315	89.3188
2.71173	89.4777
2.71032	89.5865
2.7089	89.5364
2.70748	89.4017
2.70607	89.2138
2.70466	89.2111
2.70325	89.3218
2.70184	89.4566
2.70043	89.4903
2.69903	89.4097
2.69762	89.4654
2.69622	89.7204
2.69482	89.8725
2.69342	89.8374
2.69202	89.6367
2.69062	89.6186
2.68923	89.6884
2.68783	89.7039
2.68644	89.7422
2.68505	89.7537
2.68366	89.8188
2.68227	89.8183
2.68089	89.7758
2.6795	89.8564
2.67812	89.9514
2.67673	90.1772
2.67535	90.1803
2.67397	89.8882
2.6726	89.8216
2.67122	90.1952
2.66984	90.3258
2.66847	90.1093
2.6671	90.08
2.66572	90.1484
2.66435	90.0402
2.66299	89.9432
2.66162	89.9455
2.66025	89.8792
2.65889	89.8591
2.65753	89.9007
2.65616	89.8901
2.65481	89.7933
2.65345	89.8666
2.65209	89.8768
2.65073	89.827
2.64938	89.8786
2.64803	89.8779
2.64667	89.9327
2.64532	89.9483
2.64397	89.8309
2.64263	89.8214
2.64128	89.8941
2.63994	89.8456
2.63859	89.7415
2.63725	89.8574
2.63591	89.8689
2.63457	89.7878
2.63323	89.8106
2.6319	89.929
2.63056	90.0588
2.62923	89.9795
2.62789	89.9403
2.62656	89.9946
2.62523	89.8673
2.6239	89.7039
2.62258	89.7333
2.62125	89.8735
2.61993	89.8581
2.6186	89.8276
2.61728	90.0814
2.61596	90.0433
2.61464	89.9212
2.61332	89.8639
2.61201	89.8111
2.61069	89.8736
2.60938	89.9063
2.60807	89.8543
2.60675	90.0238
2.60544	90.1093
2.60414	89.9049
2.60283	89.8638
2.60152	89.9108
2.60022	89.9129
2.59891	89.8731
2.59761	89.8452
2.59631	89.9657
2.59501	90.2465
2.59371	90.1223
2.59242	89.864
2.59112	89.883
2.58983	89.9519
2.58853	89.9023
2.58724	89.9255
2.58595	89.8563
2.58466	89.8057
2.58338	89.9207
2.58209	89.9656
2.5808	90.0559
2.57952	90.0126
2.57824	89.9358
2.57695	89.9159
2.57567	89.9236
2.5744	89.94
2.57312	89.8163
2.57184	89.7613
2.57057	89.8544
2.56929	89.808
2.56802	89.6669
2.56675	89.6693
2.56548	89.8073
2.56421	89.8653
2.56294	89.9688
2.56168	89.9392
2.56041	89.7943
2.55915	89.72
2.55789	89.8095
2.55662	89.8741
2.55536	89.7622
2.5541	89.7061
2.55285	89.7568
2.55159	89.9178
2.55034	89.953
2.54908	89.8609
2.54783	89.8992
2.54658	89.8523
2.54533	89.8068
2.54408	89.7464
2.54283	89.7074
2.54159	89.667
2.54034	89.6477
2.5391	89.6736
2.53785	89.816
2.53661	89.9081
2.53537	89.7831
2.53413	89.7876
2.53289	89.8492
2.53166	89.7826
2.53042	89.7663
2.52919	89.8065
2.52795	89.6935
2.52672	89.7177
2.52549	89.84
2.52426	89.763
2.52303	89.7031
2.52181	89.6813
2.52058	89.7765
2.51936	89.798
2.51813	89.7224
2.51691	89.6843
2.51569	89.7248
2.51447	89.7631
2.51325	89.7798
2.51203	89.6451
2.51082	89.5498
2.5096	89.612
2.50839	89.7043
2.50717	89.7819
2.50596	89.7839
2.50475	89.6371
2.50354	89.7151
2.50233	89.792
2.50113	89.8229
2.49992	89.8874
2.49872	89.8287
2.49751	89.7719
2.49631	89.7929
2.49511	89.7716
2.49391	89.6606
2.49271	89.6071
2.49151	89.6194
2.49031	89.6239
2.48912	89.6426
2.48792	89.6522
2.48673	89.7196
2.48554	89.7436
2.48435	89.6304
2.48316	89.5994
2.48197	89.6956
2.48078	89.6891
2.4796	89.6288
2.47841	89.6497
2.47723	89.7314
2.47604	89.7561
2.47486	89.6827
2.47368	89.6609
2.4725	89.7491
2.47132	89.7526
2.47014	89.7456
2.46897	89.7406
2.46779	89.7393
2.46662	89.7398
2.46545	89.5701
2.46427	89.5842
2.4631	89.7449
2.46193	89.8212
2.46077	89.785
2.4596	89.7157
2.45843	89.7189
2.45727	89.6814
2.4561	89.5033
2.45494	89.4646
2.45378	89.5464
2.45262	89.731
2.45146	89.7546
2.4503	89.7272
2.44914	89.7077
2.44799	89.7243
2.44683	89.6492
2.44568	89.5101
2.44452	89.6021
2.44337	89.6866
2.44222	89.679
2.44107	89.642
2.43992	89.6863
2.43877	89.7425
2.43763	89.6582
2.43648	89.6964
2.43534	89.7435
2.43419	89.6042
2.43305	89.705
2.43191	89.6698
2.43077	89.6498
2.42963	89.7462
2.42849	89.7253
2.42736	89.6483
2.42622	89.626
2.42509	89.7234
2.42395	89.6766
2.42282	89.4803
2.42169	89.5689
2.42056	89.734
2.41943	89.6994
2.4183	89.5525
2.41717	89.6594
2.41605	89.7573
2.41492	89.8447
2.4138	89.7344
2.41267	89.6776
2.41155	89.711
2.41043	89.609
2.40931	89.6133
2.40819	89.6382
2.40707	89.7541
2.40595	89.8205
2.40484	89.7403
2.40372	89.6025
2.40261	89.6632
2.4015	89.7335
2.40039	89.7391
2.39928	89.7143
2.39817	89.6147
2.39706	89.6367
2.39595	89.8261
2.39484	89.8463
2.39374	89.6516
2.39263	89.5664
2.39153	89.545
2.39043	89.593
2.38932	89.6179
2.38822	89.6197
2.38712	89.6306
2.38603	89.6262
2.38493	89.6552
2.38383	89.6291
2.38274	89.5968
2.38164	89.5818
2.38055	89.5775
2.37946	89.6966
2.37836	89.6812
2.37727	89.5995
2.37618	89.6518
2.3751	89.6569
2.37401	89.5657
2.37292	89.6161
2.37184	89.7491
2.37075	89.7231
2.36967	89.6755
2.36859	89.6478
2.3675	89.7378
2.36642	89.7465
2.36534	89.604
2.36427	89.6095
2.36319	89.6584
2.36211	89.6633
2.36104	89.6793
2.35996	89.7053
2.35889	89.6449
2.35781	89.5816
2.35674	89.5213
2.35567	89.5214
2.3546	89.5459
2.35353	89.5118
2.35247	89.3824
2.3514	89.3685
2.35033	89.4768
2.34927	89.6456
2.3482	89.6372
2.34714	89.5395
2.34608	89.5274
2.34502	89.6354
2.34396	89.7421
2.3429	89.62
2.34184	89.5494
2.34078	89.5682
2.33973	89.719
2.33867	89.7693
2.33762	89.5817
2.33656	89.4498
2.33551	89.4756
2.33446	89.5806
2.33341	89.6655
2.33236	89.6414
2.33131	89.7201
2.33026	89.6722
2.32922	89.4767
2.32817	89.4864
2.32712	89.4874
2.32608	89.5419
2.32504	89.5635
2.324	89.6247
2.32295	89.6774
2.32191	89.7078
2.32087	89.7084
2.31984	89.6786
2.3188	89.7121
2.31776	89.601
2.31673	89.5004
2.31569	89.5538
2.31466	89.5463
2.31362	89.4685
2.31259	89.5252
2.31156	89.7402
2.31053	89.8582
2.3095	89.6504
2.30847	89.5165
2.30745	89.5979
2.30642	89.5726
2.3054	89.4531
2.30437	89.5266
2.30335	89.6347
2.30232	89.6426
2.3013	89.5584
2.30028	89.4597
2.29926	89.4044
2.29824	89.4384
2.29722	89.5544
2.29621	89.5813
2.29519	89.6009
2.29417	89.6801
2.29316	89.6704
2.29215	89.6712
2.29113	89.7593
2.29012	89.6626
2.28911	89.6208
2.2881	89.5612
2.28709	89.539
2.28608	89.4675
2.28507	89.4047
2.28407	89.4576
2.28306	89.442
2.28206	89.4807
2.28105	89.3762
2.28005	89.2647
2.27905	89.4088
2.27805	89.5579
2.27705	89.5826
2.27605	89.6342
2.27505	89.6545
2.27405	89.5662
2.27305	89.5523
2.27206	89.7349
2.27106	89.6903
2.27007	89.6286
2.26907	89.6056
2.26808	89.4625
2.26709	89.3761
2.2661	89.4012
2.26511	89.4375
2.26412	89.4565
2.26313	89.4582
2.26214	89.4814
2.26116	89.4425
2.26017	89.3758
2.25919	89.5227
2.2582	89.5561
2.25722	89.5544
2.25624	89.6114
2.25526	89.5205
2.25428	89.4415
2.2533	89.4753
2.25232	89.5658
2.25134	89.5763
2.25036	89.5838
2.24939	89.5038
2.24841	89.3561
2.24744	89.3953
2.24646	89.4653
2.24549	89.4413
2.24452	89.3766
2.24355	89.2809
2.24257	89.2852
2.24161	89.4596
2.24064	89.5288
2.23967	89.53
2.2387	89.5513
2.23774	89.6396
2.23677	89.6786
2.23581	89.5548
2.23484	89.4507
2.23388	89.4173
2.23292	89.4036
2.23196	89.4264
2.231	89.4926
2.23004	89.5259
2.22908	89.5356
2.22812	89.5191
2.22716	89.5798
2.22621	89.6246
2.22525	89.4799
2.2243	89.4206
2.22334	89.449
2.22239	89.5132
2.22144	89.6986
2.22049	89.7401
2.21953	89.5209
2.21859	89.399
2.21764	89.4938
2.21669	89.5174
2.21574	89.433
2.21479	89.4152
2.21385	89.5803
2.2129	89.6499
2.21196	89.531
2.21102	89.4503
2.21007	89.4751
2.20913	89.5453
2.20819	89.5689
2.20725	89.5318
2.20631	89.4947
2.20537	89.4517
2.20444	89.5359
2.2035	89.4711
2.20256	89.5214
2.20163	89.6357
2.20069	89.6895
2.19976	89.5501
2.19883	89.2247
2.19789	89.1376
2.19696	89.2781
2.19603	89.3564
2.1951	89.3744
2.19417	89.533
2.19325	89.4617
2.19232	89.4116
2.19139	89.4819
2.19047	89.5047
2.18954	89.4939
2.18862	89.3063
2.18769	89.2851
2.18677	89.3275
2.18585	89.377
2.18493	89.5358
2.18401	89.4948
2.18309	89.4961
2.18217	89.561
2.18125	89.5881
2.18033	89.6388
2.17942	89.7258
2.1785	89.601
2.17759	89.4154
2.17667	89.3741
2.17576	89.4132
2.17485	89.2947
2.17393	89.2942
2.17302	89.4299
2.17211	89.5441
2.1712	89.3792
2.17029	89.4461
2.16939	89.6474
2.16848	89.5311
2.16757	89.2962
2.16667	89.3058
2.16576	89.4079
2.16486	89.3222
2.16395	89.2321
2.16305	89.3201
2.16215	89.5192
2.16125	89.5152
2.16035	89.3807
2.15945	89.3302
2.15855	89.3944
2.15765	89.4858
2.15675	89.4832
2.15586	89.5287
2.15496	89.4763
2.15406	89.4173
2.15317	89.5579
2.15228	89.5532
2.15138	89.4472
2.15049	89.5314
2.1496	89.4054
2.14871	89.2967
2.14782	89.3781
2.14693	89.2093
2.14604	89.1729
2.14515	89.1937
2.14427	89.381
2.14338	89.6382
2.14249	89.5529
2.14161	89.3474
2.14072	89.7202
2.13984	89.8483
2.13896	89.4319
2.13808	89.2575
2.13719	89.3509
2.13631	89.4067
2.13543	89.2687
2.13455	89.4377
2.13368	89.5464
2.1328	89.4684
2.13192	89.3869
2.13105	89.3765
2.13017	89.3633
2.1293	89.2201
2.12842	89.1526
2.12755	89.2274
2.12668	89.3902
2.1258	89.4405
2.12493	89.5339
2.12406	89.5026
2.12319	89.5133
2.12232	89.6601
2.12145	89.634
2.12059	89.5062
2.11972	89.3087
2.11885	89.1111
2.11799	89.1717
2.11712	89.3138
2.11626	89.4449
2.1154	89.4244
2.11453	89.2441
2.11367	89.14
2.11281	89.3282
2.11195	89.7066
2.11109	89.653
2.11023	89.3456
2.10937	89.3371
2.10851	89.3708
2.10766	89.254
2.1068	89.3781
2.10594	89.4404
2.10509	89.2682
2.10423	89.2141
2.10338	89.2163
2.10253	89.3368
2.10168	89.4071
2.10082	89.3519
2.09997	89.3048
2.09912	89.2686
2.09827	89.3304
2.09742	89.4082
2.09658	89.3515
2.09573	89.3215
2.09488	89.3519
2.09404	89.3526
2.09319	89.5528
2.09235	89.5328
2.0915	89.3808
2.09066	89.3795
2.08982	89.2784
2.08897	89.2089
2.08813	89.2585
2.08729	89.2274
2.08645	89.2953
2.08561	89.5397
2.08477	89.5069
2.08394	89.4221
2.0831	89.2646
2.08226	89.3306
2.08143	89.4199
2.08059	89.351
2.07976	89.3094
2.07892	89.2429
2.07809	89.2453
2.07726	89.5019
2.07643	89.5048
2.07559	89.2948
2.07476	89.1698
2.07393	89.2016
2.0731	89.2578
2.07228	89.3918
2.07145	89.3797
2.07062	89.2766
2.06979	89.2557
2.06897	89.2659
2.06814	89.4467
2.06732	89.5173
2.06649	89.31
2.06567	89.2645
2.06485	89.3423
2.06403	89.3519
2.0632	89.2812
2.06238	89.0963
2.06156	89.2696
2.06074	89.3272
2.05993	89.2767
2.05911	89.3506
2.05829	89.3501
2.05747	89.2958
2.05666	89.2341
2.05584	89.2653
2.05503	89.3848
2.05421	89.3836
2.0534	89.5332
2.05259	89.5212
2.05177	89.297
2.05096	89.2097
2.05015	89.3077
2.04934	89.4288
2.04853	89.5581
2.04772	89.374
2.04691	89.162
2.04611	89.0317
2.0453	89.2075
2.04449	89.2348
2.04369	89.1003
2.04288	89.0027
2.04208	89.146
2.04127	89.32
2.04047	89.2925
2.03967	89.2682
2.03886	89.5656
2.03806	89.5895
2.03726	89.245
2.03646	89.1712
2.03566	89.2114
2.03486	89.1137
2.03407	88.9675
2.03327	88.8815
2.03247	89.1476
2.03167	89.2569
2.03088	89.1197
2.03008	88.9784
2.02929	89.0769
2.0285	89.3083
2.0277	89.2617
2.02691	89.3515
2.02612	89.5982
2.02533	89.6226
2.02453	89.33
2.02374	89.0905
2.02295	89.2939
2.02217	89.4408
2.02138	89.2633
2.02059	89.1043
2.0198	89.4051
2.01902	89.3469
2.01823	89.1703
2.01744	89.2901
2.01666	89.3596
2.01588	89.2416
2.01509	89.1341
2.01431	89.1693
2.01353	89.2775
2.01275	89.1973
2.01196	89.1351
2.01118	89.425
2.0104	89.501
2.00963	89.2322
2.00885	89.17
2.00807	89.2778
2.00729	89.2964
2.00651	89.2796
2.00574	89.4784
2.00496	89.4125
2.00419	89.0573
2.00341	89.0239
2.00264	89.1488
2.00187	89.1803
2.00109	89.1414
2.00032	88.8373
