Name: Anorthite (Feldspar) (NaSi,CaAl)AlSi_2O_8
Type: Mineral
Class: Silicates
Subclass: Tectosilicates
Particle Size: 0-45um
Sample No.: TS-5A
Owner: JPL
Wavelength range: IR
Origin: 
Collected by JPL
Description:   





Measurement: Hemispherical reflectance
First Column: X
Second Column: Y
X Units:  Wavelength (micrometers)
Y Units:  Reflectance (percent)
First X Value: 15.3853
Last X Value: 2.00032
Number of X Values: 2256
Additional information: ts05aa.txt
 
15.3853	3.21917
15.3397	2.78764
15.2945	2.31262
15.2495	2.04458
15.2048	2.05468
15.1603	2.1492
15.1161	2.25152
15.0722	2.17843
15.0285	1.95555
14.9851	1.87843
14.9419	2.04449
14.8989	1.95359
14.8563	1.68238
14.8138	1.6774
14.7716	1.80387
14.7296	1.88556
14.6879	1.94858
14.6464	1.83725
14.6052	1.81202
14.5641	1.79003
14.5233	1.89454
14.4828	1.89125
14.4424	1.75754
14.4023	1.74354
14.3624	1.95398
14.3227	2.04075
14.2833	2.0967
14.244	2.18706
14.205	2.26724
14.1662	2.50848
14.1276	2.57931
14.0892	2.62918
14.051	2.71511
14.0131	2.83246
13.9753	3.03545
13.9377	2.90703
13.9004	2.73616
13.8632	2.75223
13.8262	2.73072
13.7895	2.7025
13.7529	2.58654
13.7165	2.46505
13.6803	2.41738
13.6443	2.30011
13.6085	2.30463
13.5729	2.52862
13.5374	2.76663
13.5022	2.71759
13.4671	2.72508
13.4322	2.83769
13.3975	2.93066
13.363	3.00167
13.3286	2.85659
13.2944	2.72911
13.2604	2.82477
13.2266	2.79581
13.193	2.67981
13.1595	2.59609
13.1262	2.52923
13.093	2.4641
13.06	2.51525
13.0272	2.75475
12.9946	2.9335
12.9621	2.789
12.9298	2.55044
12.8976	2.6019
12.8656	2.80761
12.8337	3.02218
12.8021	3.26912
12.7705	3.54576
12.7391	3.90638
12.7079	4.36037
12.6769	4.71538
12.6459	5.16639
12.6152	5.503
12.5845	5.82118
12.5541	6.11201
12.5238	6.40597
12.4936	6.85459
12.4635	7.27448
12.4337	7.58409
12.4039	7.86347
12.3743	8.08474
12.3448	8.28552
12.3155	8.38137
12.2863	8.4474
12.2573	8.51881
12.2284	8.69533
12.1996	8.8101
12.171	8.88921
12.1425	9.08067
12.1141	9.05203
12.0859	9.01005
12.0578	9.14579
12.0298	9.33783
12.0019	9.38558
11.9742	9.1926
11.9466	9.13826
11.9192	9.1517
11.8918	9.04927
11.8646	9.01216
11.8375	8.90231
11.8106	8.86675
11.7837	8.79933
11.757	8.71118
11.7304	8.51477
11.7039	8.42384
11.6776	8.39288
11.6513	8.08082
11.6252	7.76541
11.5992	7.64213
11.5733	7.55182
11.5475	7.44608
11.5219	7.37605
11.4963	7.26144
11.4709	7.16109
11.4455	7.11315
11.4203	6.99395
11.3952	6.88302
11.3702	6.75983
11.3454	6.71953
11.3206	6.6767
11.2959	6.42011
11.2714	6.34283
11.2469	6.30923
11.2226	6.23313
11.1983	6.0986
11.1742	6.06507
11.1502	6.14297
11.1263	6.22978
11.1024	6.15298
11.0787	6.06179
11.0551	6.05705
11.0316	6.04075
11.0081	6.12651
10.9848	6.09137
10.9616	6.00615
10.9385	6.04398
10.9154	6.00948
10.8925	6.05389
10.8697	6.06109
10.8469	6.03967
10.8243	6.14128
10.8017	6.13149
10.7793	6.08931
10.7569	6.06348
10.7346	6.04573
10.7125	5.96617
10.6904	5.80628
10.6684	5.80667
10.6465	5.79544
10.6247	5.73323
10.6029	5.72497
10.5813	5.64627
10.5597	5.60286
10.5383	5.54442
10.5169	5.51274
10.4956	5.52426
10.4744	5.38797
10.4533	5.18114
10.4323	5.07305
10.4113	5.08078
10.3904	4.9614
10.3697	4.72285
10.349	4.52752
10.3284	4.45158
10.3078	4.20164
10.2874	3.98603
10.267	4.02378
10.2467	4.01578
10.2265	3.92641
10.2064	4.00665
10.1863	4.13616
10.1663	4.07287
10.1464	3.92921
10.1266	3.84354
10.1069	3.79651
10.0872	3.80264
10.0676	3.80969
10.0481	3.70866
10.0287	3.61568
10.0093	3.54329
9.99005	3.42184
9.97084	3.41714
9.95169	3.51959
9.93263	3.63618
9.91364	3.62317
9.89472	3.55097
9.87587	3.49712
9.8571	3.4649
9.83839	3.48775
9.81976	3.59703
9.80119	3.79018
9.78271	3.77809
9.76428	3.79847
9.74592	3.93214
9.72764	3.90333
9.70943	3.79933
9.69128	3.8161
9.6732	3.74889
9.65518	3.73631
9.63724	3.66038
9.61935	3.60543
9.60155	3.55997
9.5838	3.41158
9.56611	3.18158
9.5485	3.02616
9.53094	2.91945
9.51345	2.75328
9.49604	2.68328
9.47867	2.64198
9.46137	2.49055
9.44414	2.39139
9.42697	2.30575
9.40986	2.34858
9.39281	2.21168
9.37583	2.0996
9.35891	2.18552
9.34204	2.23085
9.32524	2.36029
9.3085	2.40639
9.29182	2.31634
9.27519	2.2838
9.25863	2.42588
9.24213	2.40477
9.22568	2.46874
9.2093	2.46644
9.19297	2.45754
9.17669	2.576
9.16048	2.72216
9.14433	2.88836
9.12823	2.8432
9.11218	2.96206
9.0962	3.07901
9.08027	3.10734
9.06439	3.22998
9.04858	3.35226
9.03281	3.42328
9.0171	3.47017
9.00145	3.48894
8.98585	3.47135
8.9703	3.37673
8.9548	3.27062
8.93937	3.33408
8.92398	3.55486
8.90865	3.55857
8.89337	3.4629
8.87814	3.5083
8.86296	3.61541
8.84784	3.74516
8.83277	3.68097
8.81774	3.64446
8.80277	3.80365
8.78786	3.85284
8.77298	3.87336
8.75816	4.12638
8.7434	4.18573
8.72868	4.06939
8.714	4.0081
8.69938	3.93079
8.68481	3.98703
8.67029	3.99835
8.65581	3.90884
8.64139	3.83472
8.62701	3.89747
8.61268	3.99128
8.5984	3.99862
8.58416	3.86805
8.56997	3.81111
8.55583	3.80845
8.54174	3.67042
8.52769	3.65496
8.51368	3.71409
8.49973	3.59225
8.48582	3.38874
8.47195	3.32048
8.45813	3.32632
8.44436	3.08159
8.43062	2.78076
8.41693	2.67257
8.4033	2.64043
8.3897	2.61537
8.37614	2.57277
8.36264	2.37309
8.34917	2.15882
8.33574	2.00119
8.32236	1.86303
8.30903	1.80247
8.29573	1.72924
8.28248	1.54938
8.26927	1.27573
8.2561	1.13633
8.24298	1.01537
8.2299	0.90808
8.21685	1.00679
8.20385	1.01078
8.19089	0.976976
8.17797	0.918448
8.16509	0.816408
8.15225	0.946147
8.13946	0.850967
8.1267	0.660363
8.11398	0.725128
8.10131	0.870167
8.08867	1.10357
8.07606	1.18565
8.0635	1.0853
8.05099	0.999181
8.0385	0.95193
8.02606	0.988572
8.01366	1.05351
8.00129	1.21361
7.98896	1.31628
7.97667	1.39903
7.96442	1.48697
7.9522	1.47052
7.94002	1.52564
7.92788	1.7583
7.91578	1.9527
7.90371	2.00824
7.89168	2.05852
7.87969	2.23198
7.86773	2.36519
7.85581	2.45388
7.84392	2.51549
7.83207	2.665
7.82026	2.85644
7.80849	2.91678
7.79674	3.02534
7.78503	3.22193
7.77337	3.40999
7.76173	3.53344
7.75012	3.6586
7.73856	3.80538
7.72703	3.96659
7.71553	4.13483
7.70406	4.27154
7.69263	4.52263
7.68123	4.71162
7.66987	4.8696
7.65855	5.06799
7.64725	5.18461
7.63598	5.35583
7.62475	5.56706
7.61356	5.6925
7.60239	5.81186
7.59126	5.96049
7.58017	6.11678
7.5691	6.23725
7.55806	6.41867
7.54707	6.58045
7.5361	6.77842
7.52516	7.01103
7.51425	7.22229
7.50338	7.35409
7.49253	7.50334
7.48172	7.73935
7.47094	7.89353
7.46019	8.00252
7.44947	8.19898
7.43879	8.35095
7.42813	8.49278
7.4175	8.64837
7.4069	8.85034
7.39634	9.01673
7.3858	9.21347
7.37529	9.32239
7.36482	9.4186
7.35437	9.65958
7.34396	9.9171
7.33357	10.0326
7.32321	10.1542
7.31288	10.2752
7.30258	10.3937
7.29231	10.5453
7.28207	10.677
7.27185	10.8132
7.26167	10.8669
7.25152	11.0633
7.24139	11.3258
7.23129	11.4329
7.22122	11.5385
7.21117	11.7331
7.20116	11.8441
7.19117	11.9173
7.18121	12.0681
7.17128	12.2301
7.16137	12.325
7.1515	12.4553
7.14164	12.5537
7.13182	12.6273
7.12203	12.7739
7.11225	12.8622
7.10251	12.9294
7.0928	13.0603
7.08311	13.1499
7.07344	13.1616
7.06381	13.2407
7.0542	13.4458
7.04461	13.5591
7.03506	13.535
7.02552	13.6163
7.01601	13.7
7.00653	13.8622
6.99708	14.0059
6.98765	14.1436
6.97824	14.2555
6.96886	14.3766
6.95951	14.5316
6.95018	14.5453
6.94087	14.5249
6.9316	14.6431
6.92234	14.8272
6.91311	14.9412
6.90391	14.9381
6.89473	14.8842
6.88557	14.9748
6.87644	15.12
6.86733	15.354
6.85824	15.4522
6.84918	15.3984
6.84015	15.4255
6.83114	15.536
6.82215	15.6421
6.81319	15.6666
6.80424	15.8101
6.79532	16.0693
6.78643	16.1233
6.77756	16.0852
6.76871	16.2388
6.75989	16.4274
6.75109	16.5083
6.74231	16.523
6.73355	16.6619
6.72482	16.8107
6.71611	16.8924
6.70742	16.8881
6.69875	16.8194
6.69011	16.9348
6.68149	17.1208
6.67289	17.0742
6.66431	17.0255
6.65576	17.0406
6.64722	17.2211
6.63871	17.4839
6.63022	17.421
6.62175	17.3533
6.61331	17.4461
6.60488	17.5021
6.59648	17.6327
6.5881	17.6564
6.57974	17.775
6.5714	17.9636
6.56308	17.952
6.55478	18.0102
6.54651	18.0561
6.53825	18.0299
6.53001	18.1043
6.5218	18.2365
6.51361	18.2012
6.50544	18.266
6.49729	18.5677
6.48915	18.6146
6.48104	18.4171
6.47295	18.3061
6.46488	18.2827
6.45683	18.3638
6.4488	18.4905
6.44079	18.5585
6.4328	18.5737
6.42482	18.6488
6.41687	18.9497
6.40894	18.941
6.40103	18.598
6.39314	18.4944
6.38526	18.4869
6.37741	18.512
6.36957	18.5714
6.36176	18.5208
6.35396	18.5183
6.34618	18.6268
6.33843	18.4479
6.33069	18.2927
6.32297	18.3089
6.31527	18.281
6.30758	18.3102
6.29992	18.328
6.29227	18.4119
6.28465	18.4368
6.27704	18.4137
6.26945	18.4228
6.26188	18.4828
6.25432	18.5585
6.24679	18.5855
6.23927	18.6649
6.23177	18.6962
6.22429	18.6308
6.21683	18.6394
6.20938	18.6866
6.20195	18.6694
6.19454	18.6417
6.18715	18.7503
6.17978	18.6707
6.17242	18.5378
6.16508	18.6463
6.15776	18.7821
6.15045	18.7606
6.14317	18.6552
6.1359	18.578
6.12864	18.5566
6.12141	18.7296
6.11419	18.9877
6.10699	18.8834
6.0998	18.7543
6.09263	18.7961
6.08549	18.9154
6.07835	19.1252
6.07123	19.1568
6.06413	19.0273
6.05705	19.225
6.04998	19.5925
6.04293	19.4117
6.0359	19.2002
6.02888	19.2667
6.02187	19.5209
6.01489	19.7929
6.00792	19.8641
6.00096	19.9531
5.99403	20.2295
5.98711	20.5422
5.9802	20.7
5.97331	20.9417
5.96644	21.2357
5.95958	21.4234
5.95274	21.6591
5.94591	21.9453
5.9391	22.4943
5.9323	22.8698
5.92552	22.8789
5.91876	23.0069
5.91201	23.1616
5.90528	23.4284
5.89856	23.9159
5.89186	24.1986
5.88517	24.5486
5.8785	24.8411
5.87184	24.7928
5.8652	25.0446
5.85857	25.3747
5.85196	25.6
5.84536	25.8441
5.83878	26.1969
5.83221	26.5772
5.82566	27.0143
5.81912	27.2335
5.81259	27.2458
5.80608	27.3864
5.79959	27.6341
5.79311	27.8527
5.78665	28.2475
5.78019	28.5322
5.77376	28.8202
5.76734	29.2663
5.76093	29.2991
5.75453	29.3159
5.74815	29.5453
5.74179	29.6517
5.73543	29.786
5.7291	29.9328
5.72277	30.1017
5.71646	30.2752
5.71017	30.443
5.70389	30.4853
5.69762	30.5719
5.69136	30.7194
5.68513	30.7562
5.6789	30.8959
5.67268	31.0334
5.66648	31.0193
5.6603	31.1771
5.65413	31.315
5.64797	31.497
5.64182	31.7178
5.63569	31.7394
5.62957	31.7058
5.62347	31.7486
5.61737	31.9259
5.61129	32.026
5.60522	32.0186
5.59917	32.0687
5.59313	32.095
5.5871	32.1806
5.58109	32.2983
5.57509	32.2998
5.5691	32.2059
5.56312	32.2512
5.55716	32.3012
5.55121	32.3148
5.54528	32.2808
5.53935	32.2265
5.53344	32.215
5.52754	32.2034
5.52166	32.1106
5.51578	32.0574
5.50992	31.9715
5.50407	31.9185
5.49823	31.9156
5.49241	31.7876
5.4866	31.6913
5.4808	31.6845
5.47501	31.6494
5.46923	31.7185
5.46347	31.7752
5.45772	31.6879
5.45198	31.7607
5.44625	31.8783
5.44054	32.0006
5.43484	32.1049
5.42914	32.1885
5.42347	32.4797
5.4178	32.7034
5.41214	32.8049
5.4065	32.9681
5.40087	33.1495
5.39525	33.3724
5.38964	33.6495
5.38404	33.8933
5.37846	34.0978
5.37288	34.2871
5.36732	34.4924
5.36177	34.7363
5.35623	35.0427
5.35071	35.3678
5.34519	35.5029
5.33968	35.5282
5.33419	35.6605
5.32871	35.8108
5.32324	35.9428
5.31778	36.0814
5.31233	36.2062
5.30689	36.4121
5.30147	36.592
5.29605	36.7762
5.29065	37.0386
5.28525	37.1921
5.27987	37.3989
5.2745	37.5598
5.26914	37.7027
5.26379	37.9261
5.25845	38.1972
5.25312	38.4043
5.24781	38.5668
5.2425	38.7747
5.23721	38.984
5.23192	39.1352
5.22665	39.2351
5.22138	39.3419
5.21613	39.4966
5.21089	39.662
5.20566	39.7726
5.20044	39.9628
5.19522	40.1426
5.19002	40.2574
5.18483	40.4367
5.17965	40.6577
5.17448	40.8193
5.16933	40.9783
5.16418	41.1702
5.15904	41.3502
5.15391	41.5013
5.14879	41.7601
5.14368	42.0178
5.13859	42.1517
5.1335	42.2337
5.12842	42.3856
5.12335	42.6213
5.1183	42.8381
5.11325	43.053
5.10821	43.2682
5.10318	43.4541
5.09817	43.5883
5.09316	43.7026
5.08816	43.8015
5.08317	43.8674
5.07819	43.9723
5.07322	44.1894
5.06826	44.3594
5.06331	44.4153
5.05837	44.4861
5.05344	44.6962
5.04852	44.87
5.04361	44.9558
5.03871	45.1099
5.03382	45.351
5.02894	45.5206
5.02406	45.6596
5.0192	45.8537
5.01435	46.0521
5.0095	46.2163
5.00467	46.383
4.99984	46.5439
4.99502	46.7334
4.99021	46.9425
4.98542	47.1268
4.98063	47.2998
4.97585	47.4644
4.97108	47.5608
4.96632	47.7542
4.96156	47.9312
4.95682	48.0584
4.95209	48.1326
4.94736	48.1674
4.94264	48.1791
4.93794	48.2525
4.93324	48.376
4.92855	48.5027
4.92387	48.5726
4.9192	48.6579
4.91453	48.7585
4.90988	48.8697
4.90524	48.987
4.9006	49.044
4.89597	49.078
4.89135	49.1645
4.88674	49.2824
4.88214	49.4411
4.87755	49.6064
4.87296	49.7906
4.86839	49.9425
4.86382	50.0965
4.85926	50.1622
4.85471	50.2123
4.85017	50.3161
4.84564	50.4026
4.84111	50.3765
4.8366	50.4044
4.83209	50.4917
4.82759	50.5684
4.8231	50.663
4.81862	50.7311
4.81415	50.7994
4.80968	50.9573
4.80522	51.1401
4.80077	51.2906
4.79633	51.4275
4.7919	51.5169
4.78747	51.5823
4.78306	51.6355
4.77865	51.6929
4.77425	51.7544
4.76986	51.8064
4.76547	51.9803
4.7611	52.0506
4.75673	52.102
4.75237	52.3422
4.74802	52.5378
4.74367	52.6529
4.73934	52.8328
4.73501	52.9944
4.73069	53.1237
4.72638	53.2679
4.72207	53.3409
4.71777	53.399
4.71348	53.4645
4.7092	53.5537
4.70493	53.6104
4.70066	53.5955
4.69641	53.5727
4.69216	53.577
4.68791	53.5569
4.68368	53.4731
4.67945	53.3685
4.67523	53.3256
4.67102	53.2902
4.66682	53.1731
4.66262	53.1451
4.65843	53.2046
4.65425	53.162
4.65007	53.0946
4.64591	53.0318
4.64175	53.0508
4.6376	53.1337
4.63345	53.1483
4.62932	53.2348
4.62519	53.3733
4.62106	53.564
4.61695	53.828
4.61284	54.1
4.60874	54.4502
4.60465	54.7598
4.60056	55.1052
4.59648	55.4801
4.59241	55.8044
4.58835	56.1352
4.58429	56.4767
4.58024	56.892
4.5762	57.2861
4.57216	57.6358
4.56814	57.9654
4.56411	58.2047
4.5601	58.3952
4.55609	58.6536
4.55209	58.847
4.5481	59.0154
4.54411	59.1977
4.54013	59.3461
4.53616	59.4469
4.5322	59.556
4.52824	59.6648
4.52429	59.7747
4.52034	59.8618
4.51641	59.9505
4.51247	60.0712
4.50855	60.1762
4.50463	60.2142
4.50072	60.2349
4.49682	60.3051
4.49292	60.4469
4.48903	60.5685
4.48515	60.5907
4.48127	60.5717
4.4774	60.6175
4.47354	60.7038
4.46968	60.7598
4.46584	60.815
4.46199	60.8796
4.45815	60.9551
4.45432	61.0502
4.4505	61.1273
4.44668	61.2855
4.44287	61.4642
4.43907	61.5802
4.43527	61.6897
4.43148	61.8582
4.4277	61.9895
4.42392	62.0937
4.42015	62.1936
4.41638	62.2879
4.41262	62.3578
4.40887	62.4855
4.40513	62.5585
4.40139	62.6609
4.39765	62.8027
4.39393	62.9089
4.39021	62.9508
4.38649	63.022
4.38278	63.1296
4.37908	63.2531
4.37539	63.3523
4.3717	63.4328
4.36801	63.5387
4.36434	63.6558
4.36067	63.7628
4.357	63.8618
4.35335	63.9323
4.34969	63.9884
4.34605	64.0688
4.34241	64.1396
4.33877	64.1703
4.33514	64.2306
4.33152	64.2496
4.32791	64.2818
4.3243	64.3761
4.32069	64.4262
4.3171	64.3843
4.31351	64.3463
4.30992	64.3344
4.30634	64.3135
4.30277	64.3008
4.2992	64.3615
4.29564	64.3445
4.29208	64.3543
4.28853	64.3719
4.28499	64.4373
4.28145	64.5577
4.27792	64.6349
4.27439	64.7696
4.27087	64.9874
4.26735	65.179
4.26384	65.5054
4.26034	65.9371
4.25684	66.2433
4.25335	66.1468
4.24986	65.7378
4.24638	65.3712
4.24291	65.0992
4.23944	64.9748
4.23598	64.9262
4.23252	64.9536
4.22906	65.1438
4.22562	65.3549
4.22218	65.5897
4.21874	65.9124
4.21531	66.2537
4.21189	66.5736
4.20847	66.8644
4.20506	67.0859
4.20165	67.2802
4.19825	67.4093
4.19485	67.4824
4.19146	67.6039
4.18807	67.6454
4.18469	67.6411
4.18132	67.6218
4.17795	67.6218
4.17458	67.6762
4.17123	67.7126
4.16787	67.7268
4.16453	67.7517
4.16118	67.8178
4.15785	67.8657
4.15451	67.8795
4.15119	67.8913
4.14787	67.9642
4.14455	68.0126
4.14124	68.0038
4.13794	68.0094
4.13464	68.0457
4.13134	68.0835
4.12805	68.1058
4.12477	68.1122
4.12149	68.1689
4.11822	68.2025
4.11495	68.1399
4.11168	68.1188
4.10843	68.1787
4.10517	68.2344
4.10192	68.2566
4.09868	68.2475
4.09545	68.2852
4.09221	68.3346
4.08899	68.3272
4.08576	68.333
4.08255	68.2944
4.07933	68.3354
4.07613	68.4079
4.07292	68.3836
4.06973	68.3566
4.06654	68.3749
4.06335	68.387
4.06017	68.3817
4.05699	68.3437
4.05382	68.3671
4.05065	68.4041
4.04749	68.4128
4.04433	68.4171
4.04118	68.4543
4.03803	68.4492
4.03489	68.3783
4.03175	68.3505
4.02862	68.346
4.02549	68.3596
4.02237	68.4113
4.01925	68.4074
4.01614	68.3788
4.01303	68.4126
4.00993	68.4538
4.00683	68.444
4.00373	68.4275
4.00064	68.3367
3.99756	68.2664
3.99448	68.2394
3.9914	68.1659
3.98833	68.1936
3.98527	68.1945
3.98221	68.1574
3.97915	68.1388
3.9761	68.1758
3.97305	68.1972
3.97001	68.1871
3.96697	68.1945
3.96394	68.2102
3.96091	68.2047
3.95789	68.2756
3.95487	68.3183
3.95186	68.3102
3.94885	68.2875
3.94584	68.3418
3.94284	68.4558
3.93984	68.4139
3.93685	68.3318
3.93386	68.3817
3.93088	68.4866
3.9279	68.4543
3.92493	68.3655
3.92196	68.3242
3.919	68.2956
3.91604	68.2622
3.91308	68.2896
3.91013	68.2984
3.90718	68.3369
3.90424	68.387
3.9013	68.3381
3.89837	68.2664
3.89544	68.2118
3.89252	68.1112
3.8896	68.0804
3.88668	68.1417
3.88377	68.0992
3.88086	68.0625
3.87796	68.0619
3.87506	68.0528
3.87217	68.0549
3.86928	68.0683
3.86639	68.0681
3.86351	68.0166
3.86064	67.9483
3.85776	67.903
3.8549	67.9191
3.85203	67.9098
3.84917	67.8584
3.84631	67.8391
3.84346	67.8384
3.84062	67.8395
3.83777	67.8408
3.83494	67.746
3.8321	67.6388
3.82927	67.5925
3.82644	67.5617
3.82362	67.5703
3.82081	67.587
3.81799	67.506
3.81518	67.486
3.81238	67.4587
3.80958	67.4026
3.80678	67.4433
3.80399	67.4285
3.8012	67.3686
3.79841	67.3203
3.79563	67.2945
3.79286	67.2287
3.79008	67.1538
3.78731	67.1105
3.78455	67.1448
3.78179	67.1437
3.77903	67.1011
3.77628	67.003
3.77353	66.9538
3.77079	66.9212
3.76805	66.8517
3.76531	66.8477
3.76258	66.825
3.75985	66.7555
3.75713	66.599
3.7544	66.5128
3.75169	66.5174
3.74898	66.4842
3.74627	66.4546
3.74356	66.4158
3.74086	66.3575
3.73816	66.3013
3.73547	66.218
3.73278	66.1838
3.7301	66.1075
3.72741	66.0368
3.72474	66.0052
3.72206	65.9443
3.71939	65.8807
3.71673	65.8354
3.71406	65.8628
3.71141	65.8598
3.70875	65.7831
3.7061	65.7017
3.70345	65.5921
3.70081	65.4733
3.69817	65.3929
3.69553	65.3141
3.6929	65.288
3.69027	65.3035
3.68765	65.2524
3.68503	65.1939
3.68241	65.163
3.6798	65.0928
3.67719	65.0614
3.67458	65.0271
3.67198	64.8974
3.66938	64.7868
3.66678	64.7961
3.66419	64.7531
3.66161	64.6812
3.65902	64.6304
3.65644	64.6354
3.65387	64.5776
3.65129	64.5224
3.64872	64.4285
3.64616	64.3455
3.64359	64.2978
3.64103	64.2397
3.63848	64.1488
3.63593	64.1214
3.63338	64.109
3.63084	64.0627
3.6283	64.0045
3.62576	63.9163
3.62322	63.8404
3.62069	63.7607
3.61817	63.6408
3.61564	63.5337
3.61312	63.5078
3.61061	63.4796
3.6081	63.4234
3.60559	63.3501
3.60308	63.2482
3.60058	63.1546
3.59808	63.1064
3.59558	63.0568
3.59309	63.0217
3.59061	62.9743
3.58812	62.7892
3.58564	62.6927
3.58316	62.6865
3.58069	62.62
3.57822	62.5217
3.57575	62.4906
3.57328	62.3768
3.57082	62.2437
3.56836	62.1045
3.56591	61.9909
3.56346	62.004
3.56101	61.9496
3.55857	61.8204
3.55613	61.6914
3.55369	61.6246
3.55126	61.5525
3.54883	61.4939
3.5464	61.3611
3.54397	61.2617
3.54155	61.1629
3.53914	61.0132
3.53672	60.9653
3.53431	60.8742
3.5319	60.671
3.5295	60.5758
3.5271	60.4675
3.5247	60.3321
3.52231	60.1945
3.51991	60.0528
3.51753	59.8883
3.51514	59.687
3.51276	59.4552
3.51038	59.2988
3.50801	59.1305
3.50563	58.8853
3.50327	58.7263
3.5009	58.5995
3.49854	58.6139
3.49618	58.6582
3.49382	58.5726
3.49147	58.4164
3.48912	58.3663
3.48677	58.3323
3.48443	58.2967
3.48209	58.2049
3.47975	58.0949
3.47742	57.995
3.47509	57.8569
3.47276	57.7575
3.47044	57.74
3.46812	57.6696
3.4658	57.6435
3.46348	57.6116
3.46117	57.5022
3.45886	57.3846
3.45656	57.3025
3.45425	57.2814
3.45195	57.1708
3.44966	57.0268
3.44736	56.7979
3.44507	56.619
3.44279	56.6574
3.4405	56.6151
3.43822	56.3338
3.43594	56.0576
3.43367	55.8975
3.43139	55.73
3.42912	55.4648
3.42686	55.2852
3.42459	55.1087
3.42233	54.9141
3.42007	54.7872
3.41782	54.6496
3.41557	54.4328
3.41332	54.3432
3.41108	54.2335
3.40883	54.1881
3.40659	54.2112
3.40435	54.2549
3.40212	54.203
3.39989	54.058
3.39766	53.9759
3.39544	53.9884
3.39322	53.9456
3.391	53.8924
3.38878	53.8683
3.38657	53.7878
3.38436	53.6303
3.38215	53.3729
3.37994	53.2204
3.37774	53.0931
3.37554	52.968
3.37335	52.8825
3.37115	52.7923
3.36896	52.6873
3.36678	52.6699
3.36459	52.6929
3.36241	52.7083
3.36023	52.64
3.35805	52.5498
3.35588	52.4461
3.35371	52.4045
3.35154	52.3532
3.34938	52.2591
3.34721	52.183
3.34505	52.0615
3.3429	51.9363
3.34074	51.8642
3.33859	51.7595
3.33644	51.6398
3.3343	51.5452
3.33215	51.4715
3.33001	51.4393
3.32788	51.3
3.32574	51.2147
3.32361	51.1073
3.32148	50.9495
3.31936	50.8653
3.31723	50.7712
3.31511	50.6471
3.31299	50.4934
3.31088	50.3366
3.30876	50.2862
3.30665	50.2403
3.30455	50.1164
3.30244	49.9894
3.30034	49.8711
3.29824	49.7528
3.29614	49.5925
3.29405	49.3847
3.29196	49.3235
3.28987	49.317
3.28778	49.1381
3.2857	49.0057
3.28362	48.8867
3.28154	48.8003
3.27946	48.7359
3.27739	48.5339
3.27532	48.3517
3.27325	48.1617
3.27119	48.0376
3.26913	47.9577
3.26707	47.7978
3.26501	47.6084
3.26295	47.5358
3.2609	47.4984
3.25885	47.2902
3.2568	47.1224
3.25476	46.9283
3.25272	46.7579
3.25068	46.6482
3.24864	46.4963
3.24661	46.411
3.24458	46.332
3.24255	46.1729
3.24052	45.957
3.2385	45.7986
3.23648	45.8122
3.23446	45.69
3.23244	45.4494
3.23043	45.2604
3.22841	45.0642
3.2264	44.9932
3.2244	44.9056
3.22239	44.7047
3.22039	44.5938
3.21839	44.4829
3.2164	44.3588
3.2144	44.2156
3.21241	44.1066
3.21042	43.9208
3.20844	43.811
3.20645	43.6161
3.20447	43.2974
3.20249	43.1131
3.20051	42.9802
3.19854	42.8673
3.19657	42.6149
3.1946	42.3537
3.19263	42.2377
3.19067	42.0442
3.1887	41.838
3.18674	41.6939
3.18479	41.4317
3.18283	41.1805
3.18088	40.9652
3.17893	40.7947
3.17698	40.615
3.17504	40.3746
3.17309	40.1759
3.17115	40.0895
3.16921	39.9579
3.16728	39.684
3.16534	39.5412
3.16341	39.3732
3.16148	39.1384
3.15956	39.0299
3.15763	38.9303
3.15571	38.862
3.15379	38.808
3.15187	38.6604
3.14996	38.4798
3.14805	38.3668
3.14614	38.3107
3.14423	38.3613
3.14232	38.2511
3.14042	38.1322
3.13852	38.1467
3.13662	38.1441
3.13472	38.2107
3.13283	38.2395
3.13094	38.1427
3.12905	38.1209
3.12716	38.192
3.12528	38.1702
3.12339	38.0932
3.12151	38.1207
3.11964	38.1617
3.11776	38.2589
3.11589	38.2982
3.11401	38.1917
3.11214	38.2159
3.11028	38.1883
3.10841	38.2586
3.10655	38.3606
3.10469	38.3361
3.10283	38.2843
3.10098	38.2771
3.09912	38.2518
3.09727	38.1635
3.09542	38.1255
3.09358	38.1112
3.09173	38.1839
3.08989	38.2027
3.08805	38.1172
3.08621	38.0839
3.08437	37.9599
3.08254	37.9364
3.08071	37.9177
3.07888	37.7855
3.07705	37.7925
3.07523	37.859
3.0734	37.8609
3.07158	37.7438
3.06977	37.6481
3.06795	37.5905
3.06613	37.4548
3.06432	37.3798
3.06251	37.3872
3.0607	37.3267
3.0589	37.2677
3.0571	37.001
3.05529	36.7845
3.05349	36.6362
3.0517	36.455
3.0499	36.3006
3.04811	36.2297
3.04632	36.1442
3.04453	35.883
3.04274	35.6735
3.04096	35.6381
3.03918	35.5357
3.0374	35.3926
3.03562	35.2114
3.03384	35.0794
3.03207	35.013
3.03029	34.9491
3.02852	34.8467
3.02676	34.6609
3.02499	34.4732
3.02323	34.2424
3.02146	34.0792
3.0197	33.9377
3.01795	33.8788
3.01619	33.7323
3.01444	33.5569
3.01269	33.3905
3.01094	33.2327
3.00919	32.99
3.00744	32.8153
3.0057	32.8227
3.00396	32.851
3.00222	32.8959
3.00048	32.8972
2.99875	32.8388
2.99701	32.9075
2.99528	32.9399
2.99355	32.7815
2.99183	32.724
2.9901	32.9242
2.98838	33.0137
2.98666	33.0266
2.98494	33.0739
2.98322	33.1367
2.9815	33.1625
2.97979	33.2323
2.97808	33.278
2.97637	33.1371
2.97466	33.0104
2.97295	32.9917
2.97125	33.0852
2.96955	33.1965
2.96785	33.1862
2.96615	33.1842
2.96446	33.1888
2.96276	33.1374
2.96107	33.0351
2.95938	32.9077
2.95769	32.7625
2.95601	32.7095
2.95432	32.753
2.95264	32.7073
2.95096	32.6314
2.94928	32.5799
2.9476	32.5126
2.94593	32.4049
2.94425	32.3005
2.94258	32.1996
2.94092	32.1211
2.93925	32.0987
2.93758	32.0205
2.93592	31.9816
2.93426	31.9588
2.9326	31.8773
2.93094	31.8303
2.92928	31.8272
2.92763	31.8974
2.92598	31.9904
2.92433	32.0929
2.92268	32.0201
2.92103	31.8828
2.91939	32.0373
2.91775	32.2366
2.9161	32.3119
2.91447	32.2702
2.91283	32.3496
2.91119	32.4513
2.90956	32.4155
2.90793	32.3435
2.9063	32.346
2.90467	32.4453
2.90304	32.4509
2.90142	32.427
2.89979	32.4041
2.89817	32.3592
2.89656	32.2082
2.89494	32.1656
2.89332	32.1551
2.89171	32.0909
2.8901	31.9448
2.88849	31.7655
2.88688	31.6383
2.88527	31.5131
2.88367	31.2358
2.88206	30.9355
2.88046	30.8357
2.87886	30.6936
2.87727	30.2845
2.87567	29.8812
2.87408	29.5789
2.87248	29.4269
2.87089	29.3403
2.8693	29.3335
2.86772	29.4445
2.86613	29.4879
2.86455	29.3532
2.86297	29.297
2.86139	29.6017
2.85981	30.1559
2.85823	30.5846
2.85666	31.0087
2.85508	31.3301
2.85351	31.4708
2.85194	31.5192
2.85038	31.6189
2.84881	31.6837
2.84724	31.7914
2.84568	31.9969
2.84412	32.2778
2.84256	32.398
2.841	32.4424
2.83945	32.5325
2.83789	32.607
2.83634	32.6125
2.83479	32.612
2.83324	32.8312
2.83169	32.8597
2.83015	32.7469
2.82861	32.7032
2.82706	32.6833
2.82552	32.6861
2.82398	32.7111
2.82245	32.6744
2.82091	32.5949
2.81938	32.5838
2.81784	32.6961
2.81631	32.7049
2.81479	32.5805
2.81326	32.5098
2.81173	32.5105
2.81021	32.5637
2.80869	32.6049
2.80716	32.6466
2.80565	32.8223
2.80413	33.0008
2.80261	33.1038
2.8011	33.0063
2.79959	32.9472
2.79808	33.0053
2.79657	33.0544
2.79506	33.0864
2.79355	33.1952
2.79205	33.328
2.79055	33.4696
2.78904	33.7429
2.78754	33.963
2.78605	33.9572
2.78455	33.8471
2.78306	33.8491
2.78156	34.0052
2.78007	34.134
2.77858	33.9435
2.77709	33.8581
2.77561	33.8527
2.77412	33.8262
2.77264	33.7379
2.77116	33.565
2.76968	33.5352
2.7682	33.5295
2.76672	33.3152
2.76524	33.1163
2.76377	33.0287
2.7623	32.8825
2.76083	32.7119
2.75936	32.4756
2.75789	32.2374
2.75642	32.3464
2.75496	32.1804
2.7535	31.7978
2.75203	31.6703
2.75057	31.7209
2.74912	31.932
2.74766	32.1941
2.7462	32.5369
2.74475	32.8237
2.7433	33.2432
2.74185	33.917
2.7404	34.5797
2.73895	34.9725
2.7375	35.2085
2.73606	35.971
2.73462	36.8359
2.73318	37.303
2.73174	37.745
2.7303	38.5698
2.72886	39.5742
2.72742	40.4141
2.72599	41.2666
2.72456	42.2197
2.72313	42.8128
2.7217	43.445
2.72027	44.1298
2.71884	44.9193
2.71742	46.3798
2.71599	47.9271
2.71457	49.3058
2.71315	50.4897
2.71173	52.0571
2.71032	53.5957
2.7089	54.7413
2.70748	55.9055
2.70607	57.2198
2.70466	58.5152
2.70325	59.9136
2.70184	61.2768
2.70043	62.3125
2.69903	63.2621
2.69762	64.4683
2.69622	65.5967
2.69482	66.545
2.69342	67.246
2.69202	67.6393
2.69062	68.1576
2.68923	68.7456
2.68783	69.2561
2.68644	69.745
2.68505	70.0441
2.68366	70.4111
2.68227	70.6698
2.68089	70.9713
2.6795	71.5035
2.67812	71.9
2.67673	72.2391
2.67535	72.2456
2.67397	72.2555
2.6726	72.5497
2.67122	73.346
2.66984	73.5146
2.66847	73.159
2.6671	73.5172
2.66572	73.7587
2.66435	73.7029
2.66299	73.378
2.66162	73.4056
2.66025	73.5331
2.65889	73.4616
2.65753	73.43
2.65616	73.7577
2.65481	73.8982
2.65345	74.0657
2.65209	74.1006
2.65073	73.8741
2.64938	73.7502
2.64803	73.8459
2.64667	74.0591
2.64532	74.2235
2.64397	74.1269
2.64263	74.0378
2.64128	73.9756
2.63994	74.0724
2.63859	74.1905
2.63725	74.1844
2.63591	74.1977
2.63457	74.4288
2.63323	74.4926
2.6319	74.6942
2.63056	74.9261
2.62923	74.6007
2.62789	74.5388
2.62656	74.8238
2.62523	74.5445
2.6239	74.371
2.62258	74.4493
2.62125	74.8505
2.61993	74.959
2.6186	74.7485
2.61728	74.9309
2.61596	74.7767
2.61464	74.5699
2.61332	74.6648
2.61201	74.6147
2.61069	74.628
2.60938	74.6761
2.60807	74.7961
2.60675	74.9046
2.60544	75.0948
2.60414	74.9356
2.60283	74.856
2.60152	74.8821
2.60022	74.7582
2.59891	74.7815
2.59761	75.0116
2.59631	75.4138
2.59501	75.8979
2.59371	75.4347
2.59242	74.8135
2.59112	74.6929
2.58983	74.8579
2.58853	75.0889
2.58724	75.1937
2.58595	75.0902
2.58466	75.2647
2.58338	75.2232
2.58209	74.9749
2.5808	75.0055
2.57952	74.8987
2.57824	75.0193
2.57695	75.0536
2.57567	74.9229
2.5744	75.1082
2.57312	75.2833
2.57184	75.0558
2.57057	75.0937
2.56929	75.185
2.56802	75.1149
2.56675	75.119
2.56548	75.1745
2.56421	75.2064
2.56294	75.2805
2.56168	75.4448
2.56041	75.3262
2.55915	75.0207
2.55789	74.9065
2.55662	74.9776
2.55536	75.0316
2.5541	75.1589
2.55285	75.3283
2.55159	75.2851
2.55034	75.2485
2.54908	75.2769
2.54783	75.2515
2.54658	75.1644
2.54533	75.2291
2.54408	75.3698
2.54283	75.3567
2.54159	75.2972
2.54034	75.3111
2.5391	75.3773
2.53785	75.388
2.53661	75.3169
2.53537	75.2246
2.53413	75.1773
2.53289	75.2734
2.53166	75.3432
2.53042	75.404
2.52919	75.3216
2.52795	75.2473
2.52672	75.2911
2.52549	75.3789
2.52426	75.404
2.52303	75.4104
2.52181	75.3939
2.52058	75.4548
2.51936	75.4968
2.51813	75.5468
2.51691	75.506
2.51569	75.4564
2.51447	75.4381
2.51325	75.4891
2.51203	75.5666
2.51082	75.5557
2.5096	75.5279
2.50839	75.403
2.50717	75.3219
2.50596	75.3731
2.50475	75.5243
2.50354	75.6056
2.50233	75.5931
2.50113	75.6133
2.49992	75.5666
2.49872	75.4944
2.49751	75.4897
2.49631	75.452
2.49511	75.5157
2.49391	75.6079
2.49271	75.6593
2.49151	75.6736
2.49031	75.631
2.48912	75.6238
2.48792	75.5963
2.48673	75.584
2.48554	75.557
2.48435	75.5723
2.48316	75.5382
2.48197	75.4087
2.48078	75.4095
2.4796	75.4997
2.47841	75.5569
2.47723	75.5211
2.47604	75.4174
2.47486	75.4134
2.47368	75.4727
2.4725	75.3641
2.47132	75.3709
2.47014	75.4126
2.46897	75.3264
2.46779	75.3172
2.46662	75.3242
2.46545	75.3242
2.46427	75.3575
2.4631	75.4742
2.46193	75.4934
2.46077	75.5178
2.4596	75.5282
2.45843	75.5461
2.45727	75.5966
2.4561	75.7217
2.45494	75.7788
2.45378	75.7037
2.45262	75.6318
2.45146	75.7702
2.4503	75.8361
2.44914	75.7522
2.44799	75.767
2.44683	75.7368
2.44568	75.883
2.44452	75.993
2.44337	76.0827
2.44222	76.0148
2.44107	75.8803
2.43992	75.9107
2.43877	75.8967
2.43763	75.8227
2.43648	75.8837
2.43534	75.9379
2.43419	75.9432
2.43305	75.9979
2.43191	75.9763
2.43077	76.1017
2.42963	76.1963
2.42849	76.1036
2.42736	76.0296
2.42622	76.0998
2.42509	76.1548
2.42395	76.2099
2.42282	76.2305
2.42169	76.2618
2.42056	76.3588
2.41943	76.3751
2.4183	76.2017
2.41717	76.1423
2.41605	76.1414
2.41492	76.1512
2.4138	76.2227
2.41267	76.248
2.41155	76.2633
2.41043	76.241
2.40931	76.1923
2.40819	76.15
2.40707	76.1719
2.40595	76.2202
2.40484	76.1952
2.40372	76.1509
2.40261	76.1391
2.4015	76.2204
2.40039	76.1437
2.39928	76.1181
2.39817	76.1714
2.39706	76.1508
2.39595	76.0203
2.39484	76.0684
2.39374	75.9924
2.39263	75.8855
2.39153	75.9998
2.39043	76.0368
2.38932	76.0023
2.38822	75.9883
2.38712	75.9314
2.38603	75.825
2.38493	75.7986
2.38383	75.885
2.38274	75.8433
2.38164	75.8003
2.38055	75.8369
2.37946	75.7647
2.37836	75.6601
2.37727	75.5681
2.37618	75.5941
2.3751	75.7138
2.37401	75.6618
2.37292	75.4798
2.37184	75.3553
2.37075	75.2747
2.36967	75.2366
2.36859	75.2839
2.3675	75.2755
2.36642	75.0729
2.36534	74.7959
2.36427	74.6621
2.36319	74.6849
2.36211	74.7142
2.36104	74.6463
2.35996	74.6079
2.35889	74.5939
2.35781	74.5731
2.35674	74.5477
2.35567	74.4691
2.3546	74.5164
2.35353	74.5098
2.35247	74.5717
2.3514	74.7051
2.35033	74.857
2.34927	74.8742
2.3482	74.795
2.34714	74.8046
2.34608	74.8296
2.34502	74.8203
2.34396	74.9329
2.3429	74.8925
2.34184	75.0192
2.34078	75.1623
2.33973	75.0467
2.33867	74.9875
2.33762	75.1976
2.33656	75.2276
2.33551	75.1458
2.33446	75.155
2.33341	75.082
2.33236	75.0743
2.33131	75.1231
2.33026	75.1429
2.32922	75.2335
2.32817	75.3193
2.32712	75.4079
2.32608	75.3946
2.32504	75.5494
2.324	75.7032
2.32295	75.6996
2.32191	75.8681
2.32087	75.9789
2.31984	75.9375
2.3188	76.0016
2.31776	76.1774
2.31673	76.2308
2.31569	76.3191
2.31466	76.4056
2.31362	76.337
2.31259	76.2376
2.31156	76.3236
2.31053	76.4399
2.3095	76.4917
2.30847	76.4191
2.30745	76.4681
2.30642	76.6047
2.3054	76.6758
2.30437	76.6578
2.30335	76.5328
2.30232	76.4652
2.3013	76.5614
2.30028	76.6994
2.29926	76.6656
2.29824	76.6554
2.29722	76.6363
2.29621	76.5482
2.29519	76.5902
2.29417	76.6645
2.29316	76.7703
2.29215	76.8626
2.29113	76.8073
2.29012	76.8574
2.28911	76.9498
2.2881	76.8884
2.28709	76.7773
2.28608	76.847
2.28507	76.9548
2.28407	77.1204
2.28306	77.101
2.28206	77.0557
2.28105	77.1263
2.28005	77.1988
2.27905	77.2129
2.27805	77.1338
2.27705	77.1412
2.27605	77.2353
2.27505	77.2715
2.27405	77.2684
2.27305	77.15
2.27206	77.1645
2.27106	77.1991
2.27007	77.187
2.26907	77.2404
2.26808	77.3264
2.26709	77.2721
2.2661	77.0639
2.26511	76.9883
2.26412	77.0757
2.26313	77.0964
2.26214	77.106
2.26116	77.0864
2.26017	77.0698
2.25919	77.0371
2.2582	77.0935
2.25722	77.1597
2.25624	77.1458
2.25526	77.2291
2.25428	77.3557
2.2533	77.3933
2.25232	77.3305
2.25134	77.1943
2.25036	77.2778
2.24939	77.3671
2.24841	77.2981
2.24744	77.3519
2.24646	77.4117
2.24549	77.4345
2.24452	77.4404
2.24355	77.4761
2.24257	77.485
2.24161	77.5866
2.24064	77.6192
2.23967	77.5097
2.2387	77.5171
2.23774	77.4818
2.23677	77.5489
2.23581	77.6939
2.23484	77.841
2.23388	77.9426
2.23292	77.8899
2.23196	77.8902
2.231	77.9731
2.23004	77.9126
2.22908	77.83
2.22812	77.7817
2.22716	77.8733
2.22621	77.9752
2.22525	77.9682
2.2243	77.9796
2.22334	78.0119
2.22239	78.0514
2.22144	78.1002
2.22049	78.1349
2.21953	78.135
2.21859	78.1502
2.21764	78.2068
2.21669	78.1051
2.21574	78.1328
2.21479	78.1082
2.21385	78.0786
2.2129	78.0661
2.21196	78.0219
2.21102	78.0859
2.21007	78.1605
2.20913	78.189
2.20819	78.1147
2.20725	78.0854
2.20631	78.1494
2.20537	78.0024
2.20444	77.9528
2.2035	78.0006
2.20256	78.0271
2.20163	78.1097
2.20069	78.1877
2.19976	78.121
2.19883	78.0856
2.19789	78.0271
2.19696	78.01
2.19603	78.1166
2.1951	78.2202
2.19417	78.1542
2.19325	78.0224
2.19232	77.9256
2.19139	77.999
2.19047	78.0303
2.18954	78.1013
2.18862	78.1859
2.18769	78.2594
2.18677	78.2677
2.18585	78.292
2.18493	78.232
2.18401	78.1551
2.18309	78.2791
2.18217	78.4035
2.18125	78.3945
2.18033	78.4161
2.17942	78.3884
2.1785	78.3872
2.17759	78.4301
2.17667	78.3725
2.17576	78.4134
2.17485	78.4991
2.17393	78.4788
2.17302	78.3985
2.17211	78.548
2.1712	78.6055
2.17029	78.5132
2.16939	78.4681
2.16848	78.4291
2.16757	78.4987
2.16667	78.5744
2.16576	78.6463
2.16486	78.6832
2.16395	78.6977
2.16305	78.7997
2.16215	78.7846
2.16125	78.6442
2.16035	78.6878
2.15945	78.9185
2.15855	78.9209
2.15765	78.8022
2.15675	78.8365
2.15586	78.8097
2.15496	78.8321
2.15406	78.9928
2.15317	79.0295
2.15228	78.9583
2.15138	78.8107
2.15049	78.8211
2.1496	78.8605
2.14871	78.9198
2.14782	78.9511
2.14693	79.0278
2.14604	79.0207
2.14515	78.9568
2.14427	78.8346
2.14338	78.916
2.14249	79.03
2.14161	78.9569
2.14072	78.9306
2.13984	78.946
2.13896	79.0084
2.13808	79.0286
2.13719	79.1219
2.13631	79.0725
2.13543	78.8941
2.13455	78.7468
2.13368	78.8323
2.1328	78.9036
2.13192	78.951
2.13105	79.029
2.13017	79.1314
2.1293	78.9761
2.12842	78.7822
2.12755	78.7112
2.12668	78.8208
2.1258	79.1464
2.12493	79.2819
2.12406	79.0975
2.12319	79.1256
2.12232	79.2406
2.12145	79.2396
2.12059	79.2028
2.11972	79.1421
2.11885	79.0804
2.11799	79.1528
2.11712	79.096
2.11626	78.9044
2.1154	78.9073
2.11453	78.8583
2.11367	78.9096
2.11281	79.1552
2.11195	79.2105
2.11109	79.1829
2.11023	79.2128
2.10937	79.2225
2.10851	79.1434
2.10766	79.1136
2.1068	79.1328
2.10594	79.0853
2.10509	79.2219
2.10423	79.2506
2.10338	79.2248
2.10253	79.1874
2.10168	79.2343
2.10082	79.1517
2.09997	79.0132
2.09912	79.0785
2.09827	79.0722
2.09742	79.2863
2.09658	79.2415
2.09573	78.9755
2.09488	78.9164
2.09404	79.0143
2.09319	79.0743
2.09235	79.2843
2.0915	79.5715
2.09066	79.3759
2.08982	79.2711
2.08897	79.0804
2.08813	79.1022
2.08729	79.2901
2.08645	79.3434
2.08561	79.1728
2.08477	79.0295
2.08394	79.2047
2.0831	79.3127
2.08226	79.2547
2.08143	79.1688
2.08059	79.2565
2.07976	79.3193
2.07892	79.4668
2.07809	79.3011
2.07726	78.7469
2.07643	78.7406
2.07559	79.2137
2.07476	79.0466
2.07393	78.6699
2.0731	79.2164
2.07228	79.3223
2.07145	79.2105
2.07062	79.2521
2.06979	79.2363
2.06897	79.2179
2.06814	78.9855
2.06732	79.0225
2.06649	79.3626
2.06567	79.4179
2.06485	79.0642
2.06403	78.8874
2.0632	78.9505
2.06238	79.0356
2.06156	79.2108
2.06074	79.2246
2.05993	79.1191
2.05911	79.0939
2.05829	79.0923
2.05747	79.2494
2.05666	79.2507
2.05584	79.1228
2.05503	79.1807
2.05421	79.2189
2.0534	79.1313
2.05259	79.157
2.05177	79.244
2.05096	79.1859
2.05015	79.1126
2.04934	79.1267
2.04853	79.0657
2.04772	79.0375
2.04691	78.9903
2.04611	78.9974
2.0453	79.0375
2.04449	79.1059
2.04369	79.083
2.04288	79.0629
2.04208	79.1372
2.04127	79.1484
2.04047	79.0634
2.03967	79.2155
2.03886	79.3365
2.03806	79.1431
2.03726	79.1635
2.03646	79.2068
2.03566	79.1269
2.03486	78.9675
2.03407	78.8324
2.03327	79.0613
2.03247	79.159
2.03167	79.0126
2.03088	78.6954
2.03008	78.5463
2.02929	78.9424
2.0285	79.4128
2.0277	79.4085
2.02691	79.2842
2.02612	79.1527
2.02533	79.117
2.02453	79.1513
2.02374	79.04
2.02295	79.1396
2.02217	79.1262
2.02138	78.9219
2.02059	78.781
2.0198	78.8399
2.01902	79.0574
2.01823	79.0044
2.01744	78.8366
2.01666	78.8695
2.01588	78.701
2.01509	78.8189
2.01431	79.1984
2.01353	79.1469
2.01275	78.9669
2.01196	78.9935
2.01118	79.0727
2.0104	79.1523
2.00963	79.0609
2.00885	78.8873
2.00807	78.9144
2.00729	78.9736
2.00651	78.991
2.00574	79.0004
2.00496	79.0322
2.00419	79.1195
2.00341	79.0507
2.00264	78.9471
2.00187	79.0072
2.00109	78.913
2.00032	78.8796
