Name: Mica Schist
Type: Rock
Class: Metamorphic
Subclass:  Schist 
Particle Size: Solid surface
Sample No.: Ward83.txt
Owner: JPL
Wavelength range:  IR 
Origin: Ward's Collection of American Rocks.  Sample locality - Manhattan Island, New York.  Collected by - JPL.
Collected by:  Ward's Natural Science
Description: A schistose rock composed of muscovite, biotite, and quartz
with small amounts of feldspar and garnet.   Geologic age: Pre-Cambrian




Measurement: Hemispherical reflectance
First Column: X
Second Column: Y
X Units: Wavelength (micrometers)
Y Units: Reflectance (percent)
First X Value: 15.3871
Last X Value: 1.9998
Number of X Values: 2257
Additional information: None

15.3871   2.89784
15.3416   3.13541
15.2964   3.33513
15.2514   3.39456
15.2066   3.33139
15.1622   3.48237
15.1180   3.78841
15.0740   3.72707
15.0303   3.62737
14.9869   3.92167
14.9437   4.05142
14.9008   3.91094
14.8581   3.97010
14.8156   3.90128
14.7734   3.83328
14.7314   4.10854
14.6897   4.11761
14.6482   3.94764
14.6069   4.19844
14.5659   4.54690
14.5251   4.51721
14.4845   4.39527
14.4442   4.41055
14.4041   4.52236
14.3642   4.29837
14.3245   4.02341
14.2850   3.83002
14.2458   3.76296
14.2068   3.80928
14.1679   3.75119
14.1293   3.70503
14.0909   3.81401
14.0528   3.96628
14.0148   4.13863
13.9770   4.25494
13.9394   4.27909
13.9021   4.34537
13.8649   4.33179
13.8279   4.32031
13.7911   4.36552
13.7546   4.33206
13.7182   4.40669
13.6820   4.58909
13.6460   4.65001
13.6101   4.71225
13.5745   4.72353
13.5391   4.77196
13.5038   4.62649
13.4687   4.80117
13.4339   4.97655
13.3991   4.90359
13.3646   4.85621
13.3302   5.07505
13.2961   4.99230
13.2621   4.74064
13.2282   4.63892
13.1946   4.70476
13.1611   4.86219
13.1278   4.98991
13.0946   4.95870
13.0616   5.12297
13.0288   5.25962
12.9962   5.31820
12.9637   5.63576
12.9313   5.97176
12.8992   6.38386
12.8672   6.82089
12.8353   7.07190
12.8036   7.19791
12.7721   7.12960
12.7407   6.91399
12.7095   6.60562
12.6784   6.22868
12.6475   6.09990
12.6167   6.29621
12.5861   6.63558
12.5556   7.12873
12.5253   7.38889
12.4951   7.09344
12.4651   6.92147
12.4352   6.65968
12.4054   6.09154
12.3758   5.45517
12.3463   4.78156
12.3170   4.43751
12.2878   4.38272
12.2588   4.52405
12.2299   4.72090
12.2011   4.86961
12.1725   4.92031
12.1439   5.13047
12.1156   5.34567
12.0873   5.46317
12.0592   5.53181
12.0312   5.58675
12.0034   5.78046
11.9757   5.95259
11.9481   6.01823
11.9206   6.13787
11.8933   6.08161
11.8661   6.01138
11.8390   6.18480
11.8120   6.33208
11.7852   6.54308
11.7584   6.67096
11.7318   6.72357
11.7053   6.86769
11.6790   6.93812
11.6527   6.98508
11.6266   7.11960
11.6006   7.31356
11.5747   7.49070
11.5489   7.62913
11.5233   7.66794
11.4977   7.72437
11.4723   7.73747
11.4469   7.79281
11.4217   7.91532
11.3966   7.98372
11.3716   8.06056
11.3468   8.09579
11.3220   8.14140
11.2973   8.27829
11.2728   8.43311
11.2483   8.55482
11.2240   8.56060
11.1997   8.60985
11.1756   8.77088
11.1515   9.00685
11.1276   9.19013
11.1038   9.37385
11.0801   9.47885
11.0564   9.68078
11.0329   9.72182
11.0095   9.90326
10.9862   9.92037
10.9629   9.92315
10.9398   9.97588
10.9168   9.94127
10.8938   9.83702
10.8710   9.87067
10.8483   9.80730
10.8256   9.79575
10.8031   9.87961
10.7806   9.80487
10.7582   9.74570
10.7360   9.74519
10.7138   9.77523
10.6917   9.91353
10.6697  10.09760
10.6478  10.28110
10.6260  10.42010
10.6042  10.47530
10.5826  10.72820
10.5610  11.05050
10.5396  11.40570
10.5182  11.70550
10.4969  12.16870
10.4757  12.59010
10.4546  12.86210
10.4335  13.09800
10.4126  13.35040
10.3917  13.76400
10.3709  14.13470
10.3502  14.51370
10.3296  14.88870
10.3091  15.13080
10.2886  15.35610
10.2683  15.71640
10.2480  16.28590
10.2277  16.81950
10.2076  17.10840
10.1876  17.36920
10.1676  17.62690
10.1477  18.04810
10.1279  18.43300
10.1081  18.79230
10.0885  19.17010
10.0689  19.54720
10.0494  19.89900
10.0299  20.18030
10.0106  20.49200
 9.9913  20.81680
 9.9720  21.27430
 9.9529  21.59580
 9.9338  21.83710
 9.9148  22.22430
 9.8959  22.61770
 9.8771  22.94780
 9.8583  23.18650
 9.8396  23.44130
 9.8210  23.70060
 9.8024  23.95110
 9.7839  24.17820
 9.7655  24.57850
 9.7471  25.06390
 9.7288  25.59980
 9.7106  26.04580
 9.6925  26.48210
 9.6744  26.97500
 9.6564  27.55260
 9.6384  28.05320
 9.6205  28.27260
 9.6027  28.33020
 9.5850  28.27840
 9.5673  28.15780
 9.5497  28.09470
 9.5321  27.95970
 9.5146  27.83950
 9.4972  27.76240
 9.4798  27.83890
 9.4625  27.97930
 9.4453  28.29590
 9.4281  28.86430
 9.4110  29.63980
 9.3940  30.44160
 9.3770  31.15730
 9.3600  31.84960
 9.3432  32.30720
 9.3264  32.60300
 9.3096  32.85530
 9.2930  32.92820
 9.2763  33.07820
 9.2598  32.91650
 9.2432  32.38920
 9.2268  31.95660
 9.2104  31.76730
 9.1941  31.47610
 9.1778  31.00280
 9.1616  30.49240
 9.1454  29.99420
 9.1293  29.48430
 9.1133  28.88450
 9.0973  28.38540
 9.0814  27.87980
 9.0655  27.36070
 9.0497  26.92140
 9.0339  26.50530
 9.0182  26.23230
 9.0025  25.94080
 8.9870  25.68810
 8.9714  25.36660
 8.9559  25.03230
 8.9405  24.74430
 8.9251  24.34270
 8.9097  23.85320
 8.8945  23.38290
 8.8792  22.99200
 8.8641  22.64130
 8.8489  22.20370
 8.8338  21.74830
 8.8188  21.39820
 8.8039  20.94120
 8.7889  20.25830
 8.7741  19.57580
 8.7592  18.94130
 8.7445  18.36300
 8.7297  17.59320
 8.7151  16.66580
 8.7005  15.93830
 8.6859  15.19340
 8.6714  14.26040
 8.6569  13.00420
 8.6425  11.81090
 8.6281  11.27590
 8.6137  11.58440
 8.5994  12.35690
 8.5852  13.07600
 8.5710  13.52770
 8.5569  13.89700
 8.5428  14.23550
 8.5287  14.16450
 8.5147  13.98640
 8.5008  13.93760
 8.4869  13.99290
 8.4730  14.04520
 8.4592  13.95990
 8.4454  13.86240
 8.4316  13.85490
 8.4180  13.88790
 8.4043  13.80810
 8.3907  13.57440
 8.3772  13.49870
 8.3637  13.48060
 8.3502  13.47490
 8.3368  13.47590
 8.3234  13.42470
 8.3100  13.37810
 8.2967  13.34130
 8.2835  13.21620
 8.2703  13.19860
 8.2571  13.13790
 8.2440  12.96240
 8.2309  12.85880
 8.2179  12.86140
 8.2049  12.68680
 8.1919  12.30700
 8.1790  11.93050
 8.1661  11.51400
 8.1532  11.03130
 8.1404  10.53090
 8.1277   9.95318
 8.1150   9.34607
 8.1023   8.76269
 8.0897   8.18415
 8.0770   7.66598
 8.0645   7.11357
 8.0520   6.61048
 8.0395   6.29722
 8.0270   5.99039
 8.0146   5.54397
 8.0023   5.14917
 7.9899   4.89443
 7.9776   4.65742
 7.9654   4.33718
 7.9532   4.01499
 7.9410   3.84572
 7.9288   3.70878
 7.9167   3.44561
 7.9047   3.30470
 7.8926   3.29739
 7.8807   3.18167
 7.8687   3.07469
 7.8568   2.99023
 7.8449   2.81908
 7.8330   2.72408
 7.8212   2.71083
 7.8094   2.63004
 7.7977   2.50454
 7.7860   2.48009
 7.7743   2.57819
 7.7627   2.62911
 7.7511   2.53410
 7.7395   2.48300
 7.7280   2.46771
 7.7165   2.39470
 7.7050   2.40944
 7.6936   2.39809
 7.6822   2.46214
 7.6708   2.54146
 7.6595   2.51682
 7.6482   2.48239
 7.6369   2.47521
 7.6257   2.39130
 7.6145   2.36731
 7.6033   2.33988
 7.5922   2.25712
 7.5811   2.29114
 7.5700   2.32059
 7.5590   2.30091
 7.5480   2.39823
 7.5370   2.49790
 7.5261   2.44303
 7.5152   2.35744
 7.5043   2.38973
 7.4935   2.35710
 7.4826   2.34399
 7.4718   2.34778
 7.4611   2.39279
 7.4504   2.40145
 7.4397   2.46707
 7.4290   2.55382
 7.4184   2.54048
 7.4078   2.50625
 7.3972   2.52807
 7.3867   2.52369
 7.3762   2.52733
 7.3657   2.58785
 7.3553   2.65290
 7.3449   2.73081
 7.3345   2.74158
 7.3241   2.70886
 7.3138   2.68408
 7.3035   2.70444
 7.2932   2.78923
 7.2830   2.97392
 7.2727   3.02753
 7.2626   2.93986
 7.2524   2.83497
 7.2423   2.84375
 7.2322   2.87766
 7.2221   2.91469
 7.2120   2.94301
 7.2020   3.01289
 7.1921   3.04676
 7.1821   2.96034
 7.1722   3.07027
 7.1623   3.13851
 7.1524   3.08414
 7.1425   3.05662
 7.1327   3.05822
 7.1229   3.12365
 7.1131   3.19707
 7.1034   3.20141
 7.0937   3.22184
 7.0840   3.25291
 7.0743   3.28854
 7.0647   3.39229
 7.0551   3.40148
 7.0455   3.33277
 7.0359   3.34315
 7.0264   3.42540
 7.0169   3.48377
 7.0074   3.40270
 6.9979   3.25871
 6.9885   3.26652
 6.9791   3.34860
 6.9697   3.35843
 6.9604   3.37285
 6.9510   3.42605
 6.9417   3.44303
 6.9324   3.51224
 6.9232   3.62560
 6.9140   3.54326
 6.9047   3.53898
 6.8956   3.59759
 6.8864   3.64509
 6.8773   3.69629
 6.8682   3.75336
 6.8591   3.72054
 6.8500   3.71825
 6.8410   3.73761
 6.8320   3.71036
 6.8230   3.79345
 6.8140   3.83209
 6.8051   3.87421
 6.7962   3.94087
 6.7873   4.00170
 6.7784   4.10313
 6.7695   4.12275
 6.7607   4.02676
 6.7519   3.99134
 6.7431   4.03110
 6.7344   4.14899
 6.7256   4.26931
 6.7169   4.29932
 6.7082   4.17389
 6.6996   4.10544
 6.6909   4.18900
 6.6823   4.33164
 6.6737   4.39788
 6.6651   4.41518
 6.6566   4.37453
 6.6480   4.37681
 6.6395   4.43481
 6.6310   4.48560
 6.6226   4.52985
 6.6141   4.53736
 6.6057   4.50101
 6.5973   4.48235
 6.5889   4.49827
 6.5805   4.58671
 6.5722   4.71608
 6.5639   4.70277
 6.5556   4.63335
 6.5473   4.65119
 6.5390   4.68465
 6.5308   4.69730
 6.5226   4.68488
 6.5144   4.67062
 6.5062   4.79124
 6.4981   4.94942
 6.4900   4.81454
 6.4818   4.70170
 6.4737   4.75183
 6.4657   4.82354
 6.4576   4.92213
 6.4496   4.88654
 6.4416   4.88843
 6.4336   5.00394
 6.4256   4.97837
 6.4177   4.93832
 6.4097   4.85712
 6.4018   4.83623
 6.3939   4.92774
 6.3860   4.94462
 6.3782   5.00605
 6.3704   5.02942
 6.3625   5.01973
 6.3547   4.98404
 6.3470   4.92983
 6.3392   4.87614
 6.3315   4.92811
 6.3237   4.89423
 6.3160   4.94020
 6.3083   5.06108
 6.3007   5.01252
 6.2930   4.95884
 6.2854   4.90969
 6.2778   4.91462
 6.2702   5.02603
 6.2626   5.04718
 6.2551   4.94339
 6.2476   4.95790
 6.2400   5.05824
 6.2325   5.02240
 6.2251   4.93658
 6.2176   4.93891
 6.2101   4.94277
 6.2027   4.82642
 6.1953   4.81505
 6.1879   4.92310
 6.1805   4.83772
 6.1732   4.69348
 6.1658   4.68736
 6.1585   4.68473
 6.1512   4.66750
 6.1439   4.69044
 6.1367   4.68051
 6.1294   4.61838
 6.1222   4.65722
 6.1149   4.74130
 6.1077   4.70379
 6.1006   4.60526
 6.0934   4.50743
 6.0862   4.43645
 6.0791   4.52808
 6.0720   4.73482
 6.0649   4.69362
 6.0578   4.65189
 6.0507   4.65415
 6.0437   4.49781
 6.0366   4.48799
 6.0296   4.49655
 6.0226   4.47680
 6.0156   4.43661
 6.0087   4.46409
 6.0017   4.47379
 5.9948   4.47299
 5.9878   4.53696
 5.9809   4.48114
 5.9740   4.52273
 5.9672   4.49669
 5.9603   4.41823
 5.9535   4.33138
 5.9466   4.34233
 5.9398   4.51280
 5.9330   4.60614
 5.9262   4.48321
 5.9195   4.40089
 5.9127   4.38593
 5.9060   4.39291
 5.8993   4.47644
 5.8926   4.56654
 5.8859   4.61853
 5.8792   4.62333
 5.8726   4.60210
 5.8659   4.66483
 5.8593   4.67941
 5.8527   4.61098
 5.8461   4.59015
 5.8395   4.66039
 5.8329   4.70888
 5.8264   4.82076
 5.8198   4.80746
 5.8133   4.64758
 5.8068   4.61948
 5.8003   4.69537
 5.7938   4.72837
 5.7874   4.70731
 5.7809   4.73540
 5.7745   4.77618
 5.7680   4.80734
 5.7616   4.74284
 5.7552   4.69266
 5.7489   4.85882
 5.7425   4.92822
 5.7361   4.92615
 5.7298   4.86803
 5.7235   4.85195
 5.7172   4.94956
 5.7109   4.89082
 5.7046   4.80453
 5.6983   4.83272
 5.6921   4.90358
 5.6858   4.90733
 5.6796   4.82560
 5.6734   4.84744
 5.6672   4.84649
 5.6610   4.88413
 5.6548   4.96312
 5.6487   4.99881
 5.6425   5.02179
 5.6364   4.90573
 5.6303   4.87735
 5.6242   4.88777
 5.6181   4.91234
 5.6120   4.97335
 5.6059   4.99362
 5.5999   4.98563
 5.5938   5.00528
 5.5878   5.01662
 5.5818   5.00143
 5.5758   4.95698
 5.5698   4.93420
 5.5638   4.93690
 5.5578   4.99074
 5.5519   5.10900
 5.5460   5.11181
 5.5400   5.06317
 5.5341   5.13757
 5.5282   5.18191
 5.5223   5.17681
 5.5164   5.19125
 5.5106   5.21830
 5.5047   5.23022
 5.4989   5.19093
 5.4931   5.20592
 5.4873   5.33184
 5.4815   5.40530
 5.4757   5.38866
 5.4699   5.39869
 5.4641   5.42314
 5.4584   5.40067
 5.4527   5.42211
 5.4469   5.42576
 5.4412   5.48834
 5.4355   5.51525
 5.4298   5.51692
 5.4241   5.54323
 5.4185   5.45740
 5.4128   5.50611
 5.4072   5.64063
 5.4015   5.67216
 5.3959   5.61892
 5.3903   5.60090
 5.3847   5.58082
 5.3791   5.59491
 5.3735   5.72758
 5.3680   5.86674
 5.3624   5.81555
 5.3569   5.79857
 5.3514   5.82945
 5.3458   5.86657
 5.3403   5.76823
 5.3348   5.77757
 5.3294   5.88364
 5.3239   5.93532
 5.3184   5.96262
 5.3130   6.00354
 5.3075   6.12523
 5.3021   6.25632
 5.2967   6.25228
 5.2913   6.24400
 5.2859   6.26675
 5.2805   6.33899
 5.2751   6.29921
 5.2698   6.31815
 5.2644   6.42936
 5.2591   6.50959
 5.2538   6.56076
 5.2485   6.62307
 5.2431   6.66154
 5.2378   6.67166
 5.2326   6.76984
 5.2273   6.85507
 5.2220   6.87327
 5.2168   6.93882
 5.2115   6.98521
 5.2063   7.05708
 5.2011   7.16484
 5.1959   7.17095
 5.1907   7.18094
 5.1855   7.22334
 5.1803   7.27232
 5.1751   7.27436
 5.1700   7.36450
 5.1648   7.43833
 5.1597   7.47690
 5.1545   7.55745
 5.1494   7.61618
 5.1443   7.55057
 5.1392   7.59030
 5.1341   7.73708
 5.1291   7.76666
 5.1240   7.70190
 5.1189   7.76929
 5.1139   7.90757
 5.1088   7.90536
 5.1038   7.89655
 5.0988   7.85649
 5.0938   7.86302
 5.0888   7.97361
 5.0838   7.88090
 5.0788   7.81985
 5.0738   7.90093
 5.0689   8.00619
 5.0639   8.05785
 5.0590   8.04005
 5.0541   8.00454
 5.0491   7.99704
 5.0442   7.97702
 5.0393   8.01662
 5.0344   8.07512
 5.0296   8.07831
 5.0247   8.07967
 5.0198   8.04101
 5.0150   8.05340
 5.0101   8.09147
 5.0053   8.08706
 5.0004   8.07745
 4.9956   8.05081
 4.9908   8.07084
 4.9860   8.08168
 4.9812   8.07932
 4.9765   8.15185
 4.9717   8.19534
 4.9669   8.13908
 4.9622   8.15865
 4.9574   8.17588
 4.9527   8.20858
 4.9480   8.28141
 4.9432   8.22044
 4.9385   8.16203
 4.9338   8.23943
 4.9291   8.31736
 4.9245   8.37397
 4.9198   8.39831
 4.9151   8.41311
 4.9105   8.45533
 4.9058   8.51596
 4.9012   8.58937
 4.8966   8.75410
 4.8919   8.79399
 4.8873   8.85771
 4.8827   8.91835
 4.8781   8.94417
 4.8736   8.99857
 4.8690   9.04312
 4.8644   9.13434
 4.8599   9.24225
 4.8553   9.26549
 4.8508   9.24879
 4.8462   9.36147
 4.8417   9.52956
 4.8372   9.55931
 4.8327   9.52331
 4.8282   9.55446
 4.8237   9.62789
 4.8192   9.67898
 4.8147   9.70936
 4.8103   9.82678
 4.8058   9.93154
 4.8014   9.92061
 4.7969   9.89210
 4.7925   9.99774
 4.7881  10.04600
 4.7836  10.03280
 4.7792  10.09620
 4.7748  10.22170
 4.7704  10.27190
 4.7660  10.28460
 4.7617  10.35320
 4.7573  10.40320
 4.7530  10.41350
 4.7486  10.46960
 4.7443  10.63600
 4.7399  10.64930
 4.7356  10.65690
 4.7313  10.74720
 4.7270  10.74210
 4.7226  10.73480
 4.7184  10.80540
 4.7141  10.86210
 4.7098  10.93440
 4.7055  10.95930
 4.7012  10.87920
 4.6970  10.87350
 4.6927  10.95470
 4.6885  10.99620
 4.6842  10.95410
 4.6800  11.00060
 4.6758  11.07750
 4.6716  11.20250
 4.6674  11.29430
 4.6632  11.35890
 4.6590  11.48150
 4.6548  11.62650
 4.6506  11.74850
 4.6465  11.79200
 4.6423  11.92190
 4.6382  12.04580
 4.6340  12.09680
 4.6299  12.09100
 4.6258  12.12390
 4.6216  12.30650
 4.6175  12.43080
 4.6134  12.48770
 4.6093  12.55530
 4.6052  12.67930
 4.6011  12.85170
 4.5971  12.89690
 4.5930  12.86490
 4.5889  12.94260
 4.5849  13.00620
 4.5808  12.99260
 4.5768  13.08590
 4.5727  13.21030
 4.5687  13.20610
 4.5647  13.18110
 4.5607  13.20730
 4.5567  13.35250
 4.5526  13.38370
 4.5487  13.28780
 4.5447  13.29800
 4.5407  13.35030
 4.5367  13.34390
 4.5328  13.26230
 4.5288  13.27760
 4.5248  13.36250
 4.5209  13.36860
 4.5170  13.27270
 4.5130  13.13190
 4.5091  13.07490
 4.5052  13.12480
 4.5013  13.15920
 4.4974  13.07940
 4.4935  13.03990
 4.4896  13.09050
 4.4857  13.10810
 4.4818  13.10160
 4.4779  13.09670
 4.4741  13.20580
 4.4702  13.28710
 4.4664  13.35130
 4.4625  13.46290
 4.4587  13.51430
 4.4549  13.49920
 4.4510  13.55840
 4.4472  13.74530
 4.4434  13.84170
 4.4396  13.84050
 4.4358  13.88380
 4.4320  13.91450
 4.4282  13.99400
 4.4245  14.12650
 4.4207  14.21750
 4.4169  14.33670
 4.4132  14.42230
 4.4094  14.57760
 4.4057  14.70520
 4.4019  14.69600
 4.3982  14.73180
 4.3945  14.84240
 4.3907  14.94600
 4.3870  14.96090
 4.3833  15.02020
 4.3796  15.13410
 4.3759  15.29770
 4.3722  15.46400
 4.3685  15.50120
 4.3649  15.54740
 4.3612  15.54680
 4.3575  15.49960
 4.3539  15.57670
 4.3502  15.71600
 4.3466  15.78460
 4.3429  15.72570
 4.3393  15.79190
 4.3357  15.88420
 4.3320  16.00480
 4.3284  16.12690
 4.3248  16.08940
 4.3212  16.04080
 4.3176  16.10040
 4.3140  16.13210
 4.3105  16.02850
 4.3069  15.95760
 4.3033  15.94770
 4.2997  15.98930
 4.2962  16.03260
 4.2926  16.09620
 4.2890  16.04660
 4.2855  15.96630
 4.2820  16.06460
 4.2784  16.21280
 4.2749  16.10620
 4.2714  16.06200
 4.2679  16.19290
 4.2644  16.22670
 4.2609  16.12180
 4.2574  16.25030
 4.2539  16.39730
 4.2504  16.36220
 4.2469  16.36680
 4.2434  16.49100
 4.2400  16.57830
 4.2365  16.48890
 4.2330  16.41380
 4.2296  16.40290
 4.2261  16.42950
 4.2227  16.53470
 4.2193  16.56660
 4.2158  16.61220
 4.2124  16.58920
 4.2090  16.54680
 4.2056  16.54540
 4.2022  16.60070
 4.1988  16.68360
 4.1954  16.67700
 4.1920  16.74400
 4.1886  16.79330
 4.1852  16.70110
 4.1818  16.61810
 4.1785  16.71850
 4.1751  16.86990
 4.1717  16.92630
 4.1684  16.90110
 4.1650  16.92100
 4.1617  17.04730
 4.1584  17.16360
 4.1550  17.11370
 4.1517  17.11290
 4.1484  17.16160
 4.1451  17.19130
 4.1418  17.21310
 4.1384  17.15990
 4.1351  17.12580
 4.1319  17.16060
 4.1286  17.26770
 4.1253  17.22350
 4.1220  17.29880
 4.1187  17.45720
 4.1155  17.45480
 4.1122  17.42910
 4.1089  17.47690
 4.1057  17.50650
 4.1024  17.53590
 4.0992  17.62370
 4.0959  17.72030
 4.0927  17.64980
 4.0895  17.50990
 4.0863  17.58470
 4.0830  17.80520
 4.0798  17.80550
 4.0766  17.78630
 4.0734  17.77170
 4.0702  17.77320
 4.0670  17.83050
 4.0639  17.91660
 4.0607  17.94820
 4.0575  18.00180
 4.0543  17.96520
 4.0511  17.94790
 4.0480  17.93310
 4.0448  17.98460
 4.0417  18.07260
 4.0385  18.07790
 4.0354  18.04160
 4.0323  17.97210
 4.0291  17.99200
 4.0260  18.04860
 4.0229  18.09620
 4.0197  18.22070
 4.0166  18.24180
 4.0135  18.11130
 4.0104  17.99090
 4.0073  18.09810
 4.0042  18.07660
 4.0011  18.08470
 3.9981  18.22380
 3.9950  18.26200
 3.9919  18.22050
 3.9888  18.20390
 3.9857  18.24440
 3.9827  18.38620
 3.9796  18.36950
 3.9766  18.27830
 3.9735  18.29540
 3.9705  18.37390
 3.9675  18.40680
 3.9644  18.44900
 3.9614  18.55210
 3.9584  18.61270
 3.9554  18.62320
 3.9523  18.63430
 3.9493  18.64410
 3.9463  18.57100
 3.9433  18.51200
 3.9403  18.72570
 3.9373  18.95990
 3.9343  18.88000
 3.9314  18.73280
 3.9284  18.79640
 3.9254  18.91060
 3.9224  18.91480
 3.9195  18.92390
 3.9165  19.00600
 3.9136  18.97240
 3.9106  18.87750
 3.9077  18.84060
 3.9047  18.86100
 3.9018  18.88080
 3.8988  18.94550
 3.8959  19.02980
 3.8930  18.96000
 3.8901  18.87270
 3.8872  18.84190
 3.8842  18.84390
 3.8813  18.90940
 3.8784  18.98700
 3.8755  18.85510
 3.8726  18.78480
 3.8697  18.95930
 3.8669  19.02310
 3.8640  18.94190
 3.8611  18.89070
 3.8582  18.75940
 3.8554  18.67310
 3.8525  18.69310
 3.8496  18.82710
 3.8468  19.00370
 3.8439  19.02180
 3.8411  18.90260
 3.8382  18.89550
 3.8354  19.02020
 3.8326  19.02950
 3.8297  18.97250
 3.8269  19.10670
 3.8241  19.15690
 3.8213  19.11890
 3.8185  19.05810
 3.8157  19.01720
 3.8128  19.04970
 3.8100  19.09860
 3.8072  18.96180
 3.8045  18.91180
 3.8017  18.93280
 3.7989  19.00130
 3.7961  19.02320
 3.7933  19.12840
 3.7906  19.16280
 3.7878  19.04760
 3.7850  18.94050
 3.7822  18.98460
 3.7795  19.06010
 3.7767  19.03930
 3.7740  18.87370
 3.7713  18.69130
 3.7685  18.66230
 3.7658  18.79070
 3.7630  18.72530
 3.7603  18.66350
 3.7576  18.71480
 3.7549  18.74810
 3.7521  18.62540
 3.7494  18.29320
 3.7467  18.28140
 3.7440  18.35490
 3.7413  18.27330
 3.7386  18.24990
 3.7359  18.32900
 3.7332  18.36120
 3.7306  18.16890
 3.7279  17.97880
 3.7252  18.11580
 3.7225  18.26290
 3.7199  18.18400
 3.7172  18.15630
 3.7145  18.22180
 3.7119  18.29810
 3.7092  18.33740
 3.7066  18.29460
 3.7039  18.31330
 3.7013  18.31130
 3.6986  18.18240
 3.6960  18.16850
 3.6934  18.20870
 3.6907  18.26350
 3.6881  18.36070
 3.6855  18.43540
 3.6829  18.39660
 3.6803  18.33430
 3.6776  18.43600
 3.6750  18.51380
 3.6724  18.44120
 3.6698  18.42310
 3.6672  18.62960
 3.6646  18.50890
 3.6620  18.52580
 3.6595  18.62690
 3.6569  18.55390
 3.6543  18.50160
 3.6517  18.37210
 3.6492  18.40860
 3.6466  18.41000
 3.6440  18.36250
 3.6415  18.46810
 3.6389  18.55540
 3.6364  18.54460
 3.6338  18.57020
 3.6313  18.53850
 3.6287  18.52720
 3.6262  18.53090
 3.6237  18.69250
 3.6211  18.70730
 3.6186  18.64600
 3.6161  18.61460
 3.6136  18.43990
 3.6111  18.29220
 3.6085  18.30070
 3.6060  18.40300
 3.6035  18.42270
 3.6010  18.45930
 3.5985  18.47350
 3.5960  18.47440
 3.5935  18.51220
 3.5910  18.48910
 3.5886  18.41180
 3.5861  18.33250
 3.5836  18.28670
 3.5811  18.23330
 3.5787  18.20280
 3.5762  18.23360
 3.5737  18.23500
 3.5713  18.24880
 3.5688  18.33180
 3.5663  18.24520
 3.5639  18.09320
 3.5614  18.11770
 3.5590  18.06270
 3.5566  17.88980
 3.5541  17.84890
 3.5517  17.87710
 3.5493  18.02520
 3.5468  18.17640
 3.5444  18.11190
 3.5420  18.01790
 3.5396  17.95330
 3.5372  17.98730
 3.5347  17.94280
 3.5323  17.85980
 3.5299  17.66810
 3.5275  17.57590
 3.5251  17.69590
 3.5227  17.74630
 3.5203  17.74980
 3.5180  17.75800
 3.5156  17.59860
 3.5132  17.49680
 3.5108  17.46430
 3.5084  17.60340
 3.5061  17.67270
 3.5037  17.45720
 3.5013  17.37000
 3.4990  17.43880
 3.4966  17.38320
 3.4943  17.29210
 3.4919  17.30630
 3.4895  17.44580
 3.4872  17.53960
 3.4849  17.40880
 3.4825  17.22490
 3.4802  17.37670
 3.4778  17.50870
 3.4755  17.54560
 3.4732  17.56870
 3.4709  17.32880
 3.4685  17.23230
 3.4662  17.37620
 3.4639  17.41540
 3.4616  17.43030
 3.4593  17.47140
 3.4570  17.38840
 3.4547  17.15680
 3.4524  17.20370
 3.4501  17.35190
 3.4478  17.22690
 3.4455  17.17470
 3.4432  17.11310
 3.4409  17.08310
 3.4386  16.98980
 3.4364  16.84170
 3.4341  16.84020
 3.4318  16.85680
 3.4295  16.75580
 3.4273  16.79430
 3.4250  16.99430
 3.4228  16.92060
 3.4205  16.81780
 3.4182  16.79640
 3.4160  16.75010
 3.4137  16.71660
 3.4115  16.57540
 3.4093  16.52760
 3.4070  16.57540
 3.4048  16.57090
 3.4025  16.61500
 3.4003  16.64060
 3.3981  16.48320
 3.3958  16.40370
 3.3936  16.54320
 3.3914  16.56400
 3.3892  16.48430
 3.3870  16.25260
 3.3848  16.19130
 3.3826  16.17280
 3.3804  16.22030
 3.3782  16.34560
 3.3760  16.39490
 3.3738  16.19780
 3.3716  16.06100
 3.3694  16.07680
 3.3672  16.17740
 3.3650  16.18380
 3.3628  15.98330
 3.3606  15.79540
 3.3585  15.81940
 3.3563  16.07540
 3.3541  16.14230
 3.3520  16.19230
 3.3498  16.25030
 3.3476  15.92760
 3.3455  15.59670
 3.3433  15.56410
 3.3411  15.70750
 3.3390  15.80860
 3.3369  15.75290
 3.3347  15.79710
 3.3326  15.91130
 3.3304  15.84310
 3.3283  15.78670
 3.3262  15.49540
 3.3240  15.31600
 3.3219  15.21960
 3.3198  15.30750
 3.3176  15.38930
 3.3155  15.35500
 3.3134  15.46410
 3.3113  15.45940
 3.3092  15.47960
 3.3071  15.37200
 3.3049  15.30230
 3.3028  15.25510
 3.3007  15.04940
 3.2986  14.95150
 3.2965  14.92860
 3.2944  14.94900
 3.2924  15.17520
 3.2903  15.15560
 3.2882  14.97740
 3.2861  15.06290
 3.2840  14.92160
 3.2819  14.86660
 3.2799  15.00140
 3.2778  14.87160
 3.2757  14.74720
 3.2736  14.75740
 3.2716  14.63550
 3.2695  14.45970
 3.2675  14.57080
 3.2654  14.56480
 3.2634  14.52930
 3.2613  14.47620
 3.2593  14.36800
 3.2572  14.46260
 3.2552  14.42640
 3.2531  14.31090
 3.2511  14.23730
 3.2490  14.29090
 3.2470  14.58750
 3.2450  14.44090
 3.2429  14.23100
 3.2409  14.28200
 3.2389  14.36170
 3.2369  14.37610
 3.2348  14.33360
 3.2328  14.13920
 3.2308  14.12260
 3.2288  14.08490
 3.2268  14.02130
 3.2248  13.94390
 3.2228  13.94570
 3.2208  13.79940
 3.2188  13.72670
 3.2168  13.95810
 3.2148  13.88110
 3.2128  13.77180
 3.2108  13.81820
 3.2088  13.76500
 3.2068  13.81240
 3.2049  13.98350
 3.2029  13.88950
 3.2009  13.55000
 3.1989  13.37670
 3.1970  13.43700
 3.1950  13.33810
 3.1930  13.36230
 3.1911  13.44470
 3.1891  13.43200
 3.1871  13.25360
 3.1852  13.25800
 3.1832  13.46480
 3.1813  13.55000
 3.1793  13.44340
 3.1774  13.16450
 3.1754  12.98890
 3.1735  13.20180
 3.1715  13.19480
 3.1696  13.18510
 3.1677  13.12800
 3.1657  13.12580
 3.1638  12.77940
 3.1619  12.52920
 3.1599  12.53400
 3.1580  12.55760
 3.1561  12.80530
 3.1542  13.12420
 3.1523  12.97370
 3.1503  12.54990
 3.1484  12.47240
 3.1465  12.59210
 3.1446  12.44110
 3.1427  12.46610
 3.1408  12.32230
 3.1389  12.20680
 3.1370  12.29600
 3.1351  12.35730
 3.1332  12.17490
 3.1313  11.95800
 3.1294  11.92230
 3.1275  11.93450
 3.1257  11.95530
 3.1238  11.91430
 3.1219  12.09530
 3.1200  12.11640
 3.1181  11.92640
 3.1163  11.74600
 3.1144  11.65600
 3.1125  11.56140
 3.1107  11.62340
 3.1088  11.50120
 3.1069  11.45270
 3.1051  11.55610
 3.1032  11.41440
 3.1014  11.67390
 3.0995  11.76080
 3.0976  11.56530
 3.0958  11.56520
 3.0940  11.61670
 3.0921  11.40780
 3.0903  11.29920
 3.0884  11.25230
 3.0866  11.18220
 3.0848  11.12260
 3.0829  11.09110
 3.0811  11.14520
 3.0793  10.96410
 3.0774  11.15620
 3.0756  11.41700
 3.0738  11.49480
 3.0720  11.38420
 3.0701  11.38070
 3.0683  11.31070
 3.0665  11.24480
 3.0647  10.90610
 3.0629  10.73360
 3.0611  10.98900
 3.0593  11.29390
 3.0575  11.18040
 3.0557  10.99890
 3.0539  11.00400
 3.0521  11.00210
 3.0503  10.66320
 3.0485  10.89710
 3.0467  10.98460
 3.0449  10.72630
 3.0431  11.07370
 3.0413  11.25520
 3.0396  10.81190
 3.0378  10.50490
 3.0360  10.59950
 3.0342  10.72600
 3.0324  10.89160
 3.0307  11.00490
 3.0289  11.16990
 3.0271  11.01550
 3.0254  10.73470
 3.0236  10.60410
 3.0218  10.57880
 3.0201  10.55170
 3.0183  10.61480
 3.0166  10.71290
 3.0148  10.80910
 3.0130  10.57310
 3.0113  10.54830
 3.0096  10.59650
 3.0078  10.61880
 3.0061  10.51960
 3.0043  10.60250
 3.0026  10.80280
 3.0008  10.78870
 2.9991  10.92820
 2.9974  10.87700
 2.9956  10.73330
 2.9939  10.57650
 2.9922  10.86890
 2.9905  10.86090
 2.9887  10.48240
 2.9870  10.16270
 2.9853  10.45300
 2.9836  10.81010
 2.9819  10.87820
 2.9802  10.75060
 2.9784  10.22220
 2.9767  10.15640
 2.9750  10.36630
 2.9733  10.22100
 2.9716  10.38260
 2.9699  10.29800
 2.9682  10.20110
 2.9665   9.95451
 2.9648  10.08990
 2.9631  10.29440
 2.9614  10.11210
 2.9597   9.98555
 2.9581  10.12870
 2.9564  10.13960
 2.9547   9.71462
 2.9530   9.59389
 2.9513   9.86658
 2.9496  10.05180
 2.9480  10.12270
 2.9463   9.92312
 2.9446   9.92224
 2.9429  10.24330
 2.9413  10.01720
 2.9396   9.58273
 2.9379   9.82246
 2.9363  10.06580
 2.9346  10.20820
 2.9330  10.08240
 2.9313   9.81988
 2.9296  10.00020
 2.9280  10.35240
 2.9263  10.10250
 2.9247   9.82716
 2.9230   9.93070
 2.9214   9.83304
 2.9197   9.43663
 2.9181   9.33113
 2.9165   9.67067
 2.9148   9.93842
 2.9132   9.63645
 2.9116   9.48537
 2.9099   9.49807
 2.9083   9.59177
 2.9067   9.63199
 2.9050   9.49753
 2.9034   9.54854
 2.9018   9.87962
 2.9002  10.26780
 2.8985  10.14090
 2.8969   9.78592
 2.8953  10.06440
 2.8937   9.83338
 2.8921   9.40061
 2.8905   9.78332
 2.8888  10.18350
 2.8872  10.10510
 2.8856   9.94321
 2.8840  10.07370
 2.8824  10.16710
 2.8808   9.86481
 2.8792   9.62982
 2.8776  10.05700
 2.8760  10.22040
 2.8744   9.90777
 2.8728   9.78796
 2.8712   9.79992
 2.8697   9.88457
 2.8681   9.94865
 2.8665   9.91326
 2.8649  10.09390
 2.8633  10.04590
 2.8617   9.86621
 2.8602   9.98790
 2.8586   9.87731
 2.8570   9.77982
 2.8554   9.94149
 2.8539   9.83362
 2.8523   9.85708
 2.8507   9.95351
 2.8492   9.64018
 2.8476   9.76077
 2.8460   9.89157
 2.8445   9.79121
 2.8429   9.80845
 2.8413   9.85584
 2.8398   9.76304
 2.8382   9.46433
 2.8367   9.26649
 2.8351   9.62418
 2.8336   9.63180
 2.8320   9.21099
 2.8305   9.13049
 2.8289   9.29552
 2.8274   9.40148
 2.8259   9.65086
 2.8243   9.13714
 2.8228   8.66298
 2.8213   8.86040
 2.8197   8.72664
 2.8182   8.65834
 2.8167   8.59216
 2.8151   8.36794
 2.8136   8.29546
 2.8121   8.36614
 2.8106   8.28771
 2.8090   8.26255
 2.8075   8.12453
 2.8060   7.58196
 2.8045   7.28473
 2.8030   7.15528
 2.8014   7.44746
 2.7999   7.89654
 2.7984   7.21241
 2.7969   6.65756
 2.7954   6.76687
 2.7939   6.89149
 2.7924   6.28612
 2.7909   5.33145
 2.7894   5.64613
 2.7879   6.73231
 2.7864   6.24409
 2.7849   5.34097
 2.7834   5.04568
 2.7819   4.51940
 2.7804   5.25989
 2.7789   5.43591
 2.7774   5.64098
 2.7759   5.76311
 2.7745   5.69054
 2.7730   5.57489
 2.7715   5.31528
 2.7700   5.25444
 2.7685   5.15238
 2.7671   5.09203
 2.7656   5.30339
 2.7641   5.04446
 2.7626   5.02485
 2.7612   5.21952
 2.7597   5.38170
 2.7582   5.17618
 2.7568   5.06164
 2.7553   5.51092
 2.7538   5.70819
 2.7524   5.47240
 2.7509   5.40528
 2.7494   5.67473
 2.7480   5.58568
 2.7465   5.45463
 2.7451   5.73445
 2.7436   6.01168
 2.7422   5.85175
 2.7407   5.40617
 2.7393   5.69169
 2.7378   5.98606
 2.7364   5.70671
 2.7350   5.38985
 2.7335   5.74530
 2.7321   5.86333
 2.7306   5.86691
 2.7292   6.04300
 2.7278   6.27200
 2.7263   6.33886
 2.7249   6.35950
 2.7235   6.46192
 2.7220   6.81227
 2.7206   6.65800
 2.7192   6.72158
 2.7178   7.27285
 2.7163   7.46511
 2.7149   7.56565
 2.7135   8.01513
 2.7121   8.85443
 2.7106   9.33363
 2.7092   9.46507
 2.7078   9.64257
 2.7064  10.00560
 2.7050  10.62150
 2.7036  10.94310
 2.7022  11.36700
 2.7008  11.92230
 2.6994  12.14140
 2.6980  12.23860
 2.6965  12.48350
 2.6951  13.10600
 2.6938  13.32220
 2.6923  13.30540
 2.6910  13.89320
 2.6896  14.35710
 2.6882  14.53110
 2.6868  14.67420
 2.6854  14.64590
 2.6840  15.03010
 2.6826  15.10420
 2.6812  14.99450
 2.6798  15.05960
 2.6784  15.50110
 2.6771  15.86610
 2.6757  15.80600
 2.6743  15.85420
 2.6729  16.15160
 2.6715  16.71230
 2.6702  16.85770
 2.6688  16.64950
 2.6674  16.66310
 2.6660  16.82740
 2.6647  16.64160
 2.6633  16.59280
 2.6619  16.65280
 2.6606  16.54890
 2.6592  16.61550
 2.6578  16.94850
 2.6565  17.22860
 2.6551  17.14800
 2.6538  17.19410
 2.6524  17.30340
 2.6511  17.24940
 2.6497  17.34270
 2.6484  17.47970
 2.6470  17.65280
 2.6456  17.68410
 2.6443  17.77630
 2.6429  17.89240
 2.6416  17.57790
 2.6403  17.44270
 2.6389  17.59650
 2.6376  17.74990
 2.6362  17.81040
 2.6349  17.88240
 2.6336  17.75110
 2.6322  17.83280
 2.6309  18.04350
 2.6296  17.90800
 2.6282  17.85730
 2.6269  17.59630
 2.6256  17.32680
 2.6242  17.54700
 2.6229  17.99610
 2.6216  18.15220
 2.6203  18.16750
 2.6189  18.00920
 2.6176  18.18800
 2.6163  18.50250
 2.6150  18.05250
 2.6136  17.65690
 2.6123  17.77430
 2.6110  17.43510
 2.6097  17.44470
 2.6084  18.01660
 2.6071  18.40050
 2.6058  18.37850
 2.6044  17.91650
 2.6031  17.80380
 2.6018  18.20460
 2.6005  18.82460
 2.5992  18.89530
 2.5979  18.30130
 2.5966  18.18760
 2.5953  18.53350
 2.5940  18.42430
 2.5927  18.56180
 2.5914  18.87890
 2.5901  18.85250
 2.5888  18.58760
 2.5876  18.13310
 2.5863  17.85170
 2.5850  18.30100
 2.5837  19.07120
 2.5824  18.72170
 2.5811  18.25580
 2.5798  18.75950
 2.5785  19.34130
 2.5773  19.32570
 2.5760  18.90110
 2.5747  18.75030
 2.5734  19.15560
 2.5722  19.00160
 2.5709  19.18040
 2.5696  19.33620
 2.5683  19.18530
 2.5671  18.86150
 2.5658  18.62210
 2.5645  18.97790
 2.5633  19.00190
 2.5620  18.83400
 2.5607  19.02490
 2.5595  18.98830
 2.5582  19.08500
 2.5569  19.44560
 2.5557  19.73260
 2.5544  19.83930
 2.5532  19.52760
 2.5519  19.42050
 2.5507  19.45860
 2.5494  19.32000
 2.5481  19.14510
 2.5469  19.00970
 2.5456  18.84950
 2.5444  18.78530
 2.5431  19.19770
 2.5419  19.54820
 2.5406  19.40190
 2.5394  19.18540
 2.5382  19.43680
 2.5369  19.37960
 2.5357  19.16770
 2.5344  19.20460
 2.5332  19.22910
 2.5320  19.41970
 2.5307  19.32600
 2.5295  18.90470
 2.5283  18.80950
 2.5270  18.98910
 2.5258  19.05210
 2.5246  18.90820
 2.5233  18.65960
 2.5221  18.46040
 2.5209  18.50640
 2.5197  18.56450
 2.5184  18.63260
 2.5172  18.42130
 2.5160  18.33930
 2.5148  18.62990
 2.5136  18.90360
 2.5123  19.11620
 2.5111  19.06650
 2.5099  18.74450
 2.5087  18.37030
 2.5075  18.14110
 2.5063  18.49850
 2.5051  18.84950
 2.5038  18.45450
 2.5026  18.39080
 2.5014  18.37830
 2.5002  18.30080
 2.4990  18.24720
 2.4978  18.20860
 2.4966  18.45470
 2.4954  18.69530
 2.4942  18.85460
 2.4930  18.61590
 2.4918  17.96890
 2.4906  17.80320
 2.4894  17.74080
 2.4882  17.64470
 2.4870  17.96350
 2.4858  18.06470
 2.4846  18.11420
 2.4835  18.11460
 2.4823  18.35690
 2.4811  18.65560
 2.4799  18.32580
 2.4787  17.88190
 2.4775  18.04310
 2.4764  18.11790
 2.4752  17.64240
 2.4740  17.64880
 2.4728  18.10340
 2.4716  18.18550
 2.4705  18.18830
 2.4693  18.19830
 2.4681  17.68560
 2.4669  17.53000
 2.4657  17.91950
 2.4646  17.55770
 2.4634  17.35470
 2.4622  17.57350
 2.4611  17.76840
 2.4599  17.84820
 2.4587  17.29740
 2.4576  16.69480
 2.4564  16.87810
 2.4552  17.03640
 2.4541  16.83640
 2.4529  16.96240
 2.4518  17.30500
 2.4506  17.55230
 2.4494  17.70750
 2.4483  17.50290
 2.4471  16.57060
 2.4460  16.79210
 2.4448  17.30380
 2.4437  17.57360
 2.4425  17.36040
 2.4414  17.16800
 2.4402  17.60450
 2.4391  17.95090
 2.4379  17.58250
 2.4368  17.27940
 2.4356  17.30570
 2.4345  17.56260
 2.4333  17.42470
 2.4322  17.15940
 2.4311  16.96840
 2.4299  17.38090
 2.4288  16.83310
 2.4276  16.79840
 2.4265  17.38460
 2.4254  17.40450
 2.4242  17.34040
 2.4231  17.49680
 2.4220  17.59970
 2.4209  17.68720
 2.4197  17.82400
 2.4186  17.40140
 2.4175  16.93050
 2.4163  17.23510
 2.4152  17.78010
 2.4141  18.07010
 2.4130  18.34260
 2.4118  18.24200
 2.4107  17.86190
 2.4096  17.92300
 2.4085  18.01700
 2.4074  18.08080
 2.4063  17.84650
 2.4051  17.71660
 2.4040  17.82900
 2.4029  18.05100
 2.4018  18.15700
 2.4007  18.16250
 2.3996  17.89750
 2.3985  17.64380
 2.3973  18.19810
 2.3962  18.45900
 2.3951  18.03550
 2.3940  17.94290
 2.3929  17.85440
 2.3918  17.73000
 2.3907  18.22160
 2.3896  18.58280
 2.3885  18.43070
 2.3874  17.81310
 2.3863  17.46920
 2.3852  18.08800
 2.3841  18.73230
 2.3830  18.64910
 2.3819  18.00640
 2.3808  17.77340
 2.3798  18.08120
 2.3786  18.43900
 2.3776  18.28230
 2.3765  18.10280
 2.3754  17.98170
 2.3743  18.38030
 2.3732  18.68670
 2.3721  18.31460
 2.3710  18.22630
 2.3700  18.63490
 2.3689  18.38290
 2.3678  18.27620
 2.3667  18.37260
 2.3656  18.26660
 2.3645  18.14920
 2.3635  18.28210
 2.3624  18.32280
 2.3613  17.61270
 2.3603  17.39620
 2.3592  18.09190
 2.3581  18.34230
 2.3570  18.27010
 2.3560  17.98320
 2.3549  17.55590
 2.3538  17.36480
 2.3527  17.34630
 2.3517  17.62500
 2.3506  17.77770
 2.3495  17.19050
 2.3485  16.93100
 2.3474  17.27570
 2.3464  17.65630
 2.3453  18.03250
 2.3442  18.12300
 2.3432  18.19510
 2.3421  17.76560
 2.3411  16.95770
 2.3400  16.92070
 2.3390  17.47820
 2.3379  17.87980
 2.3369  17.91360
 2.3358  18.26590
 2.3347  18.76270
 2.3337  18.52080
 2.3326  18.55740
 2.3316  19.07980
 2.3306  19.41070
 2.3295  19.63690
 2.3285  19.21060
 2.3274  18.72850
 2.3264  18.49550
 2.3253  18.37190
 2.3243  18.87850
 2.3232  19.60350
 2.3222  19.35700
 2.3212  19.06330
 2.3201  19.26380
 2.3191  19.72510
 2.3180  20.18850
 2.3170  20.27520
 2.3160  20.24050
 2.3149  20.13170
 2.3139  19.77120
 2.3129  19.67320
 2.3118  20.91540
 2.3108  21.39360
 2.3098  21.38160
 2.3088  21.60890
 2.3077  21.17510
 2.3067  21.01740
 2.3057  21.38550
 2.3047  21.73020
 2.3036  21.60700
 2.3026  21.61750
 2.3016  22.19770
 2.3006  22.49720
 2.2995  21.81230
 2.2985  21.18790
 2.2975  21.69960
 2.2965  21.81200
 2.2955  21.66470
 2.2944  22.26000
 2.2934  23.04610
 2.2924  22.67220
 2.2914  22.08750
 2.2904  22.48210
 2.2894  23.01800
 2.2884  22.98850
 2.2874  23.18220
 2.2864  22.59860
 2.2854  22.01880
 2.2843  22.46070
 2.2833  22.85280
 2.2823  22.90000
 2.2813  22.92850
 2.2803  23.01340
 2.2793  23.21120
 2.2783  23.12870
 2.2773  23.14780
 2.2763  22.70740
 2.2753  22.33490
 2.2743  22.21100
 2.2733  22.25480
 2.2723  22.44870
 2.2713  22.79660
 2.2703  22.66420
 2.2694  21.85280
 2.2684  22.03500
 2.2674  22.59300
 2.2664  22.65770
 2.2654  22.36520
 2.2644  21.75960
 2.2634  21.90260
 2.2624  21.73200
 2.2614  21.56190
 2.2605  21.70360
 2.2595  21.96160
 2.2585  22.13350
 2.2575  21.99360
 2.2565  21.44480
 2.2555  21.57030
 2.2546  21.78640
 2.2536  21.84750
 2.2526  21.68130
 2.2516  21.48180
 2.2506  21.00300
 2.2497  21.05350
 2.2487  21.25090
 2.2477  21.58780
 2.2467  20.77900
 2.2458  20.59810
 2.2448  21.27220
 2.2438  21.47400
 2.2428  21.18760
 2.2419  21.27890
 2.2409  21.42850
 2.2399  21.53720
 2.2390  21.64570
 2.2380  21.27390
 2.2370  21.23490
 2.2361  22.25420
 2.2351  22.50030
 2.2342  21.82020
 2.2332  21.64660
 2.2322  21.67610
 2.2313  21.86110
 2.2303  22.44740
 2.2294  22.15160
 2.2284  21.56500
 2.2274  21.83070
 2.2265  21.70150
 2.2255  21.43600
 2.2246  21.28940
 2.2236  21.36470
 2.2227  20.68840
 2.2217  20.78320
 2.2208  20.81300
 2.2198  20.53500
 2.2189  20.06150
 2.2179  19.21220
 2.2170  19.27160
 2.2160  20.01110
 2.2151  19.55650
 2.2141  18.42080
 2.2132  18.31860
 2.2122  18.16220
 2.2113  17.92340
 2.2103  18.28530
 2.2094  18.69090
 2.2085  18.19460
 2.2075  17.73560
 2.2066  18.01730
 2.2056  18.75740
 2.2047  18.40690
 2.2038  16.93750
 2.2028  16.39430
 2.2019  17.14990
 2.2010  17.88040
 2.2000  17.27980
 2.1991  17.41970
 2.1982  18.04520
 2.1972  17.78940
 2.1963  17.51100
 2.1954  17.52570
 2.1944  17.45730
 2.1935  17.51620
 2.1926  17.31360
 2.1917  17.78320
 2.1907  18.82770
 2.1898  19.17520
 2.1889  18.62750
 2.1880  18.89020
 2.1870  20.21120
 2.1861  20.57740
 2.1852  20.06430
 2.1843  20.20610
 2.1833  19.47150
 2.1824  19.38870
 2.1815  20.29950
 2.1806  20.92810
 2.1797  21.41700
 2.1788  21.84040
 2.1778  22.28730
 2.1769  22.36790
 2.1760  22.67510
 2.1751  22.40360
 2.1742  22.69990
 2.1733  22.84060
 2.1724  22.44480
 2.1715  22.72970
 2.1706  22.84770
 2.1696  22.95480
 2.1687  23.36650
 2.1678  23.26230
 2.1669  22.77790
 2.1660  23.18510
 2.1651  23.91830
 2.1642  23.60780
 2.1633  23.71140
 2.1624  24.20560
 2.1615  24.32690
 2.1606  23.98560
 2.1597  24.53700
 2.1588  24.71290
 2.1579  24.54220
 2.1570  24.54360
 2.1561  24.19450
 2.1552  24.02120
 2.1543  24.46350
 2.1534  24.95300
 2.1525  25.64990
 2.1517  26.15590
 2.1507  25.89880
 2.1499  25.15560
 2.1490  24.71880
 2.1481  24.69520
 2.1472  24.99960
 2.1463  25.24630
 2.1454  25.82980
 2.1445  26.00620
 2.1436  26.16990
 2.1428  26.22690
 2.1419  25.33630
 2.1410  24.26910
 2.1401  24.04790
 2.1392  24.32970
 2.1383  24.49300
 2.1375  25.16230
 2.1366  26.00200
 2.1357  26.03760
 2.1348  25.51190
 2.1339  25.14710
 2.1331  25.62330
 2.1322  25.94630
 2.1313  25.36060
 2.1304  24.02480
 2.1296  24.65860
 2.1287  26.61870
 2.1278  26.01710
 2.1269  25.14250
 2.1261  25.80410
 2.1252  25.87390
 2.1243  25.54970
 2.1235  25.56110
 2.1226  26.03850
 2.1217  25.83770
 2.1208  24.91820
 2.1200  24.36060
 2.1191  24.56050
 2.1183  25.42000
 2.1174  25.85760
 2.1165  25.12410
 2.1157  25.10390
 2.1148  25.16210
 2.1139  25.44510
 2.1131  25.83210
 2.1122  24.75280
 2.1113  24.28260
 2.1105  25.10160
 2.1096  25.84710
 2.1088  26.53150
 2.1079  26.37480
 2.1071  25.08650
 2.1062  24.66460
 2.1054  25.03600
 2.1045  25.55610
 2.1036  25.32510
 2.1028  24.55940
 2.1019  24.88830
 2.1011  26.02300
 2.1002  27.03520
 2.0994  27.00180
 2.0985  27.19010
 2.0977  27.19030
 2.0968  26.77150
 2.0960  25.70140
 2.0951  25.66230
 2.0943  25.87780
 2.0934  25.66990
 2.0926  26.44890
 2.0918  26.44160
 2.0909  26.26200
 2.0901  26.32120
 2.0892  26.47890
 2.0884  26.88050
 2.0875  27.13690
 2.0867  25.89320
 2.0859  24.20270
 2.0850  23.91500
 2.0842  25.11050
 2.0833  26.37350
 2.0825  26.62320
 2.0817  26.51140
 2.0808  26.65820
 2.0800  27.80710
 2.0792  27.19840
 2.0783  26.57410
 2.0775  26.79100
 2.0767  26.11350
 2.0759  25.70630
 2.0750  26.19550
 2.0742  26.89600
 2.0734  26.16590
 2.0725  25.45000
 2.0717  26.31580
 2.0709  26.08620
 2.0701  26.55210
 2.0692  28.56870
 2.0684  28.93430
 2.0676  28.99970
 2.0667  29.04330
 2.0659  28.15160
 2.0651  27.39740
 2.0643  27.03140
 2.0635  26.17920
 2.0626  26.46180
 2.0618  25.94010
 2.0610  25.59180
 2.0602  26.34640
 2.0594  26.70710
 2.0585  26.76000
 2.0577  26.92500
 2.0569  26.61350
 2.0561  25.99570
 2.0553  26.89980
 2.0545  26.53730
 2.0537  24.93130
 2.0528  25.07110
 2.0520  26.28320
 2.0512  26.83170
 2.0504  27.12120
 2.0496  27.60320
 2.0488  26.79970
 2.0480  26.89010
 2.0472  26.19050
 2.0464  26.99730
 2.0456  26.45000
 2.0447  24.76160
 2.0439  24.44020
 2.0431  24.14800
 2.0423  25.57710
 2.0415  26.14650
 2.0407  26.87000
 2.0399  27.65970
 2.0391  27.84960
 2.0383  28.34520
 2.0375  27.74640
 2.0367  27.15010
 2.0359  27.10150
 2.0351  27.46050
 2.0343  25.53770
 2.0335  23.64530
 2.0327  25.70180
 2.0319  27.08790
 2.0311  26.64360
 2.0303  26.80510
 2.0295  26.69590
 2.0287  26.03590
 2.0280  26.32890
 2.0272  25.40600
 2.0264  24.89730
 2.0256  28.08060
 2.0248  28.46120
 2.0240  25.87910
 2.0232  25.42220
 2.0224  25.80390
 2.0216  27.42790
 2.0208  28.54640
 2.0200  26.27010
 2.0193  25.51570
 2.0185  26.04600
 2.0177  26.11150
 2.0169  26.56190
 2.0161  26.37640
 2.0153  26.41580
 2.0146  26.69240
 2.0138  26.11970
 2.0130  25.88980
 2.0122  27.11630
 2.0114  27.21290
 2.0107  26.26900
 2.0099  25.86460
 2.0091  27.04360
 2.0083  28.43700
 2.0075  27.25130
 2.0068  26.51860
 2.0060  27.22180
 2.0052  26.31970
 2.0044  25.61660
 2.0037  25.56030
 2.0029  26.41360
 2.0021  26.07110
 2.0013  26.75540
 2.0006  27.04570
 1.9998  26.17810
