Name: Spodumene LiAlS_2O_6
Type: Mineral
Class: Silicates
Subclass: Inosilicates
Particle Size: 0-45um
Sample No.: IN-13A
Owner: JPL
Wavelength range: IR
Origin: Brazil, Minas Gerais
Collected by Ward's
Description: 





Measurement: Hemispherical reflectance
First Column: X
Second Column: Y
X Units:  Wavelength (micrometers)
Y Units:  Reflectance (percent)
First X Value: 15.3853
Last X Value: 2.00032
Number of X Values: 2256
Additional information: in13aa.txt
 
15.3853	3.25949
15.3397	3.54856
15.2945	4.03059
15.2495	4.46991
15.2048	4.61639
15.1603	4.83418
15.1161	4.78374
15.0722	4.49563
15.0285	4.38084
14.9851	4.46544
14.9419	4.23953
14.8989	3.85444
14.8563	3.57205
14.8138	3.25007
14.7716	3.03217
14.7296	2.70295
14.6879	2.2066
14.6464	1.92682
14.6052	1.944
14.5641	1.97256
14.5233	1.90134
14.4828	1.77185
14.4424	1.83329
14.4023	2.0672
14.3624	2.09839
14.3227	2.08683
14.2833	2.16026
14.244	2.33363
14.205	2.48534
14.1662	2.89888
14.1276	3.25173
14.0892	3.36064
14.051	3.44908
14.0131	3.63237
13.9753	3.89753
13.9377	4.17896
13.9004	4.48668
13.8632	4.64981
13.8262	4.87108
13.7895	5.14609
13.7529	5.25618
13.7165	5.39976
13.6803	5.83755
13.6443	6.19498
13.6085	6.3271
13.5729	6.48606
13.5374	6.79952
13.5022	6.99696
13.4671	7.25362
13.4322	7.52496
13.3975	7.68964
13.363	7.77136
13.3286	7.91545
13.2944	8.18175
13.2604	8.3656
13.2266	8.52515
13.193	8.62092
13.1595	8.73554
13.1262	9.02882
13.093	9.12714
13.06	9.31653
13.0272	9.48623
12.9946	9.43416
12.9621	9.42019
12.9298	9.55039
12.8976	9.56561
12.8656	9.5021
12.8337	9.37808
12.8021	9.45433
12.7705	9.66201
12.7391	9.8196
12.7079	9.81812
12.6769	9.82778
12.6459	9.79867
12.6152	9.92765
12.5845	10.0811
12.5541	9.99181
12.5238	9.84326
12.4936	9.78416
12.4635	9.70005
12.4337	9.63036
12.4039	9.62611
12.3743	9.67671
12.3448	9.78064
12.3155	9.84997
12.2863	9.81718
12.2573	9.60764
12.2284	9.41394
12.1996	9.35416
12.171	9.27907
12.1425	9.05335
12.1141	8.80832
12.0859	8.64401
12.0578	8.47274
12.0298	8.29744
12.0019	8.0766
11.9742	7.89566
11.9466	7.77807
11.9192	7.55455
11.8918	7.26563
11.8646	7.13009
11.8375	6.91706
11.8106	6.77916
11.7837	6.69864
11.757	6.61086
11.7304	6.60285
11.7039	6.66767
11.6776	6.55343
11.6513	6.33879
11.6252	6.32619
11.5992	6.1099
11.5733	5.78771
11.5475	5.63511
11.5219	5.59358
11.4963	5.5718
11.4709	5.79378
11.4455	5.92141
11.4203	6.0232
11.3952	6.24823
11.3702	6.41696
11.3454	6.57679
11.3206	6.87064
11.2959	7.15315
11.2714	7.29555
11.2469	7.3733
11.2226	7.49002
11.1983	7.65231
11.1742	7.82443
11.1502	8.10203
11.1263	8.31758
11.1024	8.35954
11.0787	8.53133
11.0551	8.83886
11.0316	9.10506
11.0081	9.39085
10.9848	9.69537
10.9616	9.8846
10.9385	10.0593
10.9154	10.2908
10.8925	10.5181
10.8697	10.5485
10.8469	10.5524
10.8243	10.5989
10.8017	10.7481
10.7793	10.9804
10.7569	11.0961
10.7346	11.0935
10.7125	11.187
10.6904	11.3505
10.6684	11.419
10.6465	11.3234
10.6247	11.2806
10.6029	11.407
10.5813	11.4258
10.5597	11.6129
10.5383	11.8947
10.5169	11.9637
10.4956	11.8692
10.4744	11.8236
10.4533	11.8822
10.4323	12.0014
10.4113	12.1933
10.3904	12.3088
10.3697	12.2668
10.349	12.1884
10.3284	12.2257
10.3078	12.2262
10.2874	12.0681
10.267	11.9278
10.2467	11.8258
10.2265	11.6499
10.2064	11.4316
10.1863	11.1322
10.1663	10.7834
10.1464	10.5037
10.1266	10.1728
10.1069	9.72563
10.0872	9.24973
10.0676	8.74963
10.0481	8.36276
10.0287	8.10561
10.0093	7.93213
9.99005	7.68919
9.97084	7.54498
9.95169	7.53105
9.93263	7.54567
9.91364	7.701
9.89472	7.9891
9.87587	8.32177
9.8571	8.82199
9.83839	9.2742
9.81976	9.66953
9.80119	10.067
9.78271	10.3418
9.76428	10.5088
9.74592	10.6699
9.72764	10.7902
9.70943	10.7985
9.69128	10.9023
9.6732	11.0453
9.65518	11.2394
9.63724	11.4095
9.61935	11.4101
9.60155	11.3614
9.5838	11.3925
9.56611	11.3278
9.5485	11.3326
9.53094	11.4391
9.51345	11.547
9.49604	11.6199
9.47867	11.6101
9.46137	11.4267
9.44414	11.342
9.42697	11.4343
9.40986	11.6993
9.39281	11.9185
9.37583	11.9226
9.35891	11.9764
9.34204	12.1281
9.32524	12.1916
9.3085	12.3247
9.29182	12.3174
9.27519	12.177
9.25863	12.2392
9.24213	12.6912
9.22568	13.383
9.2093	13.9974
9.19297	14.528
9.17669	14.8415
9.16048	14.959
9.14433	15.1008
9.12823	15.0743
9.11218	15.0917
9.0962	15.2671
9.08027	15.3068
9.06439	15.3264
9.04858	15.3389
9.03281	15.2118
9.0171	15.084
9.00145	15.0467
8.98585	14.8475
8.9703	14.5993
8.9548	14.4815
8.93937	14.3213
8.92398	14.0161
8.90865	13.6307
8.89337	13.2546
8.87814	12.9739
8.86296	12.6239
8.84784	12.0857
8.83277	11.4864
8.81774	11.1203
8.80277	10.7402
8.78786	10.3371
8.77298	10.0338
8.75816	9.71573
8.7434	9.37368
8.72868	9.12178
8.714	9.01083
8.69938	8.81334
8.68481	8.53583
8.67029	8.42609
8.65581	8.47622
8.64139	8.24079
8.62701	7.88458
8.61268	7.68485
8.5984	7.47101
8.58416	7.34
8.56997	7.25124
8.55583	7.13062
8.54174	7.05671
8.52769	6.96069
8.51368	7.01505
8.49973	7.04422
8.48582	7.01704
8.47195	7.08281
8.45813	7.36707
8.44436	7.62518
8.43062	7.85563
8.41693	7.97691
8.4033	8.08517
8.3897	8.40253
8.37614	8.77098
8.36264	8.97943
8.34917	9.27238
8.33574	9.37454
8.32236	9.3661
8.30903	9.42488
8.29573	9.37952
8.28248	9.18367
8.26927	8.82976
8.2561	8.36165
8.24298	7.87681
8.2299	7.47811
8.21685	6.88725
8.20385	6.2574
8.19089	5.83121
8.17797	5.42511
8.16509	4.81027
8.15225	4.35378
8.13946	4.04167
8.1267	3.69016
8.11398	3.32955
8.10131	3.15527
8.08867	2.94922
8.07606	2.6245
8.0635	2.36244
8.05099	2.07823
8.0385	1.91753
8.02606	1.76988
8.01366	1.61673
8.00129	1.50539
7.98896	1.45408
7.97667	1.48491
7.96442	1.35819
7.9522	1.16365
7.94002	1.09872
7.92788	1.1163
7.91578	1.08812
7.90371	1.06277
7.89168	1.10434
7.87969	1.06189
7.86773	0.991169
7.85581	1.07569
7.84392	1.17482
7.83207	1.2539
7.82026	1.33624
7.80849	1.3764
7.79674	1.39497
7.78503	1.43081
7.77337	1.49497
7.76173	1.49742
7.75012	1.53483
7.73856	1.67742
7.72703	1.84146
7.71553	1.95774
7.70406	1.99477
7.69263	2.01692
7.68123	2.05475
7.66987	2.05332
7.65855	2.16768
7.64725	2.40948
7.63598	2.54217
7.62475	2.63154
7.61356	2.71378
7.60239	2.87968
7.59126	3.05231
7.58017	3.26856
7.5691	3.34482
7.55806	3.44578
7.54707	3.61535
7.5361	3.78133
7.52516	3.98798
7.51425	4.08244
7.50338	4.19727
7.49253	4.34128
7.48172	4.55306
7.47094	4.74823
7.46019	4.86315
7.44947	5.03139
7.43879	5.16692
7.42813	5.24839
7.4175	5.43404
7.4069	5.6815
7.39634	5.7982
7.3858	6.05767
7.37529	6.35704
7.36482	6.49756
7.35437	6.62058
7.34396	6.83861
7.33357	7.02762
7.32321	7.1419
7.31288	7.25238
7.30258	7.38975
7.29231	7.66147
7.28207	7.93791
7.27185	8.16624
7.26167	8.35493
7.25152	8.51473
7.24139	8.59043
7.23129	8.70818
7.22122	8.85261
7.21117	8.9985
7.20116	9.08341
7.19117	9.14978
7.18121	9.37981
7.17128	9.59929
7.16137	9.60433
7.1515	9.6447
7.14164	9.68847
7.13182	9.71094
7.12203	9.80993
7.11225	9.89905
7.10251	10.0295
7.0928	10.0638
7.08311	10.2097
7.07344	10.4385
7.06381	10.5843
7.0542	10.8767
7.04461	11.1622
7.03506	11.1972
7.02552	11.413
7.01601	11.5891
7.00653	11.7872
6.99708	12.061
6.98765	12.1489
6.97824	12.3249
6.96886	12.6429
6.95951	12.9023
6.95018	12.8754
6.94087	12.8722
6.9316	13.0849
6.92234	13.3461
6.91311	13.6726
6.90391	13.9523
6.89473	14.095
6.88557	14.4327
6.87644	14.8707
6.86733	15.5458
6.85824	15.7563
6.84918	15.5776
6.84015	15.695
6.83114	16.164
6.82215	16.4242
6.81319	16.5613
6.80424	16.9351
6.79532	17.5373
6.78643	17.9803
6.77756	18.1406
6.76871	18.4034
6.75989	18.6553
6.75109	18.9512
6.74231	19.2366
6.73355	19.6498
6.72482	20.1297
6.71611	20.5511
6.70742	20.7276
6.69875	20.6668
6.69011	20.9597
6.68149	21.404
6.67289	21.4255
6.66431	21.2937
6.65576	21.3221
6.64722	21.932
6.63871	22.7933
6.63022	22.5913
6.62175	22.1782
6.61331	22.1468
6.60488	22.2624
6.59648	22.5831
6.5881	22.7517
6.57974	23.0322
6.5714	23.3766
6.56308	23.0458
6.55478	22.9789
6.54651	22.9406
6.53825	22.701
6.53001	22.6992
6.5218	23.0261
6.51361	22.8817
6.50544	22.962
6.49729	23.7395
6.48915	23.7701
6.48104	23.194
6.47295	22.8417
6.46488	22.5135
6.45683	22.3268
6.4488	22.2155
6.44079	22.1637
6.4328	22.2954
6.42482	22.5286
6.41687	23.2099
6.40894	22.8755
6.40103	21.9091
6.39314	21.7413
6.38526	21.7634
6.37741	21.9243
6.36957	22.1983
6.36176	22.0269
6.35396	22.1028
6.34618	22.7302
6.33843	22.5844
6.33069	22.2014
6.32297	22.2476
6.31527	22.3211
6.30758	22.3536
6.29992	22.2997
6.29227	22.3017
6.28465	22.3152
6.27704	22.3054
6.26945	22.4048
6.26188	22.5328
6.25432	22.6203
6.24679	22.6551
6.23927	22.6601
6.23177	22.6988
6.22429	22.7246
6.21683	22.7531
6.20938	22.8637
6.20195	23.0053
6.19454	23.2011
6.18715	23.6571
6.17978	23.4803
6.17242	23.2447
6.16508	23.6734
6.15776	23.9481
6.15045	23.9095
6.14317	23.9837
6.1359	23.9076
6.12864	23.8985
6.12141	24.3272
6.11419	24.932
6.10699	24.6916
6.0998	24.4027
6.09263	24.3861
6.08549	24.5128
6.07835	25.1446
6.07123	25.546
6.06413	25.3754
6.05705	25.9273
6.04998	27.2578
6.04293	26.7028
6.0359	25.8122
6.02888	25.838
6.02187	26.092
6.01489	26.4297
6.00792	26.44
6.00096	26.3574
5.99403	26.7428
5.98711	27.0141
5.9802	26.7852
5.97331	26.9152
5.96644	26.9532
5.95958	26.4825
5.95274	26.4335
5.94591	26.7087
5.9391	27.3562
5.9323	26.8814
5.92552	25.9857
5.91876	25.7221
5.91201	25.4252
5.90528	25.3423
5.89856	25.8312
5.89186	25.5919
5.88517	25.7427
5.8785	25.838
5.87184	25.0928
5.8652	25.1876
5.85857	25.2515
5.85196	25.2176
5.84536	25.2713
5.83878	25.6456
5.83221	26.1622
5.82566	26.8075
5.81912	26.9371
5.81259	26.3986
5.80608	26.2233
5.79959	26.2722
5.79311	26.1686
5.78665	26.1316
5.78019	26.1099
5.77376	26.2233
5.76734	26.5239
5.76093	25.8013
5.75453	25.0886
5.74815	24.8312
5.74179	24.1994
5.73543	23.6055
5.7291	23.1169
5.72277	22.8418
5.71646	22.6603
5.71017	22.4249
5.70389	21.9768
5.69762	21.8339
5.69136	21.8493
5.68513	21.763
5.6789	21.9278
5.67268	21.9789
5.66648	21.8162
5.6603	21.8475
5.65413	21.9016
5.64797	21.9507
5.64182	22.0396
5.63569	21.6122
5.62957	21.224
5.62347	21.0417
5.61737	20.9535
5.61129	20.7706
5.60522	20.5917
5.59917	20.3752
5.59313	20.1443
5.5871	20.1326
5.58109	20.3021
5.57509	20.1393
5.5691	19.9201
5.56312	19.956
5.55716	20.05
5.55121	20.2069
5.54528	20.269
5.53935	20.3407
5.53344	20.5351
5.52754	20.7713
5.52166	21.0313
5.51578	21.3169
5.50992	21.6285
5.50407	22.0412
5.49823	22.4068
5.49241	22.7636
5.4866	23.0928
5.4808	23.5132
5.47501	23.807
5.46923	24.1866
5.46347	24.5861
5.45772	24.711
5.45198	24.9047
5.44625	25.1997
5.44054	25.4788
5.43484	25.7341
5.42914	26.091
5.42347	26.526
5.4178	26.4589
5.41214	26.2576
5.4065	26.1708
5.40087	26.0989
5.39525	26.0768
5.38964	25.908
5.38404	25.7006
5.37846	25.5649
5.37288	25.5653
5.36732	25.6468
5.36177	25.8145
5.35623	26.1009
5.35071	26.4383
5.34519	26.5619
5.33968	26.7281
5.33419	26.9849
5.32871	27.1132
5.32324	27.2426
5.31778	27.3679
5.31233	27.4365
5.30689	27.563
5.30147	27.7987
5.29605	28.1568
5.29065	28.618
5.28525	29.229
5.27987	30.2327
5.2745	31.4934
5.26914	32.8347
5.26379	34.2324
5.25845	35.6465
5.25312	37.0836
5.24781	38.3736
5.2425	39.4992
5.23721	40.4701
5.23192	41.2241
5.22665	41.8842
5.22138	42.5037
5.21613	43.1682
5.21089	43.4976
5.20566	43.6844
5.20044	43.9724
5.19522	44.1853
5.19002	44.4028
5.18483	44.5816
5.17965	44.7717
5.17448	45.0258
5.16933	45.2512
5.16418	45.5183
5.15904	45.7385
5.15391	46.0195
5.14879	46.3745
5.14368	46.5653
5.13859	46.597
5.1335	46.6226
5.12842	46.7346
5.12335	46.8873
5.1183	47.0331
5.11325	47.1699
5.10821	47.2278
5.10318	47.3704
5.09817	47.5763
5.09316	47.768
5.08816	47.9228
5.08317	48.1141
5.07819	48.2031
5.07322	48.2108
5.06826	48.2522
5.06331	48.2596
5.05837	48.2134
5.05344	48.2145
5.04852	48.21
5.04361	48.194
5.03871	48.1854
5.03382	48.2457
5.02894	48.2237
5.02406	48.25
5.0192	48.3031
5.01435	48.319
5.0095	48.3546
5.00467	48.3508
4.99984	48.3342
4.99502	48.355
4.99021	48.4136
4.98542	48.446
4.98063	48.4544
4.97585	48.4996
4.97108	48.6013
4.96632	48.8232
4.96156	49.0624
4.95682	49.4005
4.95209	49.6704
4.94736	49.8577
4.94264	50.1252
4.93794	50.4884
4.93324	50.7726
4.92855	50.9364
4.92387	50.9151
4.9192	50.8599
4.91453	50.8195
4.90988	50.6439
4.90524	50.431
4.9006	50.2216
4.89597	49.8956
4.89135	49.4594
4.88674	48.9743
4.88214	48.4872
4.87755	48.005
4.87296	47.546
4.86839	47.047
4.86382	46.6012
4.85926	46.2619
4.85471	45.968
4.85017	45.7083
4.84564	45.5611
4.84111	45.5979
4.8366	45.613
4.83209	45.5478
4.82759	45.5804
4.8231	45.666
4.81862	45.7778
4.81415	45.7987
4.80968	45.7819
4.80522	45.7968
4.80077	45.7575
4.79633	45.7345
4.7919	45.7048
4.78747	45.6339
4.78306	45.518
4.77865	45.5434
4.77425	45.6869
4.76986	45.9206
4.76547	46.2388
4.7611	46.6221
4.75673	47.0605
4.75237	47.5938
4.74802	48.1929
4.74367	48.8028
4.73934	49.4422
4.73501	49.989
4.73069	50.5452
4.72638	51.0077
4.72207	51.3974
4.71777	51.8033
4.71348	52.1537
4.7092	52.3296
4.70493	52.4981
4.70066	52.6142
4.69641	52.6384
4.69216	52.6569
4.68791	52.6392
4.68368	52.56
4.67945	52.5105
4.67523	52.4982
4.67102	52.4482
4.66682	52.3819
4.66262	52.365
4.65843	52.3348
4.65425	52.2373
4.65007	52.2138
4.64591	52.3402
4.64175	52.566
4.6376	52.8579
4.63345	53.2904
4.62932	53.7512
4.62519	54.1095
4.62106	54.4255
4.61695	54.74
4.61284	55.137
4.60874	55.3766
4.60465	55.4491
4.60056	55.6002
4.59648	55.737
4.59241	55.8337
4.58835	55.9253
4.58429	56.0265
4.58024	56.1607
4.5762	56.2434
4.57216	56.2686
4.56814	56.2768
4.56411	56.2583
4.5601	56.2222
4.55609	56.2271
4.55209	56.155
4.5481	56.0874
4.54411	55.9996
4.54013	55.8501
4.53616	55.6877
4.5322	55.6801
4.52824	55.7619
4.52429	55.8113
4.52034	55.8935
4.51641	56.147
4.51247	56.4668
4.50855	56.8853
4.50463	57.2885
4.50072	57.674
4.49682	58.0944
4.49292	58.5464
4.48903	58.8302
4.48515	59.15
4.48127	59.5264
4.4774	59.8647
4.47354	60.1947
4.46968	60.6471
4.46584	61.1532
4.46199	61.6524
4.45815	62.0981
4.45432	62.6502
4.4505	63.2488
4.44668	63.7608
4.44287	64.2088
4.43907	64.7877
4.43527	65.3747
4.43148	65.8911
4.4277	66.4328
4.42392	66.9998
4.42015	67.5028
4.41638	67.9645
4.41262	68.411
4.40887	68.9582
4.40513	69.5097
4.40139	69.965
4.39765	70.3376
4.39393	70.7076
4.39021	71.1294
4.38649	71.5061
4.38278	71.8091
4.37908	72.1348
4.37539	72.4321
4.3717	72.6821
4.36801	72.9009
4.36434	73.1993
4.36067	73.3563
4.357	73.4522
4.35335	73.6519
4.34969	73.8621
4.34605	74.0207
4.34241	74.2035
4.33877	74.3762
4.33514	74.5258
4.33152	74.6503
4.32791	74.7645
4.3243	74.8048
4.32069	74.8364
4.3171	74.9212
4.31351	74.961
4.30992	74.9022
4.30634	74.8769
4.30277	74.8774
4.2992	74.9975
4.29564	75.041
4.29208	75.0175
4.28853	74.9152
4.28499	74.8352
4.28145	74.8698
4.27792	74.9713
4.27439	75.0411
4.27087	75.1444
4.26735	75.2874
4.26384	75.4151
4.26034	75.5462
4.25684	75.6571
4.25335	75.6478
4.24986	75.5448
4.24638	75.4294
4.24291	75.3206
4.23944	75.213
4.23598	75.1725
4.23252	75.1857
4.22906	75.2781
4.22562	75.4701
4.22218	75.6946
4.21874	75.8778
4.21531	76.0448
4.21189	76.2864
4.20847	76.5829
4.20506	76.7828
4.20165	76.867
4.19825	76.9225
4.19485	76.996
4.19146	77.0316
4.18807	77.0384
4.18469	77.0672
4.18132	77.1263
4.17795	77.1971
4.17458	77.3038
4.17123	77.3227
4.16787	77.2761
4.16453	77.2573
4.16118	77.2864
4.15785	77.2797
4.15451	77.3179
4.15119	77.3422
4.14787	77.3414
4.14455	77.3635
4.14124	77.3826
4.13794	77.381
4.13464	77.4279
4.13134	77.3738
4.12805	77.3851
4.12477	77.4405
4.12149	77.407
4.11822	77.4617
4.11495	77.5372
4.11168	77.5582
4.10843	77.5456
4.10517	77.5395
4.10192	77.5389
4.09868	77.5599
4.09545	77.5937
4.09221	77.6023
4.08899	77.6257
4.08576	77.5854
4.08255	77.5729
4.07933	77.6124
4.07613	77.7028
4.07292	77.7112
4.06973	77.688
4.06654	77.6953
4.06335	77.6997
4.06017	77.6322
4.05699	77.5748
4.05382	77.6547
4.05065	77.7433
4.04749	77.7318
4.04433	77.7366
4.04118	77.7572
4.03803	77.7348
4.03489	77.6912
4.03175	77.7134
4.02862	77.7693
4.02549	77.7622
4.02237	77.7476
4.01925	77.7976
4.01614	77.7619
4.01303	77.7665
4.00993	77.8069
4.00683	77.7736
4.00373	77.7166
4.00064	77.7883
3.99756	77.8138
3.99448	77.8217
3.9914	77.8092
3.98833	77.7243
3.98527	77.7074
3.98221	77.7615
3.97915	77.8166
3.9761	77.8292
3.97305	77.8224
3.97001	77.7806
3.96697	77.7605
3.96394	77.8235
3.96091	77.8711
3.95789	77.8027
3.95487	77.6802
3.95186	77.7073
3.94885	77.7729
3.94584	77.8054
3.94284	77.7861
3.93984	77.7398
3.93685	77.7702
3.93386	77.7818
3.93088	77.7835
3.9279	77.7809
3.92493	77.8019
3.92196	77.7907
3.919	77.7589
3.91604	77.7496
3.91308	77.7075
3.91013	77.6802
3.90718	77.6898
3.90424	77.6924
3.9013	77.6421
3.89837	77.6157
3.89544	77.5551
3.89252	77.5079
3.8896	77.5898
3.88668	77.594
3.88377	77.5103
3.88086	77.475
3.87796	77.5252
3.87506	77.5468
3.87217	77.4651
3.86928	77.4711
3.86639	77.5132
3.86351	77.5129
3.86064	77.5151
3.85776	77.5125
3.8549	77.536
3.85203	77.5226
3.84917	77.5194
3.84631	77.5084
3.84346	77.4428
3.84062	77.5065
3.83777	77.5739
3.83494	77.6096
3.8321	77.69
3.82927	77.6917
3.82644	77.7129
3.82362	77.7924
3.82081	77.8456
3.81799	77.8443
3.81518	77.8045
3.81238	77.8003
3.80958	77.823
3.80678	77.8943
3.80399	77.8645
3.8012	77.8316
3.79841	77.8003
3.79563	77.778
3.79286	77.8291
3.79008	77.9093
3.78731	77.9478
3.78455	77.949
3.78179	77.8596
3.77903	77.8286
3.77628	77.8378
3.77353	77.854
3.77079	77.8783
3.76805	77.882
3.76531	77.8892
3.76258	77.9304
3.75985	77.9235
3.75713	77.9319
3.7544	77.8633
3.75169	77.7873
3.74898	77.8288
3.74627	77.8374
3.74356	77.8609
3.74086	77.8974
3.73816	77.8807
3.73547	77.8056
3.73278	77.7764
3.7301	77.7857
3.72741	77.7354
3.72474	77.7269
3.72206	77.7612
3.71939	77.7506
3.71673	77.7589
3.71406	77.7436
3.71141	77.6823
3.70875	77.6321
3.7061	77.6753
3.70345	77.6379
3.70081	77.4943
3.69817	77.4355
3.69553	77.4365
3.6929	77.4429
3.69027	77.4993
3.68765	77.5187
3.68503	77.4697
3.68241	77.4431
3.6798	77.4462
3.67719	77.4237
3.67458	77.3664
3.67198	77.3049
3.66938	77.3398
3.66678	77.36
3.66419	77.3033
3.66161	77.2913
3.65902	77.2956
3.65644	77.2723
3.65387	77.2022
3.65129	77.1734
3.64872	77.181
3.64616	77.1326
3.64359	77.0869
3.64103	77.1087
3.63848	77.125
3.63593	77.0932
3.63338	77.0224
3.63084	76.9874
3.6283	76.9817
3.62576	76.9645
3.62322	76.9353
3.62069	76.8946
3.61817	76.8313
3.61564	76.7994
3.61312	76.7529
3.61061	76.7094
3.6081	76.7114
3.60559	76.6808
3.60308	76.6923
3.60058	76.6481
3.59808	76.5716
3.59558	76.5233
3.59309	76.4522
3.59061	76.459
3.58812	76.4117
3.58564	76.359
3.58316	76.3527
3.58069	76.3198
3.57822	76.2755
3.57575	76.2545
3.57328	76.2066
3.57082	76.1525
3.56836	76.0426
3.56591	75.9505
3.56346	75.8481
3.56101	75.8305
3.55857	75.8175
3.55613	75.7415
3.55369	75.6735
3.55126	75.6356
3.54883	75.49
3.5464	75.3886
3.54397	75.3621
3.54155	75.3456
3.53914	75.3026
3.53672	75.1932
3.53431	75.0243
3.5319	74.8605
3.5295	74.6764
3.5271	74.5061
3.5247	74.3316
3.52231	74.0548
3.51991	73.816
3.51753	73.5927
3.51514	73.1576
3.51276	72.683
3.51038	72.304
3.50801	71.9769
3.50563	71.7197
3.50327	71.5617
3.5009	71.4783
3.49854	71.4762
3.49618	71.5788
3.49382	71.7115
3.49147	71.8658
3.48912	71.9658
3.48677	71.955
3.48443	71.8529
3.48209	71.8309
3.47975	71.9023
3.47742	71.9609
3.47509	71.9465
3.47276	71.9068
3.47044	71.8892
3.46812	71.9041
3.4658	71.8628
3.46348	71.8339
3.46117	71.8377
3.45886	71.7163
3.45656	71.5865
3.45425	71.3605
3.45195	71.1314
3.44966	70.9966
3.44736	70.9117
3.44507	70.7375
3.44279	70.4993
3.4405	70.3053
3.43822	70.1189
3.43594	69.8903
3.43367	69.6939
3.43139	69.4008
3.42912	68.9257
3.42686	68.4685
3.42459	68.1055
3.42233	67.8168
3.42007	67.5366
3.41782	67.4072
3.41557	67.4065
3.41332	67.4005
3.41108	67.4845
3.40883	67.7325
3.40659	67.986
3.40435	68.1728
3.40212	68.3263
3.39989	68.4636
3.39766	68.6655
3.39544	68.7971
3.39322	68.8329
3.391	68.871
3.38878	68.7663
3.38657	68.653
3.38436	68.6209
3.38215	68.5907
3.37994	68.4727
3.37774	68.358
3.37554	68.3999
3.37335	68.5179
3.37115	68.5226
3.36896	68.6971
3.36678	68.9491
3.36459	69.1296
3.36241	69.3258
3.36023	69.5354
3.35805	69.7301
3.35588	69.7751
3.35371	69.7601
3.35154	69.7462
3.34938	69.7298
3.34721	69.7945
3.34505	69.8806
3.3429	69.8799
3.34074	69.8188
3.33859	69.714
3.33644	69.6949
3.3343	69.6852
3.33215	69.6507
3.33001	69.5585
3.32788	69.5076
3.32574	69.4742
3.32361	69.4847
3.32148	69.4637
3.31936	69.3687
3.31723	69.2943
3.31511	69.3297
3.31299	69.3108
3.31088	69.2002
3.30876	69.0769
3.30665	68.9548
3.30455	68.8363
3.30244	68.8043
3.30034	68.7804
3.29824	68.7357
3.29614	68.6456
3.29405	68.5904
3.29196	68.4912
3.28987	68.3779
3.28778	68.3479
3.2857	68.248
3.28362	68.1101
3.28154	68.0197
3.27946	67.8668
3.27739	67.8033
3.27532	67.7802
3.27325	67.7306
3.27119	67.6964
3.26913	67.6511
3.26707	67.5631
3.26501	67.4082
3.26295	67.3166
3.2609	67.2771
3.25885	67.1949
3.2568	67.0687
3.25476	66.9629
3.25272	66.9123
3.25068	66.8601
3.24864	66.8142
3.24661	66.7305
3.24458	66.6352
3.24255	66.5571
3.24052	66.5286
3.2385	66.4905
3.23648	66.4114
3.23446	66.2956
3.23244	66.1943
3.23043	66.1673
3.22841	66.0677
3.2264	65.9359
3.2244	65.8098
3.22239	65.7302
3.22039	65.6849
3.21839	65.6432
3.2164	65.6141
3.2144	65.4897
3.21241	65.3581
3.21042	65.2652
3.20844	65.2124
3.20645	65.1361
3.20447	65.1251
3.20249	65.1179
3.20051	64.9459
3.19854	64.8364
3.19657	64.7949
3.1946	64.6992
3.19263	64.5938
3.19067	64.4513
3.1887	64.4172
3.18674	64.4189
3.18479	64.3807
3.18283	64.2729
3.18088	64.1539
3.17893	64.0298
3.17698	63.9029
3.17504	63.8883
3.17309	63.852
3.17115	63.7583
3.16921	63.6325
3.16728	63.5268
3.16534	63.5089
3.16341	63.4997
3.16148	63.4197
3.15956	63.3071
3.15763	63.2168
3.15571	63.1513
3.15379	63.0282
3.15187	62.9132
3.14996	62.9197
3.14805	62.9126
3.14614	62.7595
3.14423	62.6151
3.14232	62.5866
3.14042	62.5147
3.13852	62.4115
3.13662	62.3347
3.13472	62.246
3.13283	62.2214
3.13094	62.1452
3.12905	62.0269
3.12716	61.9832
3.12528	61.9594
3.12339	61.8264
3.12151	61.6805
3.11964	61.6943
3.11776	61.71
3.11589	61.6794
3.11401	61.608
3.11214	61.5116
3.11028	61.4313
3.10841	61.3728
3.10655	61.2205
3.10469	61.0538
3.10283	60.9471
3.10098	60.8485
3.09912	60.878
3.09727	60.8929
3.09542	60.8405
3.09358	60.7366
3.09173	60.6211
3.08989	60.5949
3.08805	60.6747
3.08621	60.6601
3.08437	60.5227
3.08254	60.4636
3.08071	60.3682
3.07888	60.3675
3.07705	60.3307
3.07523	60.1787
3.0734	60.0843
3.07158	60.083
3.06977	60.1543
3.06795	60.1017
3.06613	59.9303
3.06432	59.8559
3.06251	59.9116
3.0607	59.8572
3.0589	59.7946
3.0571	59.7402
3.05529	59.7083
3.05349	59.6838
3.0517	59.5961
3.0499	59.5574
3.04811	59.4919
3.04632	59.4657
3.04453	59.4894
3.04274	59.5233
3.04096	59.5134
3.03918	59.5444
3.0374	59.4644
3.03562	59.3496
3.03384	59.3286
3.03207	59.2574
3.03029	59.1982
3.02852	59.1463
3.02676	59.0449
3.02499	58.9896
3.02323	59.015
3.02146	59.0913
3.0197	59.1232
3.01795	59.0286
3.01619	58.9865
3.01444	59.0003
3.01269	58.8859
3.01094	58.7406
3.00919	58.7321
3.00744	58.7232
3.0057	58.7377
3.00396	58.7119
3.00222	58.5663
3.00048	58.5526
2.99875	58.59
2.99701	58.561
2.99528	58.4599
2.99355	58.3567
2.99183	58.3325
2.9901	58.3074
2.98838	58.2852
2.98666	58.2883
2.98494	58.2316
2.98322	58.1476
2.9815	58.0645
2.97979	58.1091
2.97808	58.0737
2.97637	58.0026
2.97466	57.9447
2.97295	57.844
2.97125	57.8482
2.96955	57.8734
2.96785	57.9029
2.96615	57.8453
2.96446	57.801
2.96276	57.7929
2.96107	57.7106
2.95938	57.6505
2.95769	57.6616
2.95601	57.7572
2.95432	57.7243
2.95264	57.648
2.95096	57.5033
2.94928	57.3978
2.9476	57.3038
2.94593	57.28
2.94425	57.4315
2.94258	57.4742
2.94092	57.3639
2.93925	57.3659
2.93758	57.2854
2.93592	57.2744
2.93426	57.2262
2.9326	57.1619
2.93094	57.1859
2.92928	57.2545
2.92763	57.2894
2.92598	57.3106
2.92433	57.3265
2.92268	57.2692
2.92103	57.2269
2.91939	57.2902
2.91775	57.3689
2.9161	57.3589
2.91447	57.2389
2.91283	57.2327
2.91119	57.3
2.90956	57.3033
2.90793	57.2204
2.9063	57.3595
2.90467	57.4359
2.90304	57.4014
2.90142	57.5182
2.89979	57.4341
2.89817	57.2762
2.89656	57.2937
2.89494	57.4004
2.89332	57.3902
2.89171	57.4389
2.8901	57.5527
2.88849	57.5457
2.88688	57.431
2.88527	57.4338
2.88367	57.5054
2.88206	57.5103
2.88046	57.472
2.87886	57.5582
2.87727	57.6361
2.87567	57.6525
2.87408	57.6343
2.87248	57.6453
2.87089	57.7294
2.8693	57.6613
2.86772	57.612
2.86613	57.5832
2.86455	57.6096
2.86297	57.6707
2.86139	57.7868
2.85981	57.8195
2.85823	57.7899
2.85666	57.8327
2.85508	57.8524
2.85351	57.8923
2.85194	57.9612
2.85038	58.0664
2.84881	58.0392
2.84724	57.9407
2.84568	58.013
2.84412	58.0306
2.84256	58.0025
2.841	57.9272
2.83945	57.9975
2.83789	58.2391
2.83634	58.2075
2.83479	58.2367
2.83324	58.3117
2.83169	58.4013
2.83015	58.393
2.82861	58.4443
2.82706	58.3891
2.82552	58.3055
2.82398	58.4163
2.82245	58.5774
2.82091	58.6412
2.81938	58.6473
2.81784	58.6077
2.81631	58.6991
2.81479	58.8796
2.81326	58.8117
2.81173	58.7054
2.81021	58.8349
2.80869	59.0249
2.80716	59.1486
2.80565	59.4299
2.80413	59.9109
2.80261	59.9066
2.8011	59.5498
2.79959	59.4586
2.79808	59.4316
2.79657	59.396
2.79506	59.4315
2.79355	59.456
2.79205	59.4046
2.79055	59.4744
2.78904	59.8251
2.78754	60.2611
2.78605	60.2236
2.78455	59.8145
2.78306	59.8187
2.78156	60.0031
2.78007	59.8804
2.77858	59.7461
2.77709	59.7852
2.77561	59.6991
2.77412	59.6485
2.77264	59.8759
2.77116	60.059
2.76968	59.7546
2.7682	59.4241
2.76672	58.8161
2.76524	57.9248
2.76377	57.3813
2.7623	56.8628
2.76083	56.3269
2.75936	56.3072
2.75789	57.0026
2.75642	58.5241
2.75496	59.4167
2.7535	59.0746
2.75203	59.1975
2.75057	59.458
2.74912	59.6858
2.74766	59.8573
2.7462	60.0866
2.74475	60.2479
2.7433	60.4818
2.74185	61.4102
2.7404	62.2665
2.73895	61.9299
2.7375	61.121
2.73606	61.3177
2.73462	61.6933
2.73318	61.3622
2.73174	61.4415
2.7303	61.7246
2.72886	61.8688
2.72742	62.2275
2.72599	63.1421
2.72456	63.8364
2.72313	63.4712
2.7217	64.1304
2.72027	64.9517
2.71884	64.0039
2.71742	63.4933
2.71599	63.2021
2.71457	63.0477
2.71315	63.003
2.71173	63.6078
2.71032	63.3733
2.7089	62.1722
2.70748	61.1437
2.70607	60.4749
2.70466	60.3112
2.70325	60.6165
2.70184	61.6299
2.70043	62.6705
2.69903	63.5872
2.69762	65.007
2.69622	66.8894
2.69482	68.908
2.69342	70.3182
2.69202	70.7088
2.69062	71.5245
2.68923	72.8063
2.68783	73.9963
2.68644	74.9266
2.68505	75.6697
2.68366	76.4731
2.68227	76.8025
2.68089	77.3359
2.6795	78.6964
2.67812	79.4884
2.67673	80.1553
2.67535	79.8229
2.67397	79.3951
2.6726	79.9016
2.67122	81.9824
2.66984	82.4296
2.66847	81.4636
2.6671	82.5631
2.66572	83.0722
2.66435	82.3207
2.66299	81.1598
2.66162	81.2971
2.66025	81.5783
2.65889	81.5778
2.65753	81.3055
2.65616	81.7882
2.65481	81.8087
2.65345	82.0045
2.65209	82.1361
2.65073	81.8096
2.64938	81.7228
2.64803	81.8407
2.64667	82.1786
2.64532	82.3281
2.64397	82.0207
2.64263	82.221
2.64128	82.2771
2.63994	82.2496
2.63859	82.1981
2.63725	82.2199
2.63591	82.3623
2.63457	82.9074
2.63323	82.9732
2.6319	83.4743
2.63056	84.4196
2.62923	83.5257
2.62789	83.2922
2.62656	83.9049
2.62523	83.1757
2.6239	82.7422
2.62258	82.8725
2.62125	84.011
2.61993	84.2645
2.6186	83.6079
2.61728	84.3971
2.61596	84.1738
2.61464	83.3204
2.61332	83.339
2.61201	83.1957
2.61069	83.3859
2.60938	83.6801
2.60807	83.8428
2.60675	84.5651
2.60544	85.1717
2.60414	84.4481
2.60283	83.8867
2.60152	83.652
2.60022	83.2847
2.59891	83.1678
2.59761	83.6716
2.59631	85.192
2.59501	87.0117
2.59371	85.5975
2.59242	83.6937
2.59112	83.3412
2.58983	83.5501
2.58853	83.9455
2.58724	84.2806
2.58595	83.9606
2.58466	84.6017
2.58338	84.7664
2.58209	84.0631
2.5808	83.9597
2.57952	83.4867
2.57824	83.7236
2.57695	84.0929
2.57567	83.7411
2.5744	84.1504
2.57312	84.5494
2.57184	83.7734
2.57057	83.997
2.56929	84.2027
2.56802	83.6608
2.56675	83.4612
2.56548	83.9191
2.56421	84.4924
2.56294	84.7182
2.56168	84.7931
2.56041	84.4394
2.55915	83.8074
2.55789	83.5476
2.55662	83.568
2.55536	83.5642
2.5541	83.7726
2.55285	84.1339
2.55159	84.0878
2.55034	83.9171
2.54908	83.8208
2.54783	83.8126
2.54658	83.734
2.54533	83.8252
2.54408	84.0273
2.54283	84.0683
2.54159	83.8513
2.54034	83.6746
2.5391	83.7549
2.53785	83.8929
2.53661	83.9457
2.53537	83.8253
2.53413	83.7952
2.53289	83.9556
2.53166	84.0103
2.53042	83.9044
2.52919	83.8932
2.52795	83.9657
2.52672	83.9662
2.52549	83.9521
2.52426	83.9325
2.52303	83.8829
2.52181	83.8835
2.52058	83.9404
2.51936	83.9176
2.51813	83.9347
2.51691	83.9719
2.51569	84.0655
2.51447	84.0884
2.51325	84.0621
2.51203	83.958
2.51082	83.8725
2.5096	83.9993
2.50839	84.0817
2.50717	83.9736
2.50596	83.9071
2.50475	83.9886
2.50354	84.073
2.50233	84.0696
2.50113	84.0681
2.49992	84.1118
2.49872	84.122
2.49751	84.0827
2.49631	84.1031
2.49511	84.1404
2.49391	84.1445
2.49271	84.0662
2.49151	84.0383
2.49031	84.0811
2.48912	84.0848
2.48792	83.9996
2.48673	84.0245
2.48554	84.1614
2.48435	84.2256
2.48316	84.2639
2.48197	84.2775
2.48078	84.2358
2.4796	84.2296
2.47841	84.3415
2.47723	84.3401
2.47604	84.2826
2.47486	84.2764
2.47368	84.2622
2.4725	84.2379
2.47132	84.2759
2.47014	84.313
2.46897	84.3348
2.46779	84.3766
2.46662	84.44
2.46545	84.4096
2.46427	84.3437
2.4631	84.367
2.46193	84.4438
2.46077	84.4978
2.4596	84.4507
2.45843	84.3276
2.45727	84.2678
2.4561	84.4319
2.45494	84.5511
2.45378	84.4062
2.45262	84.3515
2.45146	84.437
2.4503	84.4905
2.44914	84.4784
2.44799	84.516
2.44683	84.4757
2.44568	84.4947
2.44452	84.5201
2.44337	84.4749
2.44222	84.5767
2.44107	84.523
2.43992	84.391
2.43877	84.368
2.43763	84.3756
2.43648	84.4265
2.43534	84.488
2.43419	84.6228
2.43305	84.633
2.43191	84.6269
2.43077	84.744
2.42963	84.8611
2.42849	84.7618
2.42736	84.6365
2.42622	84.6424
2.42509	84.7206
2.42395	84.7224
2.42282	84.6728
2.42169	84.7401
2.42056	84.8992
2.41943	85.003
2.4183	84.9064
2.41717	84.9339
2.41605	84.9751
2.41492	84.8725
2.4138	84.7435
2.41267	84.6897
2.41155	84.6193
2.41043	84.805
2.40931	84.953
2.40819	84.8974
2.40707	84.8705
2.40595	84.9413
2.40484	84.9974
2.40372	84.9479
2.40261	84.8846
2.4015	84.9295
2.40039	84.9382
2.39928	84.9972
2.39817	85.0334
2.39706	84.9605
2.39595	84.827
2.39484	84.9315
2.39374	85.0012
2.39263	84.8579
2.39153	84.884
2.39043	85.0176
2.38932	85.0163
2.38822	85.0391
2.38712	85.0185
2.38603	84.9612
2.38493	84.8701
2.38383	84.824
2.38274	84.8438
2.38164	84.8616
2.38055	84.9039
2.37946	84.861
2.37836	84.8528
2.37727	84.9992
2.37618	85.0799
2.3751	85.0221
2.37401	84.993
2.37292	85.0044
2.37184	85.0831
2.37075	85.0761
2.36967	85.0676
2.36859	85.0731
2.3675	85.0928
2.36642	85.1285
2.36534	85.0975
2.36427	85.0294
2.36319	84.9964
2.36211	85.0651
2.36104	85.0662
2.35996	85.0107
2.35889	85.0612
2.35781	85.077
2.35674	85.0865
2.35567	85.1188
2.3546	85.1076
2.35353	85.0699
2.35247	85.1195
2.3514	85.1234
2.35033	85.1399
2.34927	85.1953
2.3482	85.1558
2.34714	85.1672
2.34608	85.174
2.34502	85.1412
2.34396	85.238
2.3429	85.2449
2.34184	85.2622
2.34078	85.3487
2.33973	85.2342
2.33867	85.3024
2.33762	85.4637
2.33656	85.4701
2.33551	85.3992
2.33446	85.311
2.33341	85.2278
2.33236	85.2329
2.33131	85.2968
2.33026	85.312
2.32922	85.3552
2.32817	85.401
2.32712	85.4641
2.32608	85.4234
2.32504	85.2808
2.324	85.2802
2.32295	85.2588
2.32191	85.2537
2.32087	85.4033
2.31984	85.4023
2.3188	85.3112
2.31776	85.3905
2.31673	85.5427
2.31569	85.5331
2.31466	85.3751
2.31362	85.431
2.31259	85.4691
2.31156	85.4645
2.31053	85.4379
2.3095	85.3447
2.30847	85.2755
2.30745	85.3144
2.30642	85.4194
2.3054	85.4774
2.30437	85.5484
2.30335	85.5573
2.30232	85.509
2.3013	85.4606
2.30028	85.413
2.29926	85.4441
2.29824	85.4245
2.29722	85.4345
2.29621	85.4516
2.29519	85.488
2.29417	85.5733
2.29316	85.6176
2.29215	85.6161
2.29113	85.5385
2.29012	85.4171
2.28911	85.3532
2.2881	85.5028
2.28709	85.6248
2.28608	85.7104
2.28507	85.7197
2.28407	85.6716
2.28306	85.6302
2.28206	85.6328
2.28105	85.6551
2.28005	85.6377
2.27905	85.527
2.27805	85.5605
2.27705	85.611
2.27605	85.6115
2.27505	85.6544
2.27405	85.7263
2.27305	85.6263
2.27206	85.6063
2.27106	85.674
2.27007	85.7401
2.26907	85.7469
2.26808	85.6677
2.26709	85.6455
2.2661	85.6139
2.26511	85.5677
2.26412	85.6561
2.26313	85.7733
2.26214	85.7895
2.26116	85.7946
2.26017	85.7905
2.25919	85.7723
2.2582	85.8175
2.25722	85.8386
2.25624	85.7447
2.25526	85.5979
2.25428	85.5777
2.2533	85.6893
2.25232	85.7663
2.25134	85.7331
2.25036	85.7462
2.24939	85.7921
2.24841	85.7609
2.24744	85.6559
2.24646	85.6953
2.24549	85.7179
2.24452	85.6999
2.24355	85.5408
2.24257	85.5015
2.24161	85.6248
2.24064	85.5966
2.23967	85.5722
2.2387	85.6994
2.23774	85.8384
2.23677	85.8198
2.23581	85.7283
2.23484	85.7347
2.23388	85.7084
2.23292	85.6639
2.23196	85.6897
2.231	85.5974
2.23004	85.6818
2.22908	85.7826
2.22812	85.7619
2.22716	85.6579
2.22621	85.581
2.22525	85.663
2.2243	85.7075
2.22334	85.6138
2.22239	85.5317
2.22144	85.5398
2.22049	85.616
2.21953	85.6551
2.21859	85.5707
2.21764	85.4908
2.21669	85.4695
2.21574	85.4866
2.21479	85.466
2.21385	85.3712
2.2129	85.2515
2.21196	85.1319
2.21102	84.9948
2.21007	84.9115
2.20913	84.7929
2.20819	84.7445
2.20725	84.7833
2.20631	84.881
2.20537	84.8815
2.20444	84.8529
2.2035	84.8236
2.20256	84.7714
2.20163	84.8908
2.20069	85.0747
2.19976	85.0568
2.19883	85.1221
2.19789	85.2618
2.19696	85.2875
2.19603	85.3493
2.1951	85.3557
2.19417	85.3419
2.19325	85.4241
2.19232	85.4024
2.19139	85.4755
2.19047	85.4366
2.18954	85.3534
2.18862	85.4096
2.18769	85.4053
2.18677	85.458
2.18585	85.4427
2.18493	85.2703
2.18401	85.3923
2.18309	85.6219
2.18217	85.6326
2.18125	85.6505
2.18033	85.6761
2.17942	85.6111
2.1785	85.5488
2.17759	85.5605
2.17667	85.583
2.17576	85.5842
2.17485	85.6357
2.17393	85.7033
2.17302	85.6656
2.17211	85.5923
2.1712	85.6165
2.17029	85.5845
2.16939	85.6774
2.16848	85.6964
2.16757	85.6219
2.16667	85.6938
2.16576	85.7412
2.16486	85.69
2.16395	85.6336
2.16305	85.6082
2.16215	85.5719
2.16125	85.5446
2.16035	85.6253
2.15945	85.7344
2.15855	85.9269
2.15765	85.9339
2.15675	85.7341
2.15586	85.6906
2.15496	85.8303
2.15406	86.0173
2.15317	85.8745
2.15228	85.6093
2.15138	85.7307
2.15049	85.9773
2.1496	86.1852
2.14871	86.2093
2.14782	85.8927
2.14693	85.6402
2.14604	85.6645
2.14515	85.8632
2.14427	86.0071
2.14338	85.9778
2.14249	86.0511
2.14161	86.0719
2.14072	86.1786
2.13984	86.2226
2.13896	86.2459
2.13808	86.1346
2.13719	86.0654
2.13631	86.0803
2.13543	86.1071
2.13455	86.2452
2.13368	86.1559
2.1328	86.0466
2.13192	86.0981
2.13105	86.0962
2.13017	86.1522
2.1293	86.1941
2.12842	86.1923
2.12755	86.27
2.12668	86.2871
2.1258	86.155
2.12493	86.1284
2.12406	86.0852
2.12319	86.1648
2.12232	86.1593
2.12145	86.1511
2.12059	86.1114
2.11972	86.1651
2.11885	86.2242
2.11799	86.2246
2.11712	86.2017
2.11626	86.2123
2.1154	86.287
2.11453	86.4282
2.11367	86.3687
2.11281	86.1737
2.11195	86.1549
2.11109	86.2185
2.11023	86.2355
2.10937	86.2064
2.10851	86.1409
2.10766	86.3057
2.1068	86.3122
2.10594	86.2727
2.10509	86.2399
2.10423	86.2119
2.10338	86.3783
2.10253	86.4632
2.10168	86.4695
2.10082	86.5147
2.09997	86.3933
2.09912	86.1011
2.09827	86.0386
2.09742	86.2857
2.09658	86.4047
2.09573	86.2663
2.09488	86.3349
2.09404	86.245
2.09319	85.9404
2.09235	86.1672
2.0915	86.3709
2.09066	86.3052
2.08982	86.2541
2.08897	86.0801
2.08813	85.8545
2.08729	86.0492
2.08645	86.2133
2.08561	86.26
2.08477	86.1742
2.08394	86.2163
2.0831	86.2378
2.08226	86.1727
2.08143	86.1333
2.08059	86.193
2.07976	86.4181
2.07892	86.3218
2.07809	86.0929
2.07726	86.3901
2.07643	86.5285
2.07559	86.5051
2.07476	86.3538
2.07393	86.2786
2.0731	86.4681
2.07228	86.4422
2.07145	86.1216
2.07062	85.9784
2.06979	85.913
2.06897	86.1272
2.06814	86.3041
2.06732	86.2908
2.06649	86.3365
2.06567	86.3888
2.06485	86.223
2.06403	86.2736
2.0632	86.3446
2.06238	86.2148
2.06156	86.2814
2.06074	86.4092
2.05993	86.4347
2.05911	86.3417
2.05829	86.2157
2.05747	86.2785
2.05666	86.3205
2.05584	86.1508
2.05503	86.2778
2.05421	86.4605
2.0534	86.4874
2.05259	86.3956
2.05177	86.4729
2.05096	86.4394
2.05015	86.336
2.04934	86.4711
2.04853	86.4945
2.04772	86.2527
2.04691	86.1681
2.04611	86.1531
2.0453	86.1933
2.04449	86.3494
2.04369	86.3507
2.04288	86.4124
2.04208	86.5196
2.04127	86.412
2.04047	86.3687
2.03967	86.3486
2.03886	86.3503
2.03806	86.3872
2.03726	86.382
2.03646	86.4719
2.03566	86.3921
2.03486	86.265
2.03407	86.3887
2.03327	86.5176
2.03247	86.5187
2.03167	86.3211
2.03088	86.1738
2.03008	86.4701
2.02929	86.634
2.0285	86.2265
2.0277	86.1638
2.02691	86.3848
2.02612	86.3618
2.02533	86.2692
2.02453	86.169
2.02374	86.0974
2.02295	86.0481
2.02217	86.2218
2.02138	86.3959
2.02059	86.3822
2.0198	86.1547
2.01902	86.0852
2.01823	86.317
2.01744	86.3732
2.01666	86.3573
2.01588	86.4475
2.01509	86.4674
2.01431	86.4542
2.01353	86.4172
2.01275	86.2263
2.01196	86.139
2.01118	86.3352
2.0104	86.3715
2.00963	86.3179
2.00885	86.4223
2.00807	86.3712
2.00729	86.2386
2.00651	86.2872
2.00574	86.3939
2.00496	86.3893
2.00419	86.3437
2.00341	86.3412
2.00264	86.3795
2.00187	86.3829
2.00109	86.5395
2.00032	86.4775
