Name: Rhodonite (Mn,Ca)SiO_3
Type: Mineral
Class: Silicates
Subclass: Inosilicates
Particle Size: 0-45um
Sample No.: IN-1A
Owner: JPL
Wavelength range: IR
Origin: USA, California, Fresno County
Collected by Burminco
Description: 





Measurement: Hemispherical reflectance
First Column: X
Second Column: Y
X Units:  Wavelength (micrometers)
Y Units:  Reflectance (percent)
First X Value: 15.3853
Last X Value: 2.00032
Number of X Values: 2256
Additional information: in01aa.txt
 
15.3853	4.00861
15.3397	4.0126
15.2945	4.20758
15.2495	4.31168
15.2048	4.13258
15.1603	3.98749
15.1161	3.92713
15.0722	4.02588
15.0285	4.11324
14.9851	4.0435
14.9419	3.87639
14.8989	3.69719
14.8563	3.78343
14.8138	3.90392
14.7716	4.03513
14.7296	4.27449
14.6879	4.58214
14.6464	4.91584
14.6052	5.09138
14.5641	4.98549
14.5233	4.80337
14.4828	4.75911
14.4424	4.85409
14.4023	4.72675
14.3624	4.70571
14.3227	5.05373
14.2833	5.47879
14.244	5.58403
14.205	5.64051
14.1662	5.72823
14.1276	5.58476
14.0892	5.19286
14.051	4.8804
14.0131	4.74733
13.9753	4.51445
13.9377	4.34728
13.9004	4.38167
13.8632	4.35026
13.8262	4.29986
13.7895	4.48874
13.7529	4.98517
13.7165	5.61139
13.6803	6.29816
13.6443	6.9465
13.6085	7.58984
13.5729	8.18595
13.5374	8.65664
13.5022	9.05744
13.4671	9.69123
13.4322	10.2854
13.3975	10.8696
13.363	11.3231
13.3286	11.6204
13.2944	11.9318
13.2604	12.3398
13.2266	12.8367
13.193	13.0059
13.1595	12.8779
13.1262	12.7928
13.093	12.8594
13.06	13.0733
13.0272	13.2937
12.9946	13.3867
12.9621	13.3851
12.9298	13.3187
12.8976	13.0561
12.8656	12.9564
12.8337	12.9493
12.8021	13.0214
12.7705	13.078
12.7391	12.9755
12.7079	12.9018
12.6769	12.9081
12.6459	12.8897
12.6152	12.6373
12.5845	12.5337
12.5541	12.541
12.5238	12.479
12.4936	12.375
12.4635	12.4526
12.4337	12.4344
12.4039	12.1983
12.3743	12.0142
12.3448	12.0415
12.3155	11.9495
12.2863	11.841
12.2573	11.7058
12.2284	11.5846
12.1996	11.3876
12.171	11.2808
12.1425	11.2591
12.1141	11.0508
12.0859	10.8618
12.0578	10.7858
12.0298	10.7032
12.0019	10.4343
11.9742	10.2318
11.9466	10.0895
11.9192	9.97483
11.8918	9.86184
11.8646	9.65896
11.8375	9.54181
11.8106	9.43457
11.7837	9.20091
11.757	9.12874
11.7304	9.09182
11.7039	8.93151
11.6776	8.74049
11.6513	8.51919
11.6252	8.24889
11.5992	7.99017
11.5733	7.53619
11.5475	7.14077
11.5219	6.9642
11.4963	6.67151
11.4709	6.47235
11.4455	6.40437
11.4203	6.50584
11.3952	6.63562
11.3702	6.78422
11.3454	7.05994
11.3206	7.39733
11.2959	7.63734
11.2714	7.83099
11.2469	7.93932
11.2226	8.02316
11.1983	7.90459
11.1742	7.80808
11.1502	7.82879
11.1263	7.72563
11.1024	7.48518
11.0787	7.36375
11.0551	7.30225
11.0316	7.13196
11.0081	7.03173
10.9848	6.96999
10.9616	6.89747
10.9385	6.63992
10.9154	6.29762
10.8925	6.11384
10.8697	6.1
10.8469	6.11684
10.8243	6.2312
10.8017	6.30453
10.7793	6.30442
10.7569	6.35827
10.7346	6.42761
10.7125	6.39916
10.6904	6.60669
10.6684	6.81403
10.6465	6.79309
10.6247	6.96404
10.6029	7.36983
10.5813	7.84035
10.5597	8.44101
10.5383	8.96669
10.5169	9.41135
10.4956	9.66287
10.4744	9.77468
10.4533	9.7958
10.4323	9.68803
10.4113	9.39146
10.3904	8.89454
10.3697	8.24423
10.349	7.60285
10.3284	7.11059
10.3078	7.0171
10.2874	7.27357
10.267	7.78182
10.2467	8.13951
10.2265	8.30423
10.2064	8.51475
10.1863	8.5578
10.1663	8.55157
10.1464	8.79687
10.1266	8.88211
10.1069	8.91469
10.0872	8.93903
10.0676	8.90978
10.0481	8.86729
10.0287	8.97306
10.0093	8.98949
9.99005	8.99027
9.97084	9.02656
9.95169	9.0142
9.93263	8.84687
9.91364	8.68472
9.89472	8.75015
9.87587	8.85251
9.8571	8.82398
9.83839	8.56241
9.81976	8.24872
9.80119	8.09718
9.78271	7.90719
9.76428	7.78384
9.74592	7.7583
9.72764	7.64241
9.70943	7.34815
9.69128	6.89171
9.6732	6.42166
9.65518	6.00698
9.63724	5.71707
9.61935	5.50425
9.60155	5.20101
9.5838	4.96598
9.56611	5.1338
9.5485	5.33735
9.53094	5.52256
9.51345	5.91722
9.49604	6.54687
9.47867	6.97114
9.46137	7.23745
9.44414	7.45245
9.42697	7.47957
9.40986	7.54365
9.39281	7.70609
9.37583	7.65918
9.35891	7.5992
9.34204	7.47526
9.32524	7.39563
9.3085	7.45963
9.29182	7.53288
9.27519	7.4789
9.25863	7.29995
9.24213	7.17854
9.22568	7.10008
9.2093	6.95383
9.19297	6.76304
9.17669	6.61113
9.16048	6.52241
9.14433	6.56749
9.12823	6.59406
9.11218	6.54492
9.0962	6.40544
9.08027	6.34993
9.06439	6.29942
9.04858	6.32376
9.03281	6.34106
9.0171	6.3108
9.00145	6.35475
8.98585	6.50643
8.9703	6.53236
8.9548	6.53018
8.93937	6.69981
8.92398	6.68029
8.90865	6.48801
8.89337	6.36889
8.87814	6.3172
8.86296	6.04093
8.84784	5.79975
8.83277	5.62935
8.81774	5.38684
8.80277	4.88783
8.78786	4.40318
8.77298	4.10991
8.75816	3.98742
8.7434	3.87144
8.72868	3.76841
8.714	3.67395
8.69938	3.61498
8.68481	3.51956
8.67029	3.37362
8.65581	3.36887
8.64139	3.32584
8.62701	3.27947
8.61268	3.37096
8.5984	3.509
8.58416	3.51702
8.56997	3.54768
8.55583	3.52638
8.54174	3.58255
8.52769	3.76094
8.51368	3.83743
8.49973	3.86607
8.48582	4.01498
8.47195	4.12826
8.45813	4.16518
8.44436	4.2657
8.43062	4.42575
8.41693	4.51836
8.4033	4.61839
8.3897	4.81807
8.37614	5.10314
8.36264	5.28154
8.34917	5.45418
8.33574	5.58417
8.32236	5.77194
8.30903	6.09237
8.29573	6.28233
8.28248	6.45225
8.26927	6.69991
8.2561	6.98848
8.24298	7.23994
8.2299	7.50836
8.21685	7.78472
8.20385	8.09157
8.19089	8.36742
8.17797	8.60457
8.16509	8.73218
8.15225	8.95126
8.13946	9.20025
8.1267	9.41004
8.11398	9.71058
8.10131	9.91957
8.08867	10.1553
8.07606	10.3657
8.0635	10.5012
8.05099	10.735
8.0385	10.9166
8.02606	11.0492
8.01366	11.2215
8.00129	11.534
7.98896	11.7599
7.97667	11.8047
7.96442	11.9757
7.9522	12.2218
7.94002	12.3744
7.92788	12.5515
7.91578	12.6714
7.90371	12.75
7.89168	12.9123
7.87969	13.0986
7.86773	13.2481
7.85581	13.4351
7.84392	13.5567
7.83207	13.6554
7.82026	13.7393
7.80849	13.8026
7.79674	13.7988
7.78503	13.9703
7.77337	14.2382
7.76173	14.4311
7.75012	14.5297
7.73856	14.7913
7.72703	14.9619
7.71553	15.0329
7.70406	15.2259
7.69263	15.4435
7.68123	15.6244
7.66987	15.7833
7.65855	15.9446
7.64725	16.1465
7.63598	16.3582
7.62475	16.558
7.61356	16.6809
7.60239	16.7895
7.59126	16.9785
7.58017	17.1532
7.5691	17.2531
7.55806	17.3464
7.54707	17.4886
7.5361	17.6734
7.52516	17.8251
7.51425	17.9141
7.50338	17.9756
7.49253	18.0805
7.48172	18.2829
7.47094	18.3622
7.46019	18.3888
7.44947	18.4022
7.43879	18.3795
7.42813	18.4013
7.4175	18.4267
7.4069	18.4353
7.39634	18.4725
7.3858	18.4631
7.37529	18.3795
7.36482	18.315
7.35437	18.2453
7.34396	18.138
7.33357	17.9848
7.32321	17.7875
7.31288	17.6227
7.30258	17.4933
7.29231	17.4173
7.28207	17.2775
7.27185	17.0765
7.26167	16.8472
7.25152	16.7266
7.24139	16.5661
7.23129	16.3692
7.22122	16.2997
7.21117	16.2845
7.20116	16.0425
7.19117	15.7985
7.18121	15.799
7.17128	15.8091
7.16137	15.6478
7.1515	15.5483
7.14164	15.442
7.13182	15.3346
7.12203	15.3888
7.11225	15.3433
7.10251	15.1058
7.0928	14.9848
7.08311	14.9263
7.07344	14.8321
7.06381	14.6933
7.0542	14.5923
7.04461	14.5238
7.03506	14.3673
7.02552	14.2536
7.01601	14.1586
7.00653	14.0968
6.99708	14.0258
6.98765	13.9195
6.97824	13.7951
6.96886	13.8319
6.95951	13.9002
6.95018	13.7719
6.94087	13.6972
6.9316	13.7442
6.92234	13.7856
6.91311	13.8715
6.90391	13.8853
6.89473	13.8889
6.88557	13.9667
6.87644	14.0922
6.86733	14.3125
6.85824	14.4595
6.84918	14.4258
6.84015	14.5347
6.83114	14.803
6.82215	14.9452
6.81319	14.9809
6.80424	15.207
6.79532	15.5183
6.78643	15.7208
6.77756	15.7292
6.76871	15.7807
6.75989	16.0061
6.75109	16.2963
6.74231	16.5157
6.73355	16.6933
6.72482	16.8878
6.71611	17.2252
6.70742	17.5258
6.69875	17.6931
6.69011	17.9323
6.68149	18.2963
6.67289	18.5915
6.66431	18.8634
6.65576	19.1012
6.64722	19.5627
6.63871	20.229
6.63022	20.523
6.62175	20.6947
6.61331	21.0294
6.60488	21.3931
6.59648	21.8793
6.5881	22.3318
6.57974	22.8082
6.5714	23.3515
6.56308	23.6846
6.55478	24.0376
6.54651	24.3454
6.53825	24.6836
6.53001	25.1747
6.5218	25.6473
6.51361	25.8422
6.50544	26.2394
6.49729	26.9739
6.48915	27.3384
6.48104	27.5121
6.47295	27.7484
6.46488	27.9498
6.45683	28.1336
6.4488	28.3265
6.44079	28.5228
6.4328	28.8138
6.42482	28.9323
6.41687	29.0915
6.40894	28.7626
6.40103	28.1375
6.39314	27.7924
6.38526	27.565
6.37741	27.3992
6.36957	27.1928
6.36176	26.7893
6.35396	26.4912
6.34618	26.3494
6.33843	25.9536
6.33069	25.5626
6.32297	25.3298
6.31527	25.1981
6.30758	25.0292
6.29992	24.8925
6.29227	24.8739
6.28465	24.8683
6.27704	24.9628
6.26945	25.1036
6.26188	25.0962
6.25432	25.0894
6.24679	25.172
6.23927	25.2088
6.23177	25.1974
6.22429	25.1781
6.21683	25.319
6.20938	25.4447
6.20195	25.5363
6.19454	25.7566
6.18715	26.1136
6.17978	26.1753
6.17242	26.1528
6.16508	26.3481
6.15776	26.4968
6.15045	26.5532
6.14317	26.5699
6.1359	26.4387
6.12864	26.4417
6.12141	26.6843
6.11419	26.9408
6.10699	26.8651
6.0998	26.8122
6.09263	26.893
6.08549	27.0131
6.07835	27.1976
6.07123	27.2937
6.06413	27.2787
6.05705	27.5869
6.04998	28.0489
6.04293	27.7763
6.0359	27.4899
6.02888	27.4838
6.02187	27.6022
6.01489	27.7753
6.00792	27.7734
6.00096	27.7892
5.99403	28.0317
5.98711	28.1454
5.9802	27.992
5.97331	27.9808
5.96644	28.0345
5.95958	27.8792
5.95274	27.7366
5.94591	27.7857
5.9391	27.9571
5.9323	27.6211
5.92552	27.2598
5.91876	27.1857
5.91201	27.1246
5.90528	27.143
5.89856	27.3754
5.89186	27.5191
5.88517	27.7251
5.8785	27.871
5.87184	27.7527
5.8652	27.9284
5.85857	28.0395
5.85196	28.185
5.84536	28.3632
5.83878	28.5797
5.83221	28.8533
5.82566	29.2062
5.81912	29.4259
5.81259	29.3915
5.80608	29.4053
5.79959	29.5193
5.79311	29.6719
5.78665	29.7733
5.78019	29.8666
5.77376	30.0322
5.76734	30.2694
5.76093	30.0839
5.75453	29.8281
5.74815	29.808
5.74179	29.598
5.73543	29.418
5.7291	29.2619
5.72277	29.1685
5.71646	29.1924
5.71017	29.1783
5.70389	28.9963
5.69762	28.9634
5.69136	29.0752
5.68513	29.1118
5.6789	29.1294
5.67268	29.1786
5.66648	29.1877
5.6603	29.3116
5.65413	29.483
5.64797	29.6467
5.64182	29.8025
5.63569	29.7081
5.62957	29.6108
5.62347	29.5765
5.61737	29.4583
5.61129	29.1851
5.60522	28.947
5.59917	28.6864
5.59313	28.366
5.5871	28.1167
5.58109	27.9272
5.57509	27.7682
5.5691	27.7147
5.56312	27.8292
5.55716	28.1599
5.55121	28.666
5.54528	29.3582
5.53935	30.1812
5.53344	31.0961
5.52754	32.0277
5.52166	32.7867
5.51578	33.4371
5.50992	34.0142
5.50407	34.5781
5.49823	35.068
5.49241	35.606
5.4866	36.1375
5.4808	36.6087
5.47501	36.9086
5.46923	37.2288
5.46347	37.5525
5.45772	37.6414
5.45198	37.7067
5.44625	37.8516
5.44054	37.9328
5.43484	37.9957
5.42914	38.0048
5.42347	37.9852
5.4178	37.7399
5.41214	37.5407
5.4065	37.3066
5.40087	37.0375
5.39525	36.7819
5.38964	36.549
5.38404	36.2964
5.37846	36.0606
5.37288	35.771
5.36732	35.4533
5.36177	35.1934
5.35623	35.0692
5.35071	34.9512
5.34519	34.7676
5.33968	34.5959
5.33419	34.4058
5.32871	34.3077
5.32324	34.2529
5.31778	34.1723
5.31233	34.1211
5.30689	34.0686
5.30147	34.0898
5.29605	34.1847
5.29065	34.2985
5.28525	34.3208
5.27987	34.4342
5.2745	34.5096
5.26914	34.5221
5.26379	34.5815
5.25845	34.6881
5.25312	34.7683
5.24781	34.8546
5.2425	34.966
5.23721	35.0908
5.23192	35.1747
5.22665	35.2966
5.22138	35.4294
5.21613	35.6962
5.21089	35.932
5.20566	36.0721
5.20044	36.1873
5.19522	36.3378
5.19002	36.5448
5.18483	36.7879
5.17965	37.0308
5.17448	37.2014
5.16933	37.3482
5.16418	37.5213
5.15904	37.6749
5.15391	37.7699
5.14879	37.8494
5.14368	37.9735
5.13859	38.0665
5.1335	38.1434
5.12842	38.1969
5.12335	38.1663
5.1183	38.2315
5.11325	38.3674
5.10821	38.4836
5.10318	38.6756
5.09817	38.8295
5.09316	39.0099
5.08816	39.2751
5.08317	39.4525
5.07819	39.6083
5.07322	39.8641
5.06826	40.0559
5.06331	40.1762
5.05837	40.2923
5.05344	40.4574
5.04852	40.6147
5.04361	40.7497
5.03871	40.8783
5.03382	41.0572
5.02894	41.1387
5.02406	41.2294
5.0192	41.4118
5.01435	41.5208
5.0095	41.6968
5.00467	42.0381
4.99984	42.37
4.99502	42.7427
4.99021	43.0696
4.98542	43.3325
4.98063	43.67
4.97585	44.0613
4.97108	44.357
4.96632	44.6703
4.96156	45.0552
4.95682	45.416
4.95209	45.7392
4.94736	46.0406
4.94264	46.3519
4.93794	46.6009
4.93324	46.8672
4.92855	47.1267
4.92387	47.2803
4.9192	47.4967
4.91453	47.7583
4.90988	47.9939
4.90524	48.1917
4.9006	48.4231
4.89597	48.5937
4.89135	48.7249
4.88674	48.8704
4.88214	49.0893
4.87755	49.2667
4.87296	49.4472
4.86839	49.5722
4.86382	49.7538
4.85926	50.0409
4.85471	50.2324
4.85017	50.4082
4.84564	50.5668
4.84111	50.7228
4.8366	50.9232
4.83209	51.1224
4.82759	51.2666
4.8231	51.3754
4.81862	51.6233
4.81415	51.8419
4.80968	51.979
4.80522	52.1316
4.80077	52.2327
4.79633	52.3726
4.7919	52.6625
4.78747	52.829
4.78306	52.9369
4.77865	53.1831
4.77425	53.4584
4.76986	53.6573
4.76547	53.8854
4.7611	54.149
4.75673	54.4028
4.75237	54.6567
4.74802	54.9505
4.74367	55.2791
4.73934	55.5942
4.73501	55.8376
4.73069	56.053
4.72638	56.2873
4.72207	56.5675
4.71777	56.8724
4.71348	57.139
4.7092	57.3257
4.70493	57.5534
4.70066	57.762
4.69641	58.0258
4.69216	58.3238
4.68791	58.5706
4.68368	58.7833
4.67945	59.052
4.67523	59.2531
4.67102	59.4503
4.66682	59.7324
4.66262	60.0405
4.65843	60.2531
4.65425	60.5028
4.65007	60.8195
4.64591	61.1633
4.64175	61.4767
4.6376	61.6757
4.63345	61.8284
4.62932	62.0895
4.62519	62.3415
4.62106	62.6342
4.61695	62.8687
4.61284	63.0242
4.60874	63.2057
4.60465	63.4474
4.60056	63.7064
4.59648	63.9356
4.59241	64.1222
4.58835	64.3061
4.58429	64.4815
4.58024	64.6785
4.5762	64.8528
4.57216	64.9457
4.56814	65.0701
4.56411	65.2609
4.5601	65.4211
4.55609	65.5627
4.55209	65.7431
4.5481	65.926
4.54411	66.0731
4.54013	66.1469
4.53616	66.1703
4.5322	66.3215
4.52824	66.4704
4.52429	66.5363
4.52034	66.5944
4.51641	66.6659
4.51247	66.7598
4.50855	66.8889
4.50463	66.9352
4.50072	66.9527
4.49682	67.0358
4.49292	67.1324
4.48903	67.1325
4.48515	67.1824
4.48127	67.2071
4.4774	67.2396
4.47354	67.3134
4.46968	67.4449
4.46584	67.5784
4.46199	67.6527
4.45815	67.6566
4.45432	67.7102
4.4505	67.8156
4.44668	67.8929
4.44287	67.924
4.43907	67.9546
4.43527	67.9344
4.43148	67.9761
4.4277	68.0491
4.42392	68.0634
4.42015	68.1172
4.41638	68.1461
4.41262	68.1994
4.40887	68.2601
4.40513	68.2232
4.40139	68.2027
4.39765	68.175
4.39393	68.2104
4.39021	68.2615
4.38649	68.2885
4.38278	68.3097
4.37908	68.3313
4.37539	68.3723
4.3717	68.4208
4.36801	68.4649
4.36434	68.5099
4.36067	68.4413
4.357	68.3784
4.35335	68.456
4.34969	68.5305
4.34605	68.4777
4.34241	68.4898
4.33877	68.4968
4.33514	68.4767
4.33152	68.5241
4.32791	68.6092
4.3243	68.6231
4.32069	68.6225
4.3171	68.7034
4.31351	68.7691
4.30992	68.7547
4.30634	68.7739
4.30277	68.7698
4.2992	68.8184
4.29564	68.8728
4.29208	68.9256
4.28853	68.8913
4.28499	68.8586
4.28145	68.9385
4.27792	68.9953
4.27439	68.9704
4.27087	68.9366
4.26735	68.9121
4.26384	69.01
4.26034	69.0694
4.25684	69.0699
4.25335	69.1177
4.24986	69.1382
4.24638	69.165
4.24291	69.2526
4.23944	69.2423
4.23598	69.205
4.23252	69.2137
4.22906	69.1999
4.22562	69.2156
4.22218	69.2165
4.21874	69.2288
4.21531	69.2852
4.21189	69.3207
4.20847	69.3661
4.20506	69.3736
4.20165	69.3411
4.19825	69.2598
4.19485	69.2779
4.19146	69.3752
4.18807	69.4311
4.18469	69.4233
4.18132	69.4016
4.17795	69.38
4.17458	69.4484
4.17123	69.4918
4.16787	69.3943
4.16453	69.3567
4.16118	69.3961
4.15785	69.3902
4.15451	69.3256
4.15119	69.3815
4.14787	69.4309
4.14455	69.4486
4.14124	69.4593
4.13794	69.4137
4.13464	69.376
4.13134	69.3204
4.12805	69.2418
4.12477	69.1841
4.12149	69.194
4.11822	69.1873
4.11495	69.0915
4.11168	68.9931
4.10843	69.0057
4.10517	69.0159
4.10192	68.9357
4.09868	68.7723
4.09545	68.6509
4.09221	68.5666
4.08899	68.4243
4.08576	68.1896
4.08255	67.9813
4.07933	67.7348
4.07613	67.4759
4.07292	67.1208
4.06973	66.7124
4.06654	66.3478
4.06335	65.8817
4.06017	65.2892
4.05699	64.7052
4.05382	64.1087
4.05065	63.5151
4.04749	62.9704
4.04433	62.4085
4.04118	61.7708
4.03803	61.0918
4.03489	60.4247
4.03175	59.909
4.02862	59.4587
4.02549	58.925
4.02237	58.4106
4.01925	58.003
4.01614	57.628
4.01303	57.3182
4.00993	57.104
4.00683	56.9132
4.00373	56.7071
4.00064	56.4302
3.99756	56.1219
3.99448	55.7789
3.9914	55.4423
3.98833	55.048
3.98527	54.7154
3.98221	54.5034
3.97915	54.3167
3.9761	54.1807
3.97305	54.1208
3.97001	54.1728
3.96697	54.3938
3.96394	54.6536
3.96091	54.9785
3.95789	55.4188
3.95487	55.8326
3.95186	56.3273
3.94885	56.9898
3.94584	57.6569
3.94284	58.2444
3.93984	58.8057
3.93685	59.3527
3.93386	59.8614
3.93088	60.242
3.9279	60.5864
3.92493	60.8977
3.92196	61.0847
3.919	61.2601
3.91604	61.4897
3.91308	61.6585
3.91013	61.7426
3.90718	61.7411
3.90424	61.8251
3.9013	61.95
3.89837	61.9979
3.89544	61.9822
3.89252	62.0062
3.8896	62.0473
3.88668	62.1308
3.88377	62.203
3.88086	62.2189
3.87796	62.2324
3.87506	62.2176
3.87217	62.2517
3.86928	62.3107
3.86639	62.3444
3.86351	62.4107
3.86064	62.4905
3.85776	62.4928
3.8549	62.5462
3.85203	62.7156
3.84917	62.8644
3.84631	62.9573
3.84346	63.0632
3.84062	63.2425
3.83777	63.4379
3.83494	63.6608
3.8321	63.897
3.82927	64.2481
3.82644	64.5833
3.82362	64.8598
3.82081	65.1179
3.81799	65.3573
3.81518	65.6215
3.81238	65.9289
3.80958	66.2033
3.80678	66.5006
3.80399	66.8078
3.8012	67.0892
3.79841	67.3946
3.79563	67.7154
3.79286	67.9362
3.79008	68.1628
3.78731	68.4232
3.78455	68.5982
3.78179	68.6783
3.77903	68.7503
3.77628	68.7665
3.77353	68.8152
3.77079	68.8789
3.76805	68.9063
3.76531	68.8843
3.76258	68.9023
3.75985	68.9281
3.75713	68.8925
3.7544	68.886
3.75169	68.9242
3.74898	68.8601
3.74627	68.793
3.74356	68.7833
3.74086	68.8123
3.73816	68.7909
3.73547	68.7435
3.73278	68.7311
3.7301	68.6996
3.72741	68.7182
3.72474	68.7519
3.72206	68.6885
3.71939	68.5792
3.71673	68.4994
3.71406	68.5222
3.71141	68.5724
3.70875	68.5821
3.7061	68.4815
3.70345	68.4251
3.70081	68.378
3.69817	68.3414
3.69553	68.2903
3.6929	68.263
3.69027	68.2311
3.68765	68.236
3.68503	68.2666
3.68241	68.2288
3.6798	68.1417
3.67719	68.0653
3.67458	68.0224
3.67198	68.0295
3.66938	68.002
3.66678	67.9524
3.66419	67.8611
3.66161	67.8236
3.65902	67.8126
3.65644	67.7596
3.65387	67.6775
3.65129	67.6154
3.64872	67.5556
3.64616	67.4913
3.64359	67.4795
3.64103	67.4456
3.63848	67.3732
3.63593	67.3899
3.63338	67.3633
3.63084	67.3197
3.6283	67.2118
3.62576	67.0788
3.62322	66.9861
3.62069	66.8911
3.61817	66.7994
3.61564	66.7358
3.61312	66.7049
3.61061	66.6481
3.6081	66.5379
3.60559	66.3945
3.60308	66.2553
3.60058	66.1444
3.59808	66.0028
3.59558	65.885
3.59309	65.7903
3.59061	65.6735
3.58812	65.6341
3.58564	65.5468
3.58316	65.359
3.58069	65.1834
3.57822	65.0477
3.57575	64.8903
3.57328	64.712
3.57082	64.5165
3.56836	64.3185
3.56591	64.1229
3.56346	63.9972
3.56101	63.8113
3.55857	63.5295
3.55613	63.356
3.55369	63.2075
3.55126	63.0177
3.54883	62.7325
3.5464	62.4641
3.54397	62.2795
3.54155	62.0192
3.53914	61.7913
3.53672	61.5868
3.53431	61.4074
3.5319	61.2055
3.5295	60.9632
3.5271	60.6969
3.5247	60.3236
3.52231	59.9746
3.51991	59.704
3.51753	59.4674
3.51514	59.233
3.51276	58.9318
3.51038	58.7169
3.50801	58.5214
3.50563	58.2576
3.50327	57.93
3.5009	57.6151
3.49854	57.4693
3.49618	57.3602
3.49382	57.2176
3.49147	57.0232
3.48912	56.8922
3.48677	56.8381
3.48443	56.7557
3.48209	56.6612
3.47975	56.5213
3.47742	56.5167
3.47509	56.5203
3.47276	56.4607
3.47044	56.601
3.46812	56.828
3.4658	57.0636
3.46348	57.3195
3.46117	57.4708
3.45886	57.6449
3.45656	57.7776
3.45425	57.9262
3.45195	58.0071
3.44966	57.9484
3.44736	57.9319
3.44507	57.9601
3.44279	57.9992
3.4405	57.9642
3.43822	57.8632
3.43594	57.8894
3.43367	58.003
3.43139	57.8716
3.42912	57.6465
3.42686	57.6171
3.42459	57.5827
3.42233	57.4794
3.42007	57.3547
3.41782	57.2402
3.41557	57.2799
3.41332	57.2161
3.41108	57.1144
3.40883	57.0178
3.40659	56.9783
3.40435	56.9927
3.40212	56.9463
3.39989	56.8996
3.39766	56.9359
3.39544	56.9552
3.39322	56.8598
3.391	56.8159
3.38878	56.8005
3.38657	56.695
3.38436	56.6166
3.38215	56.5718
3.37994	56.496
3.37774	56.3799
3.37554	56.303
3.37335	56.2735
3.37115	56.2048
3.36896	56.1716
3.36678	56.1998
3.36459	56.2024
3.36241	56.105
3.36023	55.9369
3.35805	55.8488
3.35588	55.7775
3.35371	55.7606
3.35154	55.7668
3.34938	55.7252
3.34721	55.7517
3.34505	55.9431
3.3429	56.1991
3.34074	56.5638
3.33859	56.9312
3.33644	57.2711
3.3343	57.5151
3.33215	57.7465
3.33001	58.0743
3.32788	58.3667
3.32574	58.5327
3.32361	58.6226
3.32148	58.6022
3.31936	58.5624
3.31723	58.7087
3.31511	58.7504
3.31299	58.6588
3.31088	58.6191
3.30876	58.6923
3.30665	58.7466
3.30455	58.7162
3.30244	58.7321
3.30034	58.6764
3.29824	58.5762
3.29614	58.5546
3.29405	58.557
3.29196	58.59
3.28987	58.5279
3.28778	58.3908
3.2857	58.2953
3.28362	58.2719
3.28154	58.234
3.27946	58.1786
3.27739	58.064
3.27532	57.957
3.27325	58.0146
3.27119	58.1088
3.26913	58.0672
3.26707	57.9576
3.26501	57.8422
3.26295	57.7487
3.2609	57.6507
3.25885	57.5497
3.2568	57.44
3.25476	57.3401
3.25272	57.2973
3.25068	57.2782
3.24864	57.3115
3.24661	57.2495
3.24458	57.1526
3.24255	57.0776
3.24052	56.9819
3.2385	56.8798
3.23648	56.8325
3.23446	56.8141
3.23244	56.7548
3.23043	56.6933
3.22841	56.5713
3.2264	56.4623
3.2244	56.3913
3.22239	56.2915
3.22039	56.2224
3.21839	56.1577
3.2164	56.0064
3.2144	55.958
3.21241	55.9276
3.21042	55.8614
3.20844	55.7916
3.20645	55.687
3.20447	55.6242
3.20249	55.5645
3.20051	55.4678
3.19854	55.3658
3.19657	55.2688
3.1946	55.1949
3.19263	55.0841
3.19067	55.0201
3.1887	54.9712
3.18674	54.8205
3.18479	54.6673
3.18283	54.6566
3.18088	54.6942
3.17893	54.6302
3.17698	54.4419
3.17504	54.2928
3.17309	54.274
3.17115	54.2248
3.16921	54.0843
3.16728	53.966
3.16534	53.9016
3.16341	53.8369
3.16148	53.7363
3.15956	53.6167
3.15763	53.5002
3.15571	53.4416
3.15379	53.4426
3.15187	53.3211
3.14996	53.1095
3.14805	53.0961
3.14614	53.0896
3.14423	53.0067
3.14232	52.9326
3.14042	52.771
3.13852	52.634
3.13662	52.5127
3.13472	52.4594
3.13283	52.519
3.13094	52.5449
3.12905	52.4595
3.12716	52.3457
3.12528	52.284
3.12339	52.2222
3.12151	52.0405
3.11964	51.9284
3.11776	51.8996
3.11589	51.8735
3.11401	51.8193
3.11214	51.7209
3.11028	51.6993
3.10841	51.7007
3.10655	51.687
3.10469	51.5449
3.10283	51.4384
3.10098	51.3725
3.09912	51.2658
3.09727	51.1957
3.09542	51.112
3.09358	51.1129
3.09173	51.1314
3.08989	51.1334
3.08805	51.0401
3.08621	50.9839
3.08437	50.9525
3.08254	50.9673
3.08071	50.919
3.07888	50.9125
3.07705	50.899
3.07523	50.8068
3.0734	50.7111
3.07158	50.6708
3.06977	50.6036
3.06795	50.5676
3.06613	50.5309
3.06432	50.4815
3.06251	50.3815
3.0607	50.3702
3.0589	50.4076
3.0571	50.4654
3.05529	50.4493
3.05349	50.4857
3.0517	50.3491
3.0499	50.1839
3.04811	50.1601
3.04632	50.1317
3.04453	50.0167
3.04274	49.997
3.04096	50.0608
3.03918	50.1602
3.0374	50.1018
3.03562	49.9439
3.03384	49.9265
3.03207	49.8062
3.03029	49.7194
3.02852	49.7419
3.02676	49.671
3.02499	49.6677
3.02323	49.674
3.02146	49.6522
3.0197	49.6137
3.01795	49.5385
3.01619	49.4132
3.01444	49.3523
3.01269	49.2492
3.01094	49.1778
3.00919	49.1249
3.00744	48.9561
3.0057	48.9429
3.00396	48.9368
3.00222	48.9056
3.00048	48.8431
2.99875	48.7309
2.99701	48.6843
2.99528	48.7317
2.99355	48.7229
2.99183	48.6586
2.9901	48.6511
2.98838	48.5671
2.98666	48.5021
2.98494	48.4614
2.98322	48.5302
2.9815	48.5542
2.97979	48.4481
2.97808	48.3508
2.97637	48.2765
2.97466	48.1935
2.97295	48.108
2.97125	48.1049
2.96955	48.1094
2.96785	48.036
2.96615	48.0054
2.96446	47.9033
2.96276	47.9592
2.96107	48.0212
2.95938	47.9763
2.95769	47.9374
2.95601	47.7905
2.95432	47.7377
2.95264	47.6965
2.95096	47.6011
2.94928	47.6347
2.9476	47.6617
2.94593	47.6462
2.94425	47.5197
2.94258	47.4652
2.94092	47.4939
2.93925	47.502
2.93758	47.4207
2.93592	47.3565
2.93426	47.386
2.9326	47.4404
2.93094	47.4784
2.92928	47.5438
2.92763	47.5083
2.92598	47.4465
2.92433	47.4686
2.92268	47.5536
2.92103	47.5738
2.91939	47.5389
2.91775	47.5371
2.9161	47.4797
2.91447	47.4029
2.91283	47.4976
2.91119	47.6153
2.90956	47.573
2.90793	47.6187
2.9063	47.5998
2.90467	47.47
2.90304	47.3544
2.90142	47.4676
2.89979	47.5185
2.89817	47.4853
2.89656	47.5318
2.89494	47.5094
2.89332	47.4365
2.89171	47.316
2.8901	47.331
2.88849	47.3726
2.88688	47.3083
2.88527	47.3086
2.88367	47.4821
2.88206	47.5283
2.88046	47.4476
2.87886	47.4269
2.87727	47.4196
2.87567	47.4101
2.87408	47.3812
2.87248	47.416
2.87089	47.4331
2.8693	47.3781
2.86772	47.3816
2.86613	47.468
2.86455	47.5196
2.86297	47.5464
2.86139	47.5688
2.85981	47.5362
2.85823	47.5245
2.85666	47.5564
2.85508	47.5942
2.85351	47.7302
2.85194	47.6564
2.85038	47.6127
2.84881	47.6161
2.84724	47.5859
2.84568	47.6134
2.84412	47.6439
2.84256	47.6364
2.841	47.5407
2.83945	47.5661
2.83789	47.6684
2.83634	47.6691
2.83479	47.6083
2.83324	47.6409
2.83169	47.4754
2.83015	47.2512
2.82861	47.4389
2.82706	47.616
2.82552	47.5738
2.82398	47.6833
2.82245	47.6817
2.82091	47.7562
2.81938	47.8233
2.81784	47.8489
2.81631	47.942
2.81479	47.8349
2.81326	47.661
2.81173	47.7638
2.81021	47.928
2.80869	47.8862
2.80716	47.8957
2.80565	47.8266
2.80413	47.9408
2.80261	48.0945
2.8011	48.2105
2.79959	48.3455
2.79808	48.408
2.79657	48.3846
2.79506	48.3748
2.79355	48.3679
2.79205	48.398
2.79055	48.4138
2.78904	48.5694
2.78754	48.8287
2.78605	48.7998
2.78455	48.796
2.78306	48.957
2.78156	48.9832
2.78007	48.9703
2.77858	49.0721
2.77709	49.2161
2.77561	49.1981
2.77412	49.1715
2.77264	49.2609
2.77116	49.488
2.76968	49.6709
2.7682	49.77
2.76672	49.77
2.76524	49.6884
2.76377	49.7057
2.7623	49.7485
2.76083	49.6376
2.75936	49.5854
2.75789	49.6046
2.75642	49.9329
2.75496	50.2335
2.7535	50.1533
2.75203	50.4032
2.75057	50.8025
2.74912	51.3223
2.74766	51.9328
2.7462	52.6406
2.74475	53.5227
2.7433	54.5394
2.74185	55.7216
2.7404	57.0742
2.73895	58.2296
2.7375	59.0556
2.73606	60.0483
2.73462	61.0808
2.73318	61.7699
2.73174	62.3836
2.7303	63.1677
2.72886	63.9407
2.72742	64.6757
2.72599	65.6695
2.72456	66.5359
2.72313	66.8798
2.7217	67.4796
2.72027	68.2521
2.71884	68.3839
2.71742	68.6521
2.71599	68.964
2.71457	69.377
2.71315	69.8827
2.71173	70.4455
2.71032	70.7609
2.7089	70.9431
2.70748	71.0003
2.70607	71.1174
2.70466	71.3403
2.70325	71.6177
2.70184	72.012
2.70043	72.2541
2.69903	72.2663
2.69762	72.3902
2.69622	72.742
2.69482	73.111
2.69342	73.2433
2.69202	73.1307
2.69062	73.1322
2.68923	73.341
2.68783	73.469
2.68644	73.6447
2.68505	73.7152
2.68366	73.8232
2.68227	73.8891
2.68089	74.0765
2.6795	74.4662
2.67812	74.6615
2.67673	74.8004
2.67535	74.7491
2.67397	74.5686
2.6726	74.7805
2.67122	75.4933
2.66984	75.8946
2.66847	76.0103
2.6671	76.6004
2.66572	76.781
2.66435	76.6385
2.66299	76.4228
2.66162	76.4832
2.66025	76.6702
2.65889	76.7372
2.65753	76.6439
2.65616	76.7759
2.65481	76.869
2.65345	76.9147
2.65209	76.8793
2.65073	76.7481
2.64938	76.7715
2.64803	76.8642
2.64667	76.8771
2.64532	76.9297
2.64397	76.9486
2.64263	76.9564
2.64128	76.9257
2.63994	76.9055
2.63859	76.88
2.63725	76.8875
2.63591	76.9595
2.63457	77.0691
2.63323	76.9872
2.6319	77.1208
2.63056	77.3297
2.62923	77.1158
2.62789	77.0324
2.62656	77.1387
2.62523	76.9603
2.6239	76.8764
2.62258	76.8066
2.62125	77.0098
2.61993	77.1121
2.6186	77.0989
2.61728	77.2851
2.61596	77.1481
2.61464	76.9058
2.61332	76.9622
2.61201	76.8843
2.61069	76.8564
2.60938	76.918
2.60807	76.9873
2.60675	77.1248
2.60544	77.3081
2.60414	77.1408
2.60283	76.9672
2.60152	76.8232
2.60022	76.76
2.59891	76.8707
2.59761	77.0314
2.59631	77.2777
2.59501	77.5693
2.59371	77.219
2.59242	76.8437
2.59112	76.7267
2.58983	76.7262
2.58853	76.8168
2.58724	76.8916
2.58595	76.8519
2.58466	77.0068
2.58338	76.9555
2.58209	76.6769
2.5808	76.6024
2.57952	76.5255
2.57824	76.5944
2.57695	76.692
2.57567	76.5688
2.5744	76.6591
2.57312	76.6597
2.57184	76.4044
2.57057	76.5742
2.56929	76.6984
2.56802	76.4151
2.56675	76.3099
2.56548	76.508
2.56421	76.5843
2.56294	76.5588
2.56168	76.6101
2.56041	76.4618
2.55915	76.2958
2.55789	76.2148
2.55662	76.1108
2.55536	76.0708
2.5541	76.0422
2.55285	76.1362
2.55159	76.1979
2.55034	76.032
2.54908	75.9585
2.54783	76.0064
2.54658	75.9501
2.54533	75.953
2.54408	76.0576
2.54283	75.9093
2.54159	75.7144
2.54034	75.7064
2.5391	75.6861
2.53785	75.6504
2.53661	75.7046
2.53537	75.7692
2.53413	75.6613
2.53289	75.6039
2.53166	75.6931
2.53042	75.7464
2.52919	75.7583
2.52795	75.7437
2.52672	75.6366
2.52549	75.5466
2.52426	75.645
2.52303	75.8076
2.52181	75.7779
2.52058	75.6574
2.51936	75.6057
2.51813	75.598
2.51691	75.6247
2.51569	75.696
2.51447	75.6293
2.51325	75.5825
2.51203	75.6256
2.51082	75.6645
2.5096	75.5903
2.50839	75.5603
2.50717	75.6778
2.50596	75.6368
2.50475	75.6077
2.50354	75.5727
2.50233	75.4971
2.50113	75.5465
2.49992	75.6205
2.49872	75.6977
2.49751	75.7046
2.49631	75.653
2.49511	75.5323
2.49391	75.4589
2.49271	75.6356
2.49151	75.7237
2.49031	75.6846
2.48912	75.6572
2.48792	75.6228
2.48673	75.6168
2.48554	75.6457
2.48435	75.7117
2.48316	75.6595
2.48197	75.6833
2.48078	75.7643
2.4796	75.6751
2.47841	75.6836
2.47723	75.7848
2.47604	75.9195
2.47486	75.8965
2.47368	75.8147
2.4725	75.8432
2.47132	75.828
2.47014	75.758
2.46897	75.704
2.46779	75.7678
2.46662	75.7968
2.46545	75.756
2.46427	75.763
2.4631	75.8468
2.46193	75.9369
2.46077	75.9134
2.4596	75.9111
2.45843	75.9302
2.45727	75.8783
2.4561	75.7854
2.45494	75.771
2.45378	75.792
2.45262	75.7527
2.45146	75.7474
2.4503	75.8028
2.44914	75.803
2.44799	75.7946
2.44683	75.7575
2.44568	75.7235
2.44452	75.8266
2.44337	75.9777
2.44222	75.9236
2.44107	75.6971
2.43992	75.6082
2.43877	75.6909
2.43763	75.7427
2.43648	75.8189
2.43534	75.7662
2.43419	75.6453
2.43305	75.6837
2.43191	75.7484
2.43077	75.7227
2.42963	75.6155
2.42849	75.5714
2.42736	75.6349
2.42622	75.7013
2.42509	75.7778
2.42395	75.8402
2.42282	75.7754
2.42169	75.7676
2.42056	75.7315
2.41943	75.8344
2.4183	75.9493
2.41717	75.8947
2.41605	75.8237
2.41492	75.8
2.4138	75.7817
2.41267	75.6487
2.41155	75.6401
2.41043	75.7283
2.40931	75.7795
2.40819	75.6757
2.40707	75.6987
2.40595	75.8447
2.40484	75.8923
2.40372	75.7846
2.40261	75.8199
2.4015	75.7313
2.40039	75.7526
2.39928	75.7518
2.39817	75.706
2.39706	75.7218
2.39595	75.7043
2.39484	75.698
2.39374	75.7252
2.39263	75.8039
2.39153	75.8559
2.39043	75.7702
2.38932	75.6689
2.38822	75.6409
2.38712	75.5328
2.38603	75.5135
2.38493	75.5504
2.38383	75.6065
2.38274	75.6147
2.38164	75.4662
2.38055	75.4063
2.37946	75.435
2.37836	75.4139
2.37727	75.4659
2.37618	75.6563
2.3751	75.659
2.37401	75.4595
2.37292	75.2628
2.37184	75.2605
2.37075	75.383
2.36967	75.4152
2.36859	75.3388
2.3675	75.2742
2.36642	75.2779
2.36534	75.364
2.36427	75.4785
2.36319	75.4092
2.36211	75.3222
2.36104	75.2842
2.35996	75.2479
2.35889	75.2622
2.35781	75.2885
2.35674	75.1808
2.35567	75.1659
2.3546	75.2395
2.35353	75.2324
2.35247	75.2441
2.3514	75.3064
2.35033	75.3689
2.34927	75.2174
2.3482	75.0984
2.34714	75.165
2.34608	75.1895
2.34502	75.2796
2.34396	75.285
2.3429	75.2657
2.34184	75.278
2.34078	75.3524
2.33973	75.3268
2.33867	75.2026
2.33762	75.1838
2.33656	75.2181
2.33551	75.2514
2.33446	75.2286
2.33341	75.1937
2.33236	75.2894
2.33131	75.5613
2.33026	75.5784
2.32922	75.4188
2.32817	75.3372
2.32712	75.3264
2.32608	75.3276
2.32504	75.4603
2.324	75.4669
2.32295	75.4238
2.32191	75.3216
2.32087	75.3006
2.31984	75.3451
2.3188	75.3741
2.31776	75.3971
2.31673	75.4886
2.31569	75.4803
2.31466	75.3166
2.31362	75.3304
2.31259	75.4532
2.31156	75.4323
2.31053	75.4019
2.3095	75.3932
2.30847	75.3845
2.30745	75.2809
2.30642	75.2333
2.3054	75.2834
2.30437	75.3631
2.30335	75.3561
2.30232	75.3207
2.3013	75.364
2.30028	75.3988
2.29926	75.3576
2.29824	75.3077
2.29722	75.38
2.29621	75.4492
2.29519	75.3397
2.29417	75.2509
2.29316	75.383
2.29215	75.5802
2.29113	75.5482
2.29012	75.5365
2.28911	75.7225
2.2881	75.5251
2.28709	75.2556
2.28608	75.2272
2.28507	75.2619
2.28407	75.2986
2.28306	75.3079
2.28206	75.3786
2.28105	75.3464
2.28005	75.387
2.27905	75.3551
2.27805	75.3228
2.27705	75.4475
2.27605	75.4957
2.27505	75.4124
2.27405	75.4212
2.27305	75.4859
2.27206	75.5439
2.27106	75.6124
2.27007	75.4912
2.26907	75.4495
2.26808	75.4846
2.26709	75.5103
2.2661	75.5221
2.26511	75.4629
2.26412	75.3838
2.26313	75.3779
2.26214	75.3454
2.26116	75.4262
2.26017	75.5634
2.25919	75.5597
2.2582	75.5941
2.25722	75.6182
2.25624	75.4863
2.25526	75.4743
2.25428	75.5992
2.2533	75.585
2.25232	75.6149
2.25134	75.6611
2.25036	75.6499
2.24939	75.5485
2.24841	75.4983
2.24744	75.5664
2.24646	75.5827
2.24549	75.5137
2.24452	75.5397
2.24355	75.5496
2.24257	75.5462
2.24161	75.506
2.24064	75.4291
2.23967	75.509
2.2387	75.5904
2.23774	75.4853
2.23677	75.5109
2.23581	75.6944
2.23484	75.6744
2.23388	75.5049
2.23292	75.5226
2.23196	75.6028
2.231	75.6793
2.23004	75.6771
2.22908	75.5458
2.22812	75.4776
2.22716	75.5561
2.22621	75.516
2.22525	75.5586
2.2243	75.64
2.22334	75.663
2.22239	75.6242
2.22144	75.6294
2.22049	75.6362
2.21953	75.6881
2.21859	75.7332
2.21764	75.7455
2.21669	75.6898
2.21574	75.6339
2.21479	75.6628
2.21385	75.6238
2.2129	75.6116
2.21196	75.589
2.21102	75.5716
2.21007	75.7055
2.20913	75.7071
2.20819	75.7004
2.20725	75.7721
2.20631	75.9009
2.20537	75.8496
2.20444	75.7265
2.2035	75.5753
2.20256	75.6314
2.20163	75.7759
2.20069	75.8719
2.19976	75.9471
2.19883	75.7683
2.19789	75.6688
2.19696	75.7432
2.19603	75.713
2.1951	75.6017
2.19417	75.8499
2.19325	75.9973
2.19232	75.8849
2.19139	75.8983
2.19047	75.7945
2.18954	75.7165
2.18862	75.7514
2.18769	75.8655
2.18677	75.7724
2.18585	75.7901
2.18493	75.8668
2.18401	75.8836
2.18309	75.7822
2.18217	75.8445
2.18125	76.0107
2.18033	76.017
2.17942	75.9485
2.1785	75.8286
2.17759	75.7192
2.17667	75.8011
2.17576	75.8346
2.17485	75.74
2.17393	75.7754
2.17302	75.9032
2.17211	75.9334
2.1712	76.0624
2.17029	76.1158
2.16939	76.1312
2.16848	76.2103
2.16757	76.3027
2.16667	76.3285
2.16576	76.2993
2.16486	76.0445
2.16395	76.0453
2.16305	76.1985
2.16215	76.1082
2.16125	75.9612
2.16035	75.9362
2.15945	75.8907
2.15855	75.9341
2.15765	76.1133
2.15675	76.1174
2.15586	76.0767
2.15496	76.2026
2.15406	76.1687
2.15317	76.2268
2.15228	76.2157
2.15138	76.1518
2.15049	76.1916
2.1496	76.1826
2.14871	76.1195
2.14782	76.1734
2.14693	76.2515
2.14604	76.1705
2.14515	76.038
2.14427	76.1356
2.14338	76.1825
2.14249	76.1749
2.14161	76.1177
2.14072	76.1507
2.13984	76.1745
2.13896	76.0886
2.13808	76.1522
2.13719	76.476
2.13631	76.4066
2.13543	76.2058
2.13455	76.2007
2.13368	76.2865
2.1328	76.2619
2.13192	76.147
2.13105	76.0984
2.13017	76.2363
2.1293	76.3461
2.12842	76.3893
2.12755	76.4542
2.12668	76.4076
2.1258	76.2019
2.12493	76.1791
2.12406	76.206
2.12319	76.1747
2.12232	76.272
2.12145	76.3793
2.12059	76.3712
2.11972	76.4257
2.11885	76.4361
2.11799	76.3953
2.11712	76.3731
2.11626	76.436
2.1154	76.4843
2.11453	76.5393
2.11367	76.5251
2.11281	76.5424
2.11195	76.4669
2.11109	76.4283
2.11023	76.299
2.10937	76.2733
2.10851	76.3499
2.10766	76.4784
2.1068	76.565
2.10594	76.6491
2.10509	76.5294
2.10423	76.6297
2.10338	76.7921
2.10253	76.7536
2.10168	76.7581
2.10082	76.7938
2.09997	76.7334
2.09912	76.6654
2.09827	76.5312
2.09742	76.5207
2.09658	76.5117
2.09573	76.5638
2.09488	76.6906
2.09404	76.5702
2.09319	76.5601
2.09235	76.5264
2.0915	76.476
2.09066	76.5682
2.08982	76.5552
2.08897	76.5581
2.08813	76.6328
2.08729	76.7052
2.08645	76.7737
2.08561	76.7749
2.08477	76.7665
2.08394	76.746
2.0831	76.6769
2.08226	76.7551
2.08143	76.797
2.08059	76.8765
2.07976	76.842
2.07892	76.7681
2.07809	76.8668
2.07726	76.9944
2.07643	77.0232
2.07559	76.7951
2.07476	76.6251
2.07393	76.9831
2.0731	77.1739
2.07228	76.9012
2.07145	76.8844
2.07062	76.9706
2.06979	76.6412
2.06897	76.6805
2.06814	76.8822
2.06732	76.8518
2.06649	76.9178
2.06567	77.094
2.06485	76.9477
2.06403	76.7986
2.0632	76.7092
2.06238	76.7079
2.06156	76.7012
2.06074	76.8131
2.05993	77.0766
2.05911	77.0076
2.05829	76.7543
2.05747	76.9547
2.05666	76.9996
2.05584	76.8914
2.05503	77.0524
2.05421	77.1282
2.0534	77.0451
2.05259	77.0457
2.05177	76.9465
2.05096	76.805
2.05015	76.8915
2.04934	77.0003
2.04853	77.2142
2.04772	77.2371
2.04691	77.1831
2.04611	77.1966
2.0453	77.2113
2.04449	77.195
2.04369	77.0346
2.04288	76.9
2.04208	76.798
2.04127	77.0108
2.04047	77.1884
2.03967	77.0796
2.03886	77.0463
2.03806	77.0494
2.03726	77.086
2.03646	77.1713
2.03566	77.326
2.03486	77.4318
2.03407	77.2823
2.03327	77.1901
2.03247	77.1247
2.03167	77.1623
2.03088	77.3284
2.03008	77.2844
2.02929	77.3324
2.0285	77.2518
2.0277	77.0732
2.02691	77.0537
2.02612	77.1059
2.02533	77.1109
2.02453	77.0986
2.02374	77.0211
2.02295	77.2678
2.02217	77.3505
2.02138	77.2556
2.02059	77.396
2.0198	77.4159
2.01902	77.4382
2.01823	77.4426
2.01744	77.4118
2.01666	77.3478
2.01588	77.2006
2.01509	77.2206
2.01431	77.4694
2.01353	77.2946
2.01275	77.0747
2.01196	77.1073
2.01118	77.1942
2.0104	77.3758
2.00963	77.5661
2.00885	77.4316
2.00807	77.2563
2.00729	77.2934
2.00651	77.3194
2.00574	77.4585
2.00496	77.456
2.00419	77.2619
2.00341	77.4352
2.00264	77.3965
2.00187	77.4141
2.00109	77.388
2.00032	77.4981
