Name: Clinochlore (Chlorite) (Mg,Al)_6(Si,Al)_4O_10(OH)_8
Type: Mineral
Class: Silicates
Subclass: Phyllosilicates
Particle Size: 0-45um
Sample No.: PS-12A
Owner: JPL
Wavelength range: IR
Origin: USA, California, El Dorado County, Flagstaff Hill
Collected by Clay Mineral Society
Description: 





Measurement: Hemispherical reflectance
First Column: X
Second Column: Y
X Units:  Wavelength (micrometers)
Y Units:  Reflectance (percent)
First X Value: 15.3853
Last X Value: 2.00032
Number of X Values: 2256
Additional information: ps12aa.txt
 
15.3853	2.93487
15.3397	2.97605
15.2945	2.98484
15.2495	2.83419
15.2048	2.62245
15.1603	2.62505
15.1161	2.63534
15.0722	2.61962
15.0285	2.78729
14.9851	2.92486
14.9419	2.81723
14.8989	2.64537
14.8563	2.57239
14.8138	2.34917
14.7716	2.19639
14.7296	2.40357
14.6879	2.45991
14.6464	2.07769
14.6052	1.88598
14.5641	1.92484
14.5233	1.87685
14.4828	1.79588
14.4424	1.79512
14.4023	2.09753
14.3624	2.06787
14.3227	1.72797
14.2833	1.68913
14.244	1.83091
14.205	1.9183
14.1662	2.02791
14.1276	2.0293
14.0892	2.00933
14.051	1.95661
14.0131	1.95949
13.9753	2.00909
13.9377	2.12763
13.9004	2.13549
13.8632	2.23671
13.8262	2.28641
13.7895	2.2773
13.7529	2.34704
13.7165	2.32018
13.6803	2.11764
13.6443	2.2611
13.6085	2.51602
13.5729	2.52807
13.5374	2.60566
13.5022	2.63853
13.4671	2.58278
13.4322	2.50311
13.3975	2.5322
13.363	2.6893
13.3286	2.68342
13.2944	2.663
13.2604	2.71028
13.2266	2.7861
13.193	2.69182
13.1595	2.66535
13.1262	2.62106
13.093	2.53588
13.06	2.51921
13.0272	2.40677
12.9946	2.22297
12.9621	2.17058
12.9298	2.24292
12.8976	2.16624
12.8656	1.97629
12.8337	1.84684
12.8021	1.84608
12.7705	1.90846
12.7391	1.93002
12.7079	1.73046
12.6769	1.65866
12.6459	1.79604
12.6152	1.8714
12.5845	1.87669
12.5541	1.93884
12.5238	1.8905
12.4936	1.61696
12.4635	1.5415
12.4337	1.56852
12.4039	1.61426
12.3743	1.71365
12.3448	1.70894
12.3155	1.69649
12.2863	1.73976
12.2573	1.71149
12.2284	1.7611
12.1996	1.72101
12.171	1.74866
12.1425	1.7809
12.1141	1.81051
12.0859	1.75137
12.0578	1.81131
12.0298	2.1368
12.0019	2.23962
11.9742	1.97402
11.9466	1.94277
11.9192	2.19113
11.8918	2.43283
11.8646	2.68888
11.8375	2.94287
11.8106	3.02863
11.7837	3.03123
11.757	3.0316
11.7304	3.19637
11.7039	3.3718
11.6776	3.33067
11.6513	3.34302
11.6252	3.44616
11.5992	3.50135
11.5733	3.42988
11.5475	3.41771
11.5219	3.56863
11.4963	3.73822
11.4709	3.64009
11.4455	3.58268
11.4203	3.72666
11.3952	3.90743
11.3702	3.91217
11.3454	3.82337
11.3206	3.81115
11.2959	3.86621
11.2714	3.93809
11.2469	3.98027
11.2226	4.03507
11.1983	3.93979
11.1742	3.90166
11.1502	4.06161
11.1263	4.22481
11.1024	4.2795
11.0787	4.38543
11.0551	4.33926
11.0316	4.23032
11.0081	4.13353
10.9848	4.18791
10.9616	4.31945
10.9385	4.41709
10.9154	4.45542
10.8925	4.47001
10.8697	4.47727
10.8469	4.54152
10.8243	4.52004
10.8017	4.47233
10.7793	4.5783
10.7569	4.64064
10.7346	4.71053
10.7125	4.83538
10.6904	4.89319
10.6684	4.97392
10.6465	5.02671
10.6247	5.04514
10.6029	5.16762
10.5813	5.28594
10.5597	5.30205
10.5383	5.25148
10.5169	5.21922
10.4956	5.20066
10.4744	5.19166
10.4533	5.3217
10.4323	5.42918
10.4113	5.50709
10.3904	5.63445
10.3697	5.84031
10.349	5.93924
10.3284	5.91094
10.3078	6.02879
10.2874	6.18751
10.267	6.21808
10.2467	6.20492
10.2265	6.35563
10.2064	6.61301
10.1863	6.88466
10.1663	7.1542
10.1464	7.41325
10.1266	7.72239
10.1069	7.90652
10.0872	8.0217
10.0676	8.16947
10.0481	8.31866
10.0287	8.53742
10.0093	8.59855
9.99005	8.51918
9.97084	8.54839
9.95169	8.54441
9.93263	8.51446
9.91364	8.41818
9.89472	8.56018
9.87587	8.72587
9.8571	8.73079
9.83839	8.64863
9.81976	8.62597
9.80119	8.62402
9.78271	8.63426
9.76428	8.61402
9.74592	8.47423
9.72764	8.30222
9.70943	8.07781
9.69128	7.8857
9.6732	7.7492
9.65518	7.51009
9.63724	7.41652
9.61935	7.40881
9.60155	7.24838
9.5838	7.05877
9.56611	7.0444
9.5485	7.11445
9.53094	6.96644
9.51345	6.73336
9.49604	6.80308
9.47867	6.98377
9.46137	7.23492
9.44414	7.43835
9.42697	7.39345
9.40986	7.35861
9.39281	7.31235
9.37583	7.01744
9.35891	6.77529
9.34204	6.64927
9.32524	6.5232
9.3085	6.22218
9.29182	5.92535
9.27519	5.58989
9.25863	5.23823
9.24213	4.89581
9.22568	4.68827
9.2093	4.49181
9.19297	4.26467
9.17669	4.15706
9.16048	4.07442
9.14433	3.8895
9.12823	3.69047
9.11218	3.49053
9.0962	3.31701
9.08027	3.03889
9.06439	2.71268
9.04858	2.47212
9.03281	2.29988
9.0171	2.03688
9.00145	1.72723
8.98585	1.7367
8.9703	1.64272
8.9548	1.46955
8.93937	1.36809
8.92398	1.24883
8.90865	1.28558
8.89337	1.26566
8.87814	1.19644
8.86296	1.07892
8.84784	1.1195
8.83277	1.11762
8.81774	0.994505
8.80277	0.985511
8.78786	0.988358
8.77298	1.01203
8.75816	1.11211
8.7434	1.14593
8.72868	1.07634
8.714	1.04207
8.69938	0.975022
8.68481	0.94496
8.67029	1.12338
8.65581	1.2787
8.64139	1.37933
8.62701	1.46059
8.61268	1.59342
8.5984	1.74193
8.58416	1.7901
8.56997	1.91705
8.55583	2.00238
8.54174	2.019
8.52769	2.14288
8.51368	2.30513
8.49973	2.33665
8.48582	2.50411
8.47195	2.69577
8.45813	2.92972
8.44436	2.98853
8.43062	3.08118
8.41693	3.24906
8.4033	3.34508
8.3897	3.45941
8.37614	3.70901
8.36264	3.90503
8.34917	4.10268
8.33574	4.31134
8.32236	4.51074
8.30903	4.67407
8.29573	4.77203
8.28248	4.9434
8.26927	5.16401
8.2561	5.45193
8.24298	5.61452
8.2299	5.71479
8.21685	5.92907
8.20385	6.07931
8.19089	6.11476
8.17797	6.37729
8.16509	6.64569
8.15225	6.8221
8.13946	6.95435
8.1267	7.04985
8.11398	7.26966
8.10131	7.48245
8.08867	7.53657
8.07606	7.59423
8.0635	7.70282
8.05099	7.83175
8.0385	8.05241
8.02606	8.2499
8.01366	8.37599
8.00129	8.53973
7.98896	8.67562
7.97667	8.89215
7.96442	9.08569
7.9522	9.1665
7.94002	9.39003
7.92788	9.56036
7.91578	9.66122
7.90371	9.77381
7.89168	9.88916
7.87969	9.94607
7.86773	10.0637
7.85581	10.2288
7.84392	10.3745
7.83207	10.5254
7.82026	10.6893
7.80849	10.7936
7.79674	10.8491
7.78503	10.9459
7.77337	11.0625
7.76173	11.1871
7.75012	11.3202
7.73856	11.4659
7.72703	11.4945
7.71553	11.6031
7.70406	11.8015
7.69263	11.9567
7.68123	12.0488
7.66987	12.1147
7.65855	12.244
7.64725	12.3496
7.63598	12.4931
7.62475	12.5644
7.61356	12.5761
7.60239	12.6695
7.59126	12.7623
7.58017	12.8521
7.5691	13.0182
7.55806	13.2454
7.54707	13.3087
7.5361	13.3356
7.52516	13.415
7.51425	13.5081
7.50338	13.5992
7.49253	13.7461
7.48172	13.94
7.47094	14.0311
7.46019	14.081
7.44947	14.029
7.43879	14.0195
7.42813	14.102
7.4175	14.2408
7.4069	14.4077
7.39634	14.4809
7.3858	14.52
7.37529	14.604
7.36482	14.7437
7.35437	14.8412
7.34396	14.8972
7.33357	14.9982
7.32321	15.0783
7.31288	15.1706
7.30258	15.3132
7.29231	15.4204
7.28207	15.5371
7.27185	15.6224
7.26167	15.7398
7.25152	15.7618
7.24139	15.821
7.23129	16.002
7.22122	16.1063
7.21117	16.1427
7.20116	16.1735
7.19117	16.2707
7.18121	16.3497
7.17128	16.4801
7.16137	16.5779
7.1515	16.6469
7.14164	16.6628
7.13182	16.6791
7.12203	16.7854
7.11225	16.8556
7.10251	16.8198
7.0928	16.7838
7.08311	16.8945
7.07344	17.0007
7.06381	17.1742
7.0542	17.4092
7.04461	17.4456
7.03506	17.293
7.02552	17.3247
7.01601	17.4462
7.00653	17.5448
6.99708	17.6749
6.98765	17.7546
6.97824	17.7732
6.96886	17.9797
6.95951	18.1813
6.95018	18.0701
6.94087	18.02
6.9316	18.119
6.92234	18.222
6.91311	18.3234
6.90391	18.4112
6.89473	18.331
6.88557	18.393
6.87644	18.5196
6.86733	18.9419
6.85824	19.0196
6.84918	18.6172
6.84015	18.5035
6.83114	18.7139
6.82215	18.7376
6.81319	18.545
6.80424	18.5271
6.79532	18.7849
6.78643	18.9185
6.77756	18.7852
6.76871	18.6036
6.75989	18.516
6.75109	18.4949
6.74231	18.3853
6.73355	18.3326
6.72482	18.4916
6.71611	18.7347
6.70742	18.7193
6.69875	18.5338
6.69011	18.5379
6.68149	18.5687
6.67289	18.4237
6.66431	18.2888
6.65576	18.2061
6.64722	18.3651
6.63871	18.6921
6.63022	18.552
6.62175	18.2095
6.61331	18.056
6.60488	17.9967
6.59648	17.9947
6.5881	17.8984
6.57974	17.9139
6.5714	17.9061
6.56308	17.659
6.55478	17.5881
6.54651	17.4138
6.53825	17.2391
6.53001	17.2462
6.5218	17.2745
6.51361	17.0756
6.50544	17.1
6.49729	17.3511
6.48915	17.2387
6.48104	16.8711
6.47295	16.6049
6.46488	16.3888
6.45683	16.2011
6.4488	16.0812
6.44079	16.0595
6.4328	16.0948
6.42482	16.1371
6.41687	16.3738
6.40894	16.1724
6.40103	15.6449
6.39314	15.4776
6.38526	15.4007
6.37741	15.3225
6.36957	15.2888
6.36176	15.1023
6.35396	15.0127
6.34618	15.1906
6.33843	15.0856
6.33069	14.8428
6.32297	14.7558
6.31527	14.7329
6.30758	14.7778
6.29992	14.8265
6.29227	14.8187
6.28465	14.7942
6.27704	14.8054
6.26945	14.8406
6.26188	14.8575
6.25432	14.8444
6.24679	14.8862
6.23927	14.9807
6.23177	15.0515
6.22429	15.0946
6.21683	15.0959
6.20938	15.029
6.20195	15.0796
6.19454	15.1636
6.18715	15.339
6.17978	15.3364
6.17242	15.2583
6.16508	15.3252
6.15776	15.4422
6.15045	15.3859
6.14317	15.3618
6.1359	15.4049
6.12864	15.4207
6.12141	15.616
6.11419	15.8187
6.10699	15.7021
6.0998	15.6267
6.09263	15.6495
6.08549	15.679
6.07835	15.8724
6.07123	16.0788
6.06413	16.0681
6.05705	16.3286
6.04998	16.8667
6.04293	16.5914
6.0359	16.2236
6.02888	16.24
6.02187	16.2815
6.01489	16.4106
6.00792	16.4073
6.00096	16.4109
5.99403	16.6895
5.98711	16.8772
5.9802	16.8019
5.97331	16.9561
5.96644	17.0224
5.95958	16.8234
5.95274	16.8693
5.94591	17.0925
5.9391	17.4164
5.9323	17.3156
5.92552	17.0897
5.91876	17.088
5.91201	17.0861
5.90528	17.2122
5.89856	17.6523
5.89186	17.7216
5.88517	17.855
5.8785	17.9833
5.87184	17.7071
5.8652	17.7491
5.85857	17.7787
5.85196	17.7847
5.84536	17.8268
5.83878	17.9558
5.83221	18.1472
5.82566	18.4119
5.81912	18.485
5.81259	18.3699
5.80608	18.4344
5.79959	18.5646
5.79311	18.6717
5.78665	18.749
5.78019	18.9196
5.77376	19.2391
5.76734	19.6866
5.76093	19.6256
5.75453	19.4817
5.74815	19.6154
5.74179	19.7002
5.73543	19.7822
5.7291	19.8917
5.72277	20.0341
5.71646	20.2454
5.71017	20.3845
5.70389	20.3061
5.69762	20.3142
5.69136	20.366
5.68513	20.3799
5.6789	20.5419
5.67268	20.5366
5.66648	20.5203
5.6603	20.6913
5.65413	20.7581
5.64797	20.8247
5.64182	21.041
5.63569	20.8999
5.62957	20.7422
5.62347	20.7899
5.61737	20.8308
5.61129	20.8134
5.60522	20.9066
5.59917	21.013
5.59313	20.9948
5.5871	20.9889
5.58109	21.1763
5.57509	21.2443
5.5691	21.2354
5.56312	21.3218
5.55716	21.3934
5.55121	21.4506
5.54528	21.4704
5.53935	21.5462
5.53344	21.6335
5.52754	21.7266
5.52166	21.7553
5.51578	21.7653
5.50992	21.8348
5.50407	21.9114
5.49823	21.8717
5.49241	21.9817
5.4866	22.1435
5.4808	22.2914
5.47501	22.3673
5.46923	22.4389
5.46347	22.5179
5.45772	22.4616
5.45198	22.4335
5.44625	22.4687
5.44054	22.4888
5.43484	22.5365
5.42914	22.5025
5.42347	22.6665
5.4178	22.7372
5.41214	22.6495
5.4065	22.6248
5.40087	22.6113
5.39525	22.5657
5.38964	22.5597
5.38404	22.6054
5.37846	22.5277
5.37288	22.4234
5.36732	22.4467
5.36177	22.4886
5.35623	22.5232
5.35071	22.5551
5.34519	22.55
5.33968	22.5821
5.33419	22.589
5.32871	22.6048
5.32324	22.6255
5.31778	22.5844
5.31233	22.6208
5.30689	22.6572
5.30147	22.6895
5.29605	22.7802
5.29065	22.8427
5.28525	22.8791
5.27987	22.9979
5.2745	23.1011
5.26914	23.2221
5.26379	23.2727
5.25845	23.2703
5.25312	23.3798
5.24781	23.488
5.2425	23.5464
5.23721	23.7494
5.23192	23.9183
5.22665	23.9759
5.22138	24.1136
5.21613	24.2783
5.21089	24.42
5.20566	24.5128
5.20044	24.5651
5.19522	24.5981
5.19002	24.7262
5.18483	24.8291
5.17965	24.9408
5.17448	25.039
5.16933	25.0808
5.16418	25.106
5.15904	25.1624
5.15391	25.2592
5.14879	25.3408
5.14368	25.3781
5.13859	25.372
5.1335	25.3678
5.12842	25.3837
5.12335	25.424
5.1183	25.4392
5.11325	25.4729
5.10821	25.5921
5.10318	25.6558
5.09817	25.5928
5.09316	25.5742
5.08816	25.6038
5.08317	25.6621
5.07819	25.6405
5.07322	25.5707
5.06826	25.5771
5.06331	25.6032
5.05837	25.573
5.05344	25.5691
5.04852	25.5882
5.04361	25.6344
5.03871	25.6903
5.03382	25.6394
5.02894	25.5461
5.02406	25.5499
5.0192	25.5995
5.01435	25.6381
5.0095	25.6412
5.00467	25.6481
4.99984	25.6328
4.99502	25.7011
4.99021	25.7417
4.98542	25.7421
4.98063	25.7941
4.97585	25.8766
4.97108	25.9544
4.96632	26.0244
4.96156	26.1525
4.95682	26.3334
4.95209	26.4442
4.94736	26.5475
4.94264	26.7008
4.93794	26.8472
4.93324	26.9652
4.92855	27.1515
4.92387	27.3003
4.9192	27.4401
4.91453	27.65
4.90988	27.8098
4.90524	27.9875
4.9006	28.2139
4.89597	28.409
4.89135	28.6388
4.88674	28.8901
4.88214	29.0969
4.87755	29.2644
4.87296	29.4424
4.86839	29.6232
4.86382	29.8548
4.85926	29.9936
4.85471	30.1509
4.85017	30.3691
4.84564	30.5242
4.84111	30.7079
4.8366	30.8682
4.83209	30.9863
4.82759	31.1314
4.8231	31.2874
4.81862	31.4916
4.81415	31.7158
4.80968	31.8479
4.80522	31.9583
4.80077	32.1789
4.79633	32.3973
4.7919	32.5363
4.78747	32.6689
4.78306	32.8346
4.77865	32.9878
4.77425	33.1552
4.76986	33.3387
4.76547	33.5835
4.7611	33.8463
4.75673	34.0314
4.75237	34.2983
4.74802	34.6155
4.74367	34.8617
4.73934	35.1733
4.73501	35.5117
4.73069	35.7897
4.72638	36.0256
4.72207	36.2913
4.71777	36.559
4.71348	36.8388
4.7092	37.0894
4.70493	37.3384
4.70066	37.5621
4.69641	37.7649
4.69216	37.9774
4.68791	38.1441
4.68368	38.3322
4.67945	38.5307
4.67523	38.7319
4.67102	38.9825
4.66682	39.2099
4.66262	39.3614
4.65843	39.5018
4.65425	39.6575
4.65007	39.7746
4.64591	39.8708
4.64175	39.9876
4.6376	40.1355
4.63345	40.2462
4.62932	40.3484
4.62519	40.5327
4.62106	40.7131
4.61695	40.8717
4.61284	41.0346
4.60874	41.1904
4.60465	41.4328
4.60056	41.6435
4.59648	41.8017
4.59241	42.045
4.58835	42.2692
4.58429	42.5374
4.58024	42.7781
4.5762	42.9814
4.57216	43.2152
4.56814	43.4491
4.56411	43.6142
4.5601	43.7301
4.55609	43.8873
4.55209	44.0323
4.5481	44.188
4.54411	44.3413
4.54013	44.444
4.53616	44.5318
4.5322	44.6641
4.52824	44.8077
4.52429	44.9217
4.52034	45.0052
4.51641	45.1406
4.51247	45.2451
4.50855	45.2528
4.50463	45.3329
4.50072	45.4994
4.49682	45.6026
4.49292	45.7041
4.48903	45.846
4.48515	45.9619
4.48127	46.0434
4.4774	46.1589
4.47354	46.25
4.46968	46.3347
4.46584	46.4185
4.46199	46.502
4.45815	46.6529
4.45432	46.7511
4.4505	46.8252
4.44668	46.9559
4.44287	47.1003
4.43907	47.214
4.43527	47.227
4.43148	47.2511
4.4277	47.3694
4.42392	47.543
4.42015	47.6761
4.41638	47.6858
4.41262	47.6558
4.40887	47.7531
4.40513	47.8916
4.40139	47.9859
4.39765	48.0847
4.39393	48.1123
4.39021	48.099
4.38649	48.1186
4.38278	48.2836
4.37908	48.4371
4.37539	48.5013
4.3717	48.5731
4.36801	48.6029
4.36434	48.6241
4.36067	48.6592
4.357	48.7198
4.35335	48.7944
4.34969	48.8723
4.34605	48.9218
4.34241	49.0204
4.33877	49.0807
4.33514	49.1364
4.33152	49.1526
4.32791	49.1897
4.3243	49.2969
4.32069	49.376
4.3171	49.4081
4.31351	49.4549
4.30992	49.4838
4.30634	49.4599
4.30277	49.5634
4.2992	49.6376
4.29564	49.6505
4.29208	49.777
4.28853	49.8869
4.28499	49.9031
4.28145	49.9262
4.27792	49.9425
4.27439	49.9358
4.27087	50.0124
4.26735	50.0825
4.26384	50.1705
4.26034	50.225
4.25684	50.2552
4.25335	50.2782
4.24986	50.3139
4.24638	50.3467
4.24291	50.4366
4.23944	50.5245
4.23598	50.5542
4.23252	50.5791
4.22906	50.6395
4.22562	50.7347
4.22218	50.7566
4.21874	50.7202
4.21531	50.8026
4.21189	50.8527
4.20847	50.8668
4.20506	50.9059
4.20165	50.9444
4.19825	50.9358
4.19485	50.9887
4.19146	51.0209
4.18807	51.0561
4.18469	51.1259
4.18132	51.1735
4.17795	51.1648
4.17458	51.1865
4.17123	51.1956
4.16787	51.2416
4.16453	51.345
4.16118	51.3904
4.15785	51.3784
4.15451	51.4099
4.15119	51.4479
4.14787	51.4741
4.14455	51.446
4.14124	51.4525
4.13794	51.5138
4.13464	51.5868
4.13134	51.6659
4.12805	51.7195
4.12477	51.7119
4.12149	51.7455
4.11822	51.7784
4.11495	51.7193
4.11168	51.7548
4.10843	51.815
4.10517	51.7724
4.10192	51.7694
4.09868	51.8785
4.09545	52.011
4.09221	52.0178
4.08899	51.9776
4.08576	51.8926
4.08255	51.9148
4.07933	51.9721
4.07613	51.9813
4.07292	52.0237
4.06973	52.0055
4.06654	51.9961
4.06335	52.0382
4.06017	52.0575
4.05699	52.0729
4.05382	52.0727
4.05065	52.0624
4.04749	52.0936
4.04433	52.0762
4.04118	52.1017
4.03803	52.1297
4.03489	52.1437
4.03175	52.1336
4.02862	52.0877
4.02549	52.0763
4.02237	52.1247
4.01925	52.1695
4.01614	52.122
4.01303	52.0856
4.00993	52.0261
4.00683	52.0536
4.00373	52.0699
4.00064	52.0175
3.99756	51.9794
3.99448	51.9356
3.9914	51.8726
3.98833	51.8441
3.98527	51.8152
3.98221	51.8128
3.97915	51.8328
3.9761	51.8349
3.97305	51.7742
3.97001	51.7858
3.96697	51.8543
3.96394	51.8989
3.96091	51.9201
3.95789	51.9431
3.95487	51.8642
3.95186	51.7843
3.94885	51.8099
3.94584	51.8459
3.94284	51.8491
3.93984	51.8231
3.93685	51.7896
3.93386	51.7882
3.93088	51.7273
3.9279	51.7317
3.92493	51.7653
3.92196	51.6999
3.919	51.6203
3.91604	51.5998
3.91308	51.6525
3.91013	51.6183
3.90718	51.506
3.90424	51.5509
3.9013	51.6355
3.89837	51.5986
3.89544	51.5117
3.89252	51.4052
3.8896	51.3889
3.88668	51.4143
3.88377	51.4272
3.88086	51.3572
3.87796	51.2557
3.87506	51.1356
3.87217	51.1541
3.86928	51.1824
3.86639	51.1451
3.86351	51.0377
3.86064	51.0035
3.85776	50.9741
3.8549	50.8676
3.85203	50.8088
3.84917	50.8567
3.84631	50.8173
3.84346	50.6746
3.84062	50.5977
3.83777	50.5808
3.83494	50.4647
3.8321	50.3503
3.82927	50.3556
3.82644	50.3702
3.82362	50.4462
3.82081	50.4779
3.81799	50.353
3.81518	50.194
3.81238	50.1386
3.80958	50.1459
3.80678	50.117
3.80399	50.0705
3.8012	49.9567
3.79841	49.8803
3.79563	49.9035
3.79286	49.9013
3.79008	49.7763
3.78731	49.6909
3.78455	49.6581
3.78179	49.6411
3.77903	49.644
3.77628	49.6134
3.77353	49.5747
3.77079	49.5224
3.76805	49.4223
3.76531	49.317
3.76258	49.2857
3.75985	49.2172
3.75713	49.1132
3.7544	49.0561
3.75169	48.9933
3.74898	48.9361
3.74627	48.8875
3.74356	48.8277
3.74086	48.7534
3.73816	48.6898
3.73547	48.6352
3.73278	48.5859
3.7301	48.4951
3.72741	48.4277
3.72474	48.3563
3.72206	48.2911
3.71939	48.2657
3.71673	48.2249
3.71406	48.1856
3.71141	48.098
3.70875	47.9166
3.7061	47.7912
3.70345	47.7378
3.70081	47.642
3.69817	47.5413
3.69553	47.5348
3.6929	47.5496
3.69027	47.5008
3.68765	47.3835
3.68503	47.3284
3.68241	47.2617
3.6798	47.2136
3.67719	47.1639
3.67458	47.0493
3.67198	46.9708
3.66938	46.9228
3.66678	46.891
3.66419	46.7831
3.66161	46.6499
3.65902	46.5847
3.65644	46.5023
3.65387	46.4371
3.65129	46.3515
3.64872	46.2433
3.64616	46.1502
3.64359	46.0584
3.64103	45.9969
3.63848	45.9746
3.63593	45.8351
3.63338	45.6964
3.63084	45.6129
3.6283	45.5456
3.62576	45.4221
3.62322	45.3109
3.62069	45.2752
3.61817	45.2071
3.61564	45.0431
3.61312	44.8573
3.61061	44.7315
3.6081	44.6907
3.60559	44.6163
3.60308	44.4792
3.60058	44.3958
3.59808	44.3567
3.59558	44.2601
3.59309	44.0876
3.59061	43.8974
3.58812	43.7411
3.58564	43.5644
3.58316	43.4508
3.58069	43.2712
3.57822	43.0894
3.57575	42.9511
3.57328	42.785
3.57082	42.627
3.56836	42.4146
3.56591	42.3105
3.56346	42.2672
3.56101	42.1855
3.55857	42.0562
3.55613	41.9451
3.55369	41.9224
3.55126	41.8511
3.54883	41.7607
3.5464	41.7016
3.54397	41.6017
3.54155	41.5204
3.53914	41.4958
3.53672	41.334
3.53431	41.1795
3.5319	41.0823
3.5295	40.9585
3.5271	40.842
3.5247	40.685
3.52231	40.5304
3.51991	40.4205
3.51753	40.2747
3.51514	40.1929
3.51276	40.0994
3.51038	39.9193
3.50801	39.8247
3.50563	39.7548
3.50327	39.6057
3.5009	39.4826
3.49854	39.3804
3.49618	39.302
3.49382	39.1916
3.49147	39.0739
3.48912	38.9863
3.48677	38.8361
3.48443	38.7709
3.48209	38.7365
3.47975	38.6448
3.47742	38.5759
3.47509	38.5029
3.47276	38.4479
3.47044	38.3982
3.46812	38.3076
3.4658	38.1692
3.46348	38.0385
3.46117	37.9686
3.45886	37.8512
3.45656	37.7324
3.45425	37.7234
3.45195	37.6232
3.44966	37.4516
3.44736	37.3179
3.44507	37.2478
3.44279	37.1835
3.4405	37.0485
3.43822	36.8826
3.43594	36.7647
3.43367	36.6182
3.43139	36.482
3.42912	36.3584
3.42686	36.3202
3.42459	36.1914
3.42233	36.0178
3.42007	35.9109
3.41782	35.7295
3.41557	35.5098
3.41332	35.3602
3.41108	35.3193
3.40883	35.3076
3.40659	35.1878
3.40435	35.1398
3.40212	35.0741
3.39989	34.998
3.39766	34.9552
3.39544	34.9045
3.39322	34.8722
3.391	34.7075
3.38878	34.5529
3.38657	34.4779
3.38436	34.4119
3.38215	34.3345
3.37994	34.2135
3.37774	34.1464
3.37554	34.0987
3.37335	33.8908
3.37115	33.6916
3.36896	33.6535
3.36678	33.6235
3.36459	33.5854
3.36241	33.4847
3.36023	33.325
3.35805	33.1572
3.35588	33.063
3.35371	32.978
3.35154	32.8768
3.34938	32.8494
3.34721	32.8402
3.34505	32.6625
3.3429	32.4678
3.34074	32.4001
3.33859	32.357
3.33644	32.2415
3.3343	32.0274
3.33215	31.8517
3.33001	31.8206
3.32788	31.7984
3.32574	31.7281
3.32361	31.6402
3.32148	31.4799
3.31936	31.3163
3.31723	31.1458
3.31511	31.0481
3.31299	30.9588
3.31088	30.807
3.30876	30.6845
3.30665	30.6019
3.30455	30.5002
3.30244	30.3268
3.30034	30.2664
3.29824	30.1089
3.29614	29.9139
3.29405	29.8345
3.29196	29.8252
3.28987	29.6735
3.28778	29.5343
3.2857	29.4092
3.28362	29.2208
3.28154	29.0802
3.27946	28.9488
3.27739	28.8321
3.27532	28.7094
3.27325	28.644
3.27119	28.5094
3.26913	28.3935
3.26707	28.2445
3.26501	28.1007
3.26295	27.9597
3.2609	27.8015
3.25885	27.6356
3.2568	27.4111
3.25476	27.279
3.25272	27.2223
3.25068	26.9898
3.24864	26.8521
3.24661	26.81
3.24458	26.6452
3.24255	26.4891
3.24052	26.313
3.2385	26.1574
3.23648	25.9804
3.23446	25.7735
3.23244	25.6041
3.23043	25.4128
3.22841	25.2313
3.2264	25.1057
3.2244	24.9067
3.22239	24.7797
3.22039	24.6559
3.21839	24.5556
3.2164	24.3707
3.2144	24.2441
3.21241	23.9707
3.21042	23.664
3.20844	23.4992
3.20645	23.3961
3.20447	23.276
3.20249	22.9222
3.20051	22.6942
3.19854	22.5647
3.19657	22.4215
3.1946	22.2855
3.19263	22.1363
3.19067	21.8314
3.1887	21.5615
3.18674	21.3726
3.18479	21.2352
3.18283	21.0894
3.18088	20.8738
3.17893	20.6827
3.17698	20.5309
3.17504	20.2929
3.17309	20.1002
3.17115	19.9351
3.16921	19.8398
3.16728	19.6645
3.16534	19.3706
3.16341	19.0655
3.16148	18.8869
3.15956	18.6851
3.15763	18.5199
3.15571	18.3685
3.15379	18.1483
3.15187	17.9936
3.14996	17.862
3.14805	17.5758
3.14614	17.2984
3.14423	17.078
3.14232	16.9181
3.14042	16.8753
3.13852	16.6971
3.13662	16.4359
3.13472	16.207
3.13283	16.0694
3.13094	15.9466
3.12905	15.741
3.12716	15.4565
3.12528	15.2423
3.12339	15.0908
3.12151	15.0097
3.11964	14.7755
3.11776	14.4276
3.11589	14.2608
3.11401	14.1689
3.11214	14.0368
3.11028	13.8421
3.10841	13.6807
3.10655	13.594
3.10469	13.4101
3.10283	13.2078
3.10098	12.9646
3.09912	12.719
3.09727	12.5978
3.09542	12.4841
3.09358	12.24
3.09173	12.0829
3.08989	11.9509
3.08805	11.8402
3.08621	11.7152
3.08437	11.5004
3.08254	11.2568
3.08071	11.0936
3.07888	11.0224
3.07705	10.9004
3.07523	10.7278
3.0734	10.6141
3.07158	10.448
3.06977	10.2392
3.06795	10.0082
3.06613	9.96417
3.06432	9.94447
3.06251	9.77173
3.0607	9.6363
3.0589	9.50837
3.0571	9.30987
3.05529	9.15506
3.05349	9.18304
3.0517	9.15056
3.0499	8.93739
3.04811	8.63171
3.04632	8.55199
3.04453	8.5558
3.04274	8.42015
3.04096	8.1505
3.03918	8.05735
3.0374	8.07088
3.03562	7.91671
3.03384	7.84154
3.03207	7.77899
3.03029	7.70402
3.02852	7.6329
3.02676	7.64925
3.02499	7.62718
3.02323	7.48917
3.02146	7.30524
3.0197	7.14736
3.01795	7.00069
3.01619	6.96317
3.01444	6.88025
3.01269	6.77543
3.01094	6.7343
3.00919	6.62077
3.00744	6.58575
3.0057	6.50626
3.00396	6.38169
3.00222	6.2836
3.00048	6.18008
2.99875	6.0483
2.99701	6.04321
2.99528	6.05862
2.99355	6.03334
2.99183	6.06962
2.9901	6.00202
2.98838	5.83681
2.98666	5.81834
2.98494	5.78528
2.98322	5.62327
2.9815	5.45157
2.97979	5.36772
2.97808	5.30795
2.97637	5.20179
2.97466	5.21029
2.97295	5.30815
2.97125	5.40683
2.96955	5.30416
2.96785	5.14848
2.96615	5.07413
2.96446	4.9834
2.96276	4.91641
2.96107	4.88891
2.95938	4.89316
2.95769	4.89636
2.95601	4.89
2.95432	4.86208
2.95264	4.80832
2.95096	4.70049
2.94928	4.63403
2.9476	4.55757
2.94593	4.51502
2.94425	4.50131
2.94258	4.57171
2.94092	4.57074
2.93925	4.43536
2.93758	4.38585
2.93592	4.44371
2.93426	4.48655
2.9326	4.50842
2.93094	4.45161
2.92928	4.41011
2.92763	4.47481
2.92598	4.56813
2.92433	4.47287
2.92268	4.29758
2.92103	4.20007
2.91939	4.23249
2.91775	4.3648
2.9161	4.44557
2.91447	4.36678
2.91283	4.46683
2.91119	4.48813
2.90956	4.54296
2.90793	4.72083
2.9063	4.63045
2.90467	4.49884
2.90304	4.5348
2.90142	4.53674
2.89979	4.64361
2.89817	4.72881
2.89656	4.70511
2.89494	4.75111
2.89332	4.83666
2.89171	4.99254
2.8901	4.95199
2.88849	4.85346
2.88688	4.96246
2.88527	5.19565
2.88367	5.1948
2.88206	5.04897
2.88046	5.20025
2.87886	5.3728
2.87727	5.4395
2.87567	5.43775
2.87408	5.36492
2.87248	5.28773
2.87089	5.30009
2.8693	5.42487
2.86772	5.47461
2.86613	5.46525
2.86455	5.34897
2.86297	5.37951
2.86139	5.45917
2.85981	5.52385
2.85823	5.39455
2.85666	5.31888
2.85508	5.44633
2.85351	5.6381
2.85194	5.44041
2.85038	5.25082
2.84881	5.25257
2.84724	5.30692
2.84568	5.16311
2.84412	5.0399
2.84256	5.05021
2.841	5.07023
2.83945	5.06703
2.83789	4.89615
2.83634	4.6958
2.83479	4.77904
2.83324	4.90634
2.83169	4.99217
2.83015	4.8819
2.82861	4.77897
2.82706	4.78648
2.82552	4.66888
2.82398	4.65088
2.82245	4.54515
2.82091	4.50552
2.81938	4.43108
2.81784	4.48599
2.81631	4.57313
2.81479	4.43538
2.81326	4.39713
2.81173	4.47455
2.81021	4.50538
2.80869	4.37206
2.80716	4.33784
2.80565	4.55666
2.80413	4.77039
2.80261	4.78557
2.8011	4.74326
2.79959	4.8362
2.79808	4.95128
2.79657	5.01542
2.79506	5.15803
2.79355	5.27925
2.79205	5.66106
2.79055	6.05819
2.78904	6.22421
2.78754	6.36948
2.78605	6.7082
2.78455	6.92054
2.78306	7.25994
2.78156	7.77935
2.78007	8.31707
2.77858	8.69666
2.77709	9.1544
2.77561	9.70478
2.77412	10.2673
2.77264	10.6376
2.77116	11.0295
2.76968	11.4213
2.7682	11.6751
2.76672	11.793
2.76524	11.7724
2.76377	11.8896
2.7623	11.9673
2.76083	11.926
2.75936	12.0826
2.75789	12.2674
2.75642	12.4795
2.75496	12.691
2.7535	12.6586
2.75203	12.6582
2.75057	12.5982
2.74912	12.5336
2.74766	12.6533
2.7462	12.7368
2.74475	12.849
2.7433	13.2086
2.74185	13.7019
2.7404	13.985
2.73895	13.9639
2.7375	14.0213
2.73606	14.2989
2.73462	14.5899
2.73318	14.6847
2.73174	14.9027
2.7303	15.3099
2.72886	15.6818
2.72742	16.0852
2.72599	16.7918
2.72456	17.697
2.72313	18.478
2.7217	19.4395
2.72027	20.6605
2.71884	21.6148
2.71742	22.9939
2.71599	24.8037
2.71457	26.7464
2.71315	28.9518
2.71173	31.36
2.71032	33.3824
2.7089	34.5229
2.70748	35.2974
2.70607	35.9812
2.70466	36.5796
2.70325	37.2642
2.70184	38.405
2.70043	39.4417
2.69903	40.3113
2.69762	41.4929
2.69622	42.8936
2.69482	44.257
2.69342	45.2313
2.69202	45.677
2.69062	46.3891
2.68923	47.2422
2.68783	47.8831
2.68644	48.498
2.68505	49.0505
2.68366	49.4521
2.68227	49.6054
2.68089	49.978
2.6795	50.768
2.67812	51.2107
2.67673	51.5633
2.67535	51.5222
2.67397	51.433
2.6726	51.763
2.67122	52.7418
2.66984	53.084
2.66847	52.7338
2.6671	53.3049
2.66572	53.5407
2.66435	53.2285
2.66299	52.8214
2.66162	52.9982
2.66025	53.1914
2.65889	53.2396
2.65753	53.0927
2.65616	53.3355
2.65481	53.5167
2.65345	53.749
2.65209	53.7606
2.65073	53.5605
2.64938	53.5804
2.64803	53.7336
2.64667	53.8521
2.64532	54.0129
2.64397	54.0568
2.64263	54.2658
2.64128	54.2131
2.63994	54.1761
2.63859	54.2561
2.63725	54.3957
2.63591	54.4557
2.63457	54.7313
2.63323	54.8321
2.6319	54.956
2.63056	55.4094
2.62923	55.0975
2.62789	55.0146
2.62656	55.2827
2.62523	54.9399
2.6239	54.8125
2.62258	54.8293
2.62125	55.3035
2.61993	55.5127
2.6186	55.2553
2.61728	55.5781
2.61596	55.3833
2.61464	54.9304
2.61332	54.9752
2.61201	54.9135
2.61069	55.0005
2.60938	55.1838
2.60807	55.2632
2.60675	55.5787
2.60544	55.815
2.60414	55.4862
2.60283	55.3504
2.60152	55.1384
2.60022	54.8892
2.59891	54.8935
2.59761	55.1086
2.59631	55.7252
2.59501	56.601
2.59371	56.132
2.59242	55.2488
2.59112	54.9727
2.58983	54.9763
2.58853	55.2099
2.58724	55.4911
2.58595	55.4455
2.58466	55.7379
2.58338	55.7075
2.58209	55.3674
2.5808	55.3719
2.57952	55.2108
2.57824	55.2798
2.57695	55.4672
2.57567	55.3841
2.5744	55.5319
2.57312	55.7518
2.57184	55.5067
2.57057	55.7084
2.56929	55.7403
2.56802	55.4587
2.56675	55.408
2.56548	55.6092
2.56421	55.8647
2.56294	56.0239
2.56168	56.0744
2.56041	55.8509
2.55915	55.5425
2.55789	55.5571
2.55662	55.6125
2.55536	55.672
2.5541	55.8779
2.55285	56.0515
2.55159	56.1156
2.55034	56.104
2.54908	56.09
2.54783	56.0775
2.54658	55.9637
2.54533	55.9624
2.54408	56.0979
2.54283	56.2295
2.54159	56.1514
2.54034	56.2099
2.5391	56.2678
2.53785	56.2698
2.53661	56.3002
2.53537	56.3513
2.53413	56.5413
2.53289	56.6186
2.53166	56.5851
2.53042	56.5296
2.52919	56.531
2.52795	56.662
2.52672	56.6907
2.52549	56.6294
2.52426	56.5743
2.52303	56.6284
2.52181	56.703
2.52058	56.7669
2.51936	56.8149
2.51813	56.8732
2.51691	56.825
2.51569	56.9326
2.51447	56.9453
2.51325	56.8639
2.51203	56.9834
2.51082	57.1409
2.5096	57.0962
2.50839	57.0676
2.50717	57.1721
2.50596	57.2178
2.50475	57.1965
2.50354	57.203
2.50233	57.1465
2.50113	57.0864
2.49992	57.0717
2.49872	57.1529
2.49751	57.3153
2.49631	57.3185
2.49511	57.235
2.49391	57.3309
2.49271	57.4427
2.49151	57.4809
2.49031	57.4578
2.48912	57.4613
2.48792	57.5653
2.48673	57.7032
2.48554	57.7685
2.48435	57.8189
2.48316	57.8927
2.48197	58.0181
2.48078	58.0533
2.4796	58.2034
2.47841	58.2704
2.47723	58.2197
2.47604	58.3099
2.47486	58.4828
2.47368	58.6199
2.4725	58.692
2.47132	58.8536
2.47014	58.9818
2.46897	58.9594
2.46779	58.9887
2.46662	59.216
2.46545	59.3055
2.46427	59.3801
2.4631	59.4209
2.46193	59.5089
2.46077	59.6459
2.4596	59.8049
2.45843	59.9067
2.45727	60.0586
2.4561	60.1339
2.45494	60.2073
2.45378	60.3026
2.45262	60.3445
2.45146	60.519
2.4503	60.6013
2.44914	60.5974
2.44799	60.7211
2.44683	60.7056
2.44568	60.6301
2.44452	60.7202
2.44337	60.8901
2.44222	60.8889
2.44107	60.8804
2.43992	60.9328
2.43877	60.8867
2.43763	60.9675
2.43648	61.0677
2.43534	61.0217
2.43419	61.0257
2.43305	61.0142
2.43191	61.0523
2.43077	61.1302
2.42963	61.1461
2.42849	61.2228
2.42736	61.22
2.42622	61.1498
2.42509	61.2869
2.42395	61.2395
2.42282	61.1141
2.42169	61.1247
2.42056	61.1761
2.41943	61.0245
2.4183	60.9185
2.41717	61.015
2.41605	60.9413
2.41492	60.828
2.4138	60.8505
2.41267	60.9215
2.41155	60.8178
2.41043	60.6954
2.40931	60.6109
2.40819	60.655
2.40707	60.7259
2.40595	60.5087
2.40484	60.3285
2.40372	60.4218
2.40261	60.3965
2.4015	60.1314
2.40039	60.1035
2.39928	60.2026
2.39817	60.1949
2.39706	60.153
2.39595	60.0809
2.39484	60.1458
2.39374	60.245
2.39263	60.0747
2.39153	60.0073
2.39043	59.9098
2.38932	59.7367
2.38822	59.6478
2.38712	59.5585
2.38603	59.4536
2.38493	59.4421
2.38383	59.3749
2.38274	59.2834
2.38164	59.0697
2.38055	58.854
2.37946	58.5633
2.37836	58.3178
2.37727	58.1922
2.37618	58.0544
2.3751	58.0256
2.37401	57.7828
2.37292	57.4114
2.37184	57.0982
2.37075	56.8761
2.36967	56.685
2.36859	56.4714
2.3675	56.2897
2.36642	56.0007
2.36534	55.7118
2.36427	55.4786
2.36319	55.2462
2.36211	54.9752
2.36104	54.8397
2.35996	54.51
2.35889	54.2957
2.35781	54.2475
2.35674	54.1413
2.35567	53.995
2.3546	53.8316
2.35353	53.6275
2.35247	53.4369
2.3514	53.4077
2.35033	53.3794
2.34927	53.2524
2.3482	53.2381
2.34714	53.3096
2.34608	53.3345
2.34502	53.2253
2.34396	53.1362
2.3429	53.175
2.34184	53.3602
2.34078	53.5141
2.33973	53.6021
2.33867	53.662
2.33762	53.7451
2.33656	53.8781
2.33551	53.9509
2.33446	54.1014
2.33341	54.3207
2.33236	54.39
2.33131	54.4407
2.33026	54.7015
2.32922	54.9671
2.32817	54.9855
2.32712	55.0674
2.32608	55.322
2.32504	55.4063
2.324	55.3477
2.32295	55.4919
2.32191	55.7184
2.32087	55.8074
2.31984	55.7304
2.3188	55.7877
2.31776	55.9152
2.31673	56.1187
2.31569	56.2609
2.31466	56.3063
2.31362	56.3955
2.31259	56.3981
2.31156	56.5132
2.31053	56.711
2.3095	56.7786
2.30847	56.7661
2.30745	56.8406
2.30642	56.8274
2.3054	56.7912
2.30437	56.9602
2.30335	57.1788
2.30232	57.2817
2.3013	57.3895
2.30028	57.4498
2.29926	57.4503
2.29824	57.5489
2.29722	57.8437
2.29621	58.0154
2.29519	58.1174
2.29417	58.2754
2.29316	58.4681
2.29215	58.6567
2.29113	58.7325
2.29012	58.8159
2.28911	58.9073
2.2881	59.1236
2.28709	59.3095
2.28608	59.2256
2.28507	59.2588
2.28407	59.4161
2.28306	59.525
2.28206	59.6057
2.28105	59.5716
2.28005	59.5909
2.27905	59.6399
2.27805	59.5239
2.27705	59.4193
2.27605	59.3863
2.27505	59.4809
2.27405	59.5365
2.27305	59.5069
2.27206	59.5218
2.27106	59.3287
2.27007	59.1582
2.26907	58.9775
2.26808	58.6978
2.26709	58.6007
2.2661	58.5369
2.26511	58.5128
2.26412	58.3435
2.26313	58.0162
2.26214	57.8085
2.26116	57.6778
2.26017	57.4684
2.25919	57.4462
2.2582	57.2995
2.25722	57.0842
2.25624	56.9755
2.25526	56.9405
2.25428	56.9169
2.2533	56.8565
2.25232	56.952
2.25134	57.2483
2.25036	57.4949
2.24939	57.7776
2.24841	57.9933
2.24744	58.1895
2.24646	58.5429
2.24549	59.0145
2.24452	59.6529
2.24355	60.2056
2.24257	60.59
2.24161	61.0493
2.24064	61.517
2.23967	61.9114
2.2387	62.367
2.23774	62.7662
2.23677	63.0362
2.23581	63.4157
2.23484	63.6669
2.23388	63.9265
2.23292	64.253
2.23196	64.6493
2.231	65.0133
2.23004	65.1978
2.22908	65.2319
2.22812	65.4625
2.22716	65.7301
2.22621	65.7809
2.22525	65.8059
2.2243	65.8181
2.22334	65.9299
2.22239	66.1444
2.22144	66.3227
2.22049	66.4595
2.21953	66.5111
2.21859	66.5453
2.21764	66.6416
2.21669	66.6217
2.21574	66.6128
2.21479	66.6811
2.21385	66.7336
2.2129	66.8012
2.21196	66.8008
2.21102	66.8569
2.21007	66.9915
2.20913	67.0277
2.20819	67.0703
2.20725	67.0965
2.20631	67.1273
2.20537	67.1896
2.20444	67.1862
2.2035	67.1259
2.20256	67.2954
2.20163	67.3295
2.20069	67.3922
2.19976	67.4946
2.19883	67.4092
2.19789	67.397
2.19696	67.553
2.19603	67.6624
2.1951	67.7586
2.19417	67.8308
2.19325	67.7512
2.19232	67.8093
2.19139	67.9341
2.19047	67.9575
2.18954	67.8674
2.18862	67.8008
2.18769	67.8034
2.18677	67.8904
2.18585	68.0889
2.18493	67.943
2.18401	67.9378
2.18309	68.0899
2.18217	68.1544
2.18125	68.1794
2.18033	68.1353
2.17942	68.0261
2.1785	68.0538
2.17759	68.0942
2.17667	68.0965
2.17576	68.1683
2.17485	68.2508
2.17393	68.2676
2.17302	68.1881
2.17211	68.1887
2.1712	68.3409
2.17029	68.2689
2.16939	68.1455
2.16848	68.0619
2.16757	68.0498
2.16667	68.3334
2.16576	68.374
2.16486	68.1255
2.16395	68.2298
2.16305	68.4379
2.16215	68.358
2.16125	68.2441
2.16035	68.2838
2.15945	68.2616
2.15855	68.2125
2.15765	68.2733
2.15675	68.3
2.15586	68.2806
2.15496	68.2633
2.15406	68.2067
2.15317	68.215
2.15228	68.2537
2.15138	68.2494
2.15049	68.2932
2.1496	68.3034
2.14871	68.3924
2.14782	68.3353
2.14693	68.2135
2.14604	68.28
2.14515	68.3837
2.14427	68.5165
2.14338	68.3294
2.14249	68.2537
2.14161	68.2944
2.14072	68.3498
2.13984	68.452
2.13896	68.3341
2.13808	68.2164
2.13719	68.2823
2.13631	68.1421
2.13543	68.0932
2.13455	68.3253
2.13368	68.3197
2.1328	68.0689
2.13192	68.0603
2.13105	68.1103
2.13017	68.0368
2.1293	67.9294
2.12842	67.987
2.12755	68.1073
2.12668	68.0899
2.1258	68.0452
2.12493	68.0578
2.12406	68.1717
2.12319	68.1967
2.12232	68.1168
2.12145	68.1133
2.12059	68.162
2.11972	68.2124
2.11885	68.1862
2.11799	68.0447
2.11712	68.0898
2.11626	68.0928
2.1154	67.9302
2.11453	67.8942
2.11367	68.0069
2.11281	68.0417
2.11195	67.9808
2.11109	67.9613
2.11023	67.9182
2.10937	67.9145
2.10851	68.0307
2.10766	67.975
2.1068	68.0424
2.10594	68.2758
2.10509	68.3154
2.10423	67.9661
2.10338	67.8603
2.10253	67.9658
2.10168	68.0998
2.10082	68.0457
2.09997	68.0921
2.09912	68.0926
2.09827	67.858
2.09742	67.9188
2.09658	67.9623
2.09573	67.8843
2.09488	67.8664
2.09404	67.7981
2.09319	67.828
2.09235	67.8293
2.0915	67.675
2.09066	67.7098
2.08982	67.7294
2.08897	67.8652
2.08813	68.1078
2.08729	68.085
2.08645	67.8421
2.08561	67.6777
2.08477	67.8076
2.08394	67.8123
2.0831	67.635
2.08226	67.6294
2.08143	67.5496
2.08059	67.4605
2.07976	67.6723
2.07892	67.5151
2.07809	67.2536
2.07726	67.4006
2.07643	67.4913
2.07559	67.5278
2.07476	67.9024
2.07393	68.0203
2.0731	67.8061
2.07228	67.4136
2.07145	67.1346
2.07062	67.2127
2.06979	67.2109
2.06897	67.1311
2.06814	67.1734
2.06732	67.3404
2.06649	67.2279
2.06567	66.9678
2.06485	67.0391
2.06403	67.2476
2.0632	67.3193
2.06238	67.3817
2.06156	67.335
2.06074	67.1706
2.05993	67.1257
2.05911	67.1143
2.05829	66.9244
2.05747	66.9388
2.05666	66.9539
2.05584	66.9761
2.05503	67.0484
2.05421	66.8979
2.0534	66.5886
2.05259	66.6686
2.05177	66.7641
2.05096	66.8747
2.05015	66.7633
2.04934	66.7027
2.04853	66.6927
2.04772	66.6822
2.04691	66.49
2.04611	66.4461
2.0453	66.4241
2.04449	66.4007
2.04369	66.4216
2.04288	66.42
2.04208	66.2385
2.04127	66.0238
2.04047	66.0642
2.03967	66.0486
2.03886	65.9352
2.03806	66.0027
2.03726	66.0548
2.03646	65.9759
2.03566	65.9473
2.03486	65.8269
2.03407	65.5545
2.03327	65.5001
2.03247	65.7536
2.03167	65.5621
2.03088	65.2207
2.03008	65.3146
2.02929	65.4609
2.0285	65.3491
2.0277	65.1365
2.02691	65.0436
2.02612	65.1762
2.02533	65.1713
2.02453	65.0212
2.02374	65.0661
2.02295	65.0154
2.02217	64.8858
2.02138	64.777
2.02059	64.6862
2.0198	64.6102
2.01902	64.6189
2.01823	64.563
2.01744	64.3777
2.01666	64.2981
2.01588	64.2977
2.01509	64.2649
2.01431	64.1886
2.01353	64.0168
2.01275	64.0381
2.01196	64.165
2.01118	64.1795
2.0104	64.0739
2.00963	64.0789
2.00885	64.1425
2.00807	64.0808
2.00729	63.9575
2.00651	63.9552
2.00574	64.0974
2.00496	64.0276
2.00419	63.7806
2.00341	63.8117
2.00264	63.9148
2.00187	63.8988
2.00109	63.9093
2.00032	63.8699
