Name: Orthoclase (Feldspar) (K,Na)AlSi_3O_8
Type: Mineral
Class: Silicates
Subclass: Tectosilicates
Particle Size: 0-45um
Sample No.: TS-12A
Owner: JPL
Wavelength range: IR
Origin: India
Collected by Burminco
Description:   





Measurement: Hemispherical reflectance
First Column: X
Second Column: Y
X Units:  Wavelength (micrometers)
Y Units:  Reflectance (percent)
First X Value: 15.3853
Last X Value: 2.00032
Number of X Values: 2256
Additional information: ts12aa.txt
 
15.3853	2.13399
15.3397	2.38191
15.2945	2.39576
15.2495	2.13696
15.2048	2.18132
15.1603	2.3253
15.1161	2.52208
15.0722	2.86111
15.0285	2.98
14.9851	3.00922
14.9419	2.97213
14.8989	3.06911
14.8563	3.30029
14.8138	3.64354
14.7716	3.96003
14.7296	3.99681
14.6879	4.08932
14.6464	4.16401
14.6052	4.11688
14.5641	3.979
14.5233	4.08408
14.4828	4.21059
14.4424	4.27875
14.4023	4.24097
14.3624	4.08946
14.3227	3.82426
14.2833	3.51752
14.244	3.33099
14.205	3.29383
14.1662	3.17328
14.1276	3.05842
14.0892	2.9356
14.051	2.86
14.0131	2.77939
13.9753	2.68649
13.9377	2.48905
13.9004	2.43339
13.8632	2.4026
13.8262	2.25128
13.7895	2.26779
13.7529	2.34636
13.7165	2.21882
13.6803	2.11071
13.6443	2.23101
13.6085	2.26938
13.5729	2.17426
13.5374	2.01113
13.5022	1.88209
13.4671	1.98093
13.4322	1.95287
13.3975	2.03039
13.363	2.15742
13.3286	2.13602
13.2944	2.13795
13.2604	2.27387
13.2266	2.30205
13.193	2.25283
13.1595	2.14205
13.1262	2.17725
13.093	2.20435
13.06	2.06245
13.0272	2.02434
12.9946	2.18396
12.9621	2.18672
12.9298	2.21819
12.8976	2.28336
12.8656	2.13146
12.8337	2.04588
12.8021	2.0653
12.7705	2.10028
12.7391	2.11097
12.7079	2.17172
12.6769	2.12826
12.6459	2.07508
12.6152	2.25264
12.5845	2.51418
12.5541	2.7311
12.5238	2.99972
12.4936	3.33511
12.4635	3.87023
12.4337	4.47653
12.4039	5.33058
12.3743	6.25756
12.3448	7.10026
12.3155	7.9925
12.2863	9.03814
12.2573	10.1151
12.2284	11.1311
12.1996	12.0989
12.171	12.7572
12.1425	13.284
12.1141	13.8064
12.0859	14.3982
12.0578	14.9509
12.0298	15.2639
12.0019	15.4087
11.9742	15.4673
11.9466	15.4719
11.9192	15.5452
11.8918	15.6567
11.8646	15.8605
11.8375	15.9333
11.8106	15.9103
11.7837	15.9592
11.757	15.8798
11.7304	15.7439
11.7039	15.7868
11.6776	15.8221
11.6513	15.782
11.6252	15.6469
11.5992	15.5758
11.5733	15.4667
11.5475	15.4089
11.5219	15.3537
11.4963	15.3076
11.4709	15.1684
11.4455	15.034
11.4203	14.9032
11.3952	14.7818
11.3702	14.6058
11.3454	14.4789
11.3206	14.354
11.2959	14.2123
11.2714	13.9524
11.2469	13.7199
11.2226	13.5716
11.1983	13.4332
11.1742	13.2423
11.1502	12.9761
11.1263	12.5869
11.1024	12.2333
11.0787	12.0906
11.0551	11.9582
11.0316	11.6574
11.0081	11.3873
10.9848	11.2205
10.9616	10.8989
10.9385	10.4509
10.9154	10.0583
10.8925	9.71575
10.8697	9.40462
10.8469	9.07591
10.8243	8.74128
10.8017	8.35256
10.7793	7.99061
10.7569	7.81602
10.7346	7.67264
10.7125	7.37782
10.6904	7.02352
10.6684	6.76637
10.6465	6.605
10.6247	6.55568
10.6029	6.46031
10.5813	6.34344
10.5597	6.05393
10.5383	5.82978
10.5169	5.80009
10.4956	5.80426
10.4744	5.68818
10.4533	5.55601
10.4323	5.50138
10.4113	5.36041
10.3904	5.28962
10.3697	5.19664
10.349	5.08047
10.3284	5.13589
10.3078	5.2713
10.2874	5.32152
10.267	5.27813
10.2467	5.25918
10.2265	5.2948
10.2064	5.41231
10.1863	5.3927
10.1663	5.4388
10.1464	5.52574
10.1266	5.58386
10.1069	5.5986
10.0872	5.6516
10.0676	5.58643
10.0481	5.68747
10.0287	5.86298
10.0093	5.97023
9.99005	6.04504
9.97084	6.10435
9.95169	6.15944
9.93263	6.12152
9.91364	6.18452
9.89472	6.27199
9.87587	6.34822
9.8571	6.27848
9.83839	6.3239
9.81976	6.46737
9.80119	6.45607
9.78271	6.34764
9.76428	6.37855
9.74592	6.47965
9.72764	6.47172
9.70943	6.49083
9.69128	6.65788
9.6732	6.79412
9.65518	6.82903
9.63724	6.85634
9.61935	7.02462
9.60155	7.16899
9.5838	7.21745
9.56611	7.04858
9.5485	6.93854
9.53094	6.95614
9.51345	7.00802
9.49604	6.95248
9.47867	6.88657
9.46137	6.80984
9.44414	6.58951
9.42697	6.28061
9.40986	6.18626
9.39281	6.0509
9.37583	5.81162
9.35891	5.64153
9.34204	5.5024
9.32524	5.36773
9.3085	5.20152
9.29182	4.95911
9.27519	4.81653
9.25863	4.86044
9.24213	4.82478
9.22568	4.65546
9.2093	4.56226
9.19297	4.66052
9.17669	4.75861
9.16048	4.68775
9.14433	4.45737
9.12823	4.4019
9.11218	4.45852
9.0962	4.42729
9.08027	4.47022
9.06439	4.47846
9.04858	4.45111
9.03281	4.45623
9.0171	4.45339
9.00145	4.53792
8.98585	4.6156
8.9703	4.6318
8.9548	4.59506
8.93937	4.52829
8.92398	4.47603
8.90865	4.59858
8.89337	4.78379
8.87814	4.76908
8.86296	4.75929
8.84784	4.88193
8.83277	5.10132
8.81774	5.31896
8.80277	5.40494
8.78786	5.50052
8.77298	5.56822
8.75816	5.62999
8.7434	5.68875
8.72868	5.66985
8.714	5.82104
8.69938	5.85634
8.68481	5.7929
8.67029	5.85164
8.65581	5.77041
8.64139	5.82544
8.62701	6.13229
8.61268	6.20292
8.5984	6.14823
8.58416	6.19504
8.56997	6.24272
8.55583	6.29086
8.54174	6.52924
8.52769	6.62166
8.51368	6.6042
8.49973	6.6889
8.48582	6.6813
8.47195	6.55441
8.45813	6.47267
8.44436	6.52109
8.43062	6.54084
8.41693	6.49654
8.4033	6.42131
8.3897	6.27181
8.37614	6.12905
8.36264	6.12543
8.34917	6.03272
8.33574	5.86957
8.32236	5.73646
8.30903	5.52352
8.29573	5.23975
8.28248	4.94957
8.26927	4.59633
8.2561	4.36576
8.24298	4.14403
8.2299	3.80926
8.21685	3.42602
8.20385	3.28606
8.19089	3.23341
8.17797	3.10373
8.16509	2.64572
8.15225	2.28718
8.13946	2.12883
8.1267	2.07423
8.11398	1.93766
8.10131	1.78012
8.08867	1.65062
8.07606	1.45833
8.0635	1.2982
8.05099	1.13599
8.0385	1.00504
8.02606	1.00793
8.01366	0.977325
8.00129	0.994665
7.98896	0.965404
7.97667	0.801189
7.96442	0.65962
7.9522	0.665012
7.94002	0.662689
7.92788	0.529772
7.91578	0.35705
7.90371	0.319559
7.89168	0.350584
7.87969	0.41577
7.86773	0.406559
7.85581	0.479505
7.84392	0.517479
7.83207	0.53077
7.82026	0.550146
7.80849	0.534119
7.79674	0.436067
7.78503	0.384024
7.77337	0.427244
7.76173	0.540046
7.75012	0.658675
7.73856	0.69361
7.72703	0.675823
7.71553	0.68031
7.70406	0.733457
7.69263	0.831367
7.68123	0.87593
7.66987	0.88109
7.65855	1.01499
7.64725	1.06974
7.63598	1.04774
7.62475	1.15728
7.61356	1.24275
7.60239	1.36968
7.59126	1.44714
7.58017	1.4086
7.5691	1.44165
7.55806	1.59313
7.54707	1.70192
7.5361	1.83181
7.52516	1.9003
7.51425	1.96279
7.50338	2.06266
7.49253	2.22896
7.48172	2.34552
7.47094	2.49639
7.46019	2.59727
7.44947	2.71216
7.43879	2.80816
7.42813	2.90716
7.4175	2.94446
7.4069	3.08602
7.39634	3.30745
7.3858	3.50658
7.37529	3.65244
7.36482	3.76126
7.35437	3.84498
7.34396	3.96101
7.33357	4.1473
7.32321	4.23044
7.31288	4.38534
7.30258	4.60294
7.29231	4.7343
7.28207	4.88581
7.27185	5.03353
7.26167	5.2066
7.25152	5.30488
7.24139	5.42515
7.23129	5.57508
7.22122	5.80658
7.21117	6.13495
7.20116	6.34985
7.19117	6.43947
7.18121	6.63727
7.17128	6.96392
7.16137	7.14698
7.1515	7.32614
7.14164	7.50311
7.13182	7.63102
7.12203	7.83125
7.11225	8.02249
7.10251	8.22616
7.0928	8.43308
7.08311	8.5796
7.07344	8.68031
7.06381	8.8964
7.0542	9.30595
7.04461	9.60128
7.03506	9.48714
7.02552	9.50694
7.01601	9.62487
7.00653	9.83731
6.99708	10.0474
6.98765	10.157
6.97824	10.1968
6.96886	10.4746
6.95951	10.7753
6.95018	10.6007
6.94087	10.5602
6.9316	10.696
6.92234	10.8558
6.91311	11.0475
6.90391	11.1777
6.89473	11.182
6.88557	11.2713
6.87644	11.5003
6.86733	12.1369
6.85824	12.262
6.84918	11.9002
6.84015	11.8469
6.83114	12.0028
6.82215	12.06
6.81319	12.0354
6.80424	12.2434
6.79532	12.6708
6.78643	12.8264
6.77756	12.7251
6.76871	12.7541
6.75989	12.7739
6.75109	12.7939
6.74231	12.8356
6.73355	13.0474
6.72482	13.305
6.71611	13.6211
6.70742	13.7774
6.69875	13.6948
6.69011	13.9109
6.68149	14.2112
6.67289	14.1161
6.66431	14.0787
6.65576	14.2791
6.64722	14.808
6.63871	15.5266
6.63022	15.3911
6.62175	14.9426
6.61331	14.8422
6.60488	14.8576
6.59648	15.1735
6.5881	15.413
6.57974	15.666
6.5714	15.906
6.56308	15.624
6.55478	15.6129
6.54651	15.6732
6.53825	15.6253
6.53001	15.7655
6.5218	16.0829
6.51361	15.8643
6.50544	15.9887
6.49729	16.7647
6.48915	16.8383
6.48104	16.4638
6.47295	16.1929
6.46488	15.9198
6.45683	15.91
6.4488	15.9029
6.44079	15.918
6.4328	16.1328
6.42482	16.3975
6.41687	17.0976
6.40894	16.7987
6.40103	15.9122
6.39314	15.6382
6.38526	15.5259
6.37741	15.588
6.36957	15.7016
6.36176	15.3919
6.35396	15.3681
6.34618	15.6893
6.33843	15.4032
6.33069	15.0018
6.32297	14.9244
6.31527	14.8657
6.30758	14.8737
6.29992	14.8539
6.29227	14.8742
6.28465	14.9019
6.27704	14.9726
6.26945	14.973
6.26188	14.9476
6.25432	14.9804
6.24679	15.0238
6.23927	15.0715
6.23177	15.1248
6.22429	15.2599
6.21683	15.3742
6.20938	15.3837
6.20195	15.4038
6.19454	15.5584
6.18715	16.0289
6.17978	16.0423
6.17242	15.8852
6.16508	16.152
6.15776	16.3077
6.15045	16.2305
6.14317	16.3447
6.1359	16.3913
6.12864	16.431
6.12141	16.7912
6.11419	17.3661
6.10699	17.2512
6.0998	16.9769
6.09263	17.0041
6.08549	17.1512
6.07835	17.6717
6.07123	18.1228
6.06413	17.9296
6.05705	18.2631
6.04998	19.3737
6.04293	18.9517
6.0359	18.2453
6.02888	18.1399
6.02187	18.334
6.01489	18.7324
6.00792	18.7437
6.00096	18.7212
5.99403	19.1412
5.98711	19.3232
5.9802	19.0775
5.97331	19.3467
5.96644	19.5484
5.95958	19.2381
5.95274	19.3371
5.94591	19.6502
5.9391	20.3416
5.9323	20.082
5.92552	19.3894
5.91876	19.239
5.91201	19.2061
5.90528	19.4347
5.89856	20.1063
5.89186	20.0425
5.88517	20.2296
5.8785	20.3212
5.87184	19.558
5.8652	19.5517
5.85857	19.3625
5.85196	19.1119
5.84536	19.0057
5.83878	19.071
5.83221	19.2512
5.82566	19.5326
5.81912	19.4661
5.81259	18.8365
5.80608	18.6233
5.79959	18.6469
5.79311	18.5764
5.78665	18.5479
5.78019	18.498
5.77376	18.6662
5.76734	19.1433
5.76093	18.6423
5.75453	18.1983
5.74815	18.2659
5.74179	18.1621
5.73543	18.0764
5.7291	17.954
5.72277	17.9704
5.71646	18.0578
5.71017	18.0503
5.70389	17.7104
5.69762	17.6113
5.69136	17.6525
5.68513	17.4736
5.6789	17.502
5.67268	17.4587
5.66648	17.2785
5.6603	17.3601
5.65413	17.4646
5.64797	17.7191
5.64182	18.0619
5.63569	17.7844
5.62957	17.5426
5.62347	17.6036
5.61737	17.7754
5.61129	17.84
5.60522	17.9496
5.59917	18.0111
5.59313	18.072
5.5871	18.3683
5.58109	18.8138
5.57509	18.9349
5.5691	18.7901
5.56312	18.9711
5.55716	19.351
5.55121	19.6615
5.54528	19.7865
5.53935	20.0566
5.53344	20.3685
5.52754	20.6651
5.52166	20.9979
5.51578	21.2891
5.50992	21.5234
5.50407	21.862
5.49823	22.1505
5.49241	22.4313
5.4866	22.6967
5.4808	23.0495
5.47501	23.2877
5.46923	23.6461
5.46347	24.0025
5.45772	24.0521
5.45198	24.1761
5.44625	24.4846
5.44054	24.7067
5.43484	24.8887
5.42914	25.2775
5.42347	25.9252
5.4178	26.006
5.41214	25.9587
5.4065	26.1009
5.40087	26.2385
5.39525	26.4927
5.38964	26.7721
5.38404	26.9137
5.37846	27.0806
5.37288	27.2724
5.36732	27.4939
5.36177	27.7038
5.35623	27.9798
5.35071	28.3097
5.34519	28.266
5.33968	28.1806
5.33419	28.3012
5.32871	28.5183
5.32324	28.7004
5.31778	28.8471
5.31233	29.0443
5.30689	29.2057
5.30147	29.4216
5.29605	29.7035
5.29065	29.9587
5.28525	30.0762
5.27987	30.2649
5.2745	30.4661
5.26914	30.7251
5.26379	30.9705
5.25845	31.2304
5.25312	31.5317
5.24781	31.8329
5.2425	32.1289
5.23721	32.4916
5.23192	32.8312
5.22665	33.1474
5.22138	33.4879
5.21613	34.0392
5.21089	34.4199
5.20566	34.6882
5.20044	35.1009
5.19522	35.3999
5.19002	35.7369
5.18483	36.1814
5.17965	36.6086
5.17448	36.9913
5.16933	37.3233
5.16418	37.7223
5.15904	38.195
5.15391	38.6867
5.14879	39.2277
5.14368	39.5349
5.13859	39.7886
5.1335	40.1926
5.12842	40.5721
5.12335	40.939
5.1183	41.376
5.11325	41.8687
5.10821	42.3055
5.10318	42.7563
5.09817	43.1912
5.09316	43.6188
5.08816	44.0991
5.08317	44.5307
5.07819	44.8223
5.07322	45.1652
5.06826	45.526
5.06331	45.8187
5.05837	46.085
5.05344	46.4394
5.04852	46.7921
5.04361	47.1165
5.03871	47.3548
5.03382	47.5713
5.02894	47.7951
5.02406	48.0748
5.0192	48.3384
5.01435	48.4657
5.0095	48.5957
5.00467	48.7364
4.99984	48.7716
4.99502	48.8781
4.99021	49.0096
4.98542	49.1727
4.98063	49.304
4.97585	49.4188
4.97108	49.5133
4.96632	49.5579
4.96156	49.5922
4.95682	49.6426
4.95209	49.5077
4.94736	49.431
4.94264	49.4088
4.93794	49.2958
4.93324	49.1768
4.92855	49.1391
4.92387	49.0378
4.9192	48.8727
4.91453	48.7711
4.90988	48.7469
4.90524	48.7084
4.9006	48.7095
4.89597	48.7105
4.89135	48.6782
4.88674	48.6615
4.88214	48.7155
4.87755	48.7221
4.87296	48.708
4.86839	48.7433
4.86382	48.7996
4.85926	48.8551
4.85471	48.9081
4.85017	48.9756
4.84564	49.0452
4.84111	49.0576
4.8366	49.139
4.83209	49.1856
4.82759	49.207
4.8231	49.2433
4.81862	49.1636
4.81415	49.1618
4.80968	49.2322
4.80522	49.2426
4.80077	49.1912
4.79633	49.1434
4.7919	49.1826
4.78747	49.161
4.78306	49.1072
4.77865	49.1254
4.77425	49.2166
4.76986	49.2455
4.76547	49.3374
4.7611	49.4759
4.75673	49.5282
4.75237	49.5848
4.74802	49.6867
4.74367	49.7111
4.73934	49.748
4.73501	49.8366
4.73069	49.9171
4.72638	49.9284
4.72207	49.8896
4.71777	49.8749
4.71348	49.9665
4.7092	50.0233
4.70493	50.0199
4.70066	50.0856
4.69641	50.1956
4.69216	50.2435
4.68791	50.346
4.68368	50.415
4.67945	50.4562
4.67523	50.4914
4.67102	50.5995
4.66682	50.7204
4.66262	50.7906
4.65843	50.8802
4.65425	51.0632
4.65007	51.265
4.64591	51.4221
4.64175	51.5424
4.6376	51.6563
4.63345	51.846
4.62932	52.0843
4.62519	52.2883
4.62106	52.4582
4.61695	52.6179
4.61284	52.8251
4.60874	53.0414
4.60465	53.2723
4.60056	53.5351
4.59648	53.7791
4.59241	53.9991
4.58835	54.2084
4.58429	54.4437
4.58024	54.7148
4.5762	54.9908
4.57216	55.2845
4.56814	55.4963
4.56411	55.734
4.5601	56.0377
4.55609	56.3509
4.55209	56.5748
4.5481	56.828
4.54411	57.1415
4.54013	57.4121
4.53616	57.6588
4.5322	57.9441
4.52824	58.2288
4.52429	58.5418
4.52034	58.8736
4.51641	59.11
4.51247	59.3313
4.50855	59.6008
4.50463	59.8403
4.50072	60.0208
4.49682	60.2865
4.49292	60.6091
4.48903	60.8497
4.48515	61.0566
4.48127	61.3165
4.4774	61.6112
4.47354	61.8625
4.46968	62.0934
4.46584	62.287
4.46199	62.5326
4.45815	62.799
4.45432	63.04
4.4505	63.2281
4.44668	63.4354
4.44287	63.7066
4.43907	63.9372
4.43527	64.1157
4.43148	64.3639
4.4277	64.6124
4.42392	64.7848
4.42015	64.984
4.41638	65.1924
4.41262	65.3721
4.40887	65.6337
4.40513	65.9034
4.40139	66.1392
4.39765	66.3042
4.39393	66.5017
4.39021	66.7164
4.38649	66.9192
4.38278	67.1404
4.37908	67.3534
4.37539	67.5433
4.3717	67.7704
4.36801	67.9746
4.36434	68.1721
4.36067	68.4171
4.357	68.6532
4.35335	68.8938
4.34969	69.1277
4.34605	69.3576
4.34241	69.569
4.33877	69.7613
4.33514	70.0108
4.33152	70.2148
4.32791	70.467
4.3243	70.7262
4.32069	71.02
4.3171	71.2629
4.31351	71.5213
4.30992	71.731
4.30634	71.9766
4.30277	72.2148
4.2992	72.5068
4.29564	72.7382
4.29208	72.9774
4.28853	73.1817
4.28499	73.3381
4.28145	73.5077
4.27792	73.7076
4.27439	73.8374
4.27087	73.9365
4.26735	74.0119
4.26384	74.0776
4.26034	74.0321
4.25684	74.0921
4.25335	74.3745
4.24986	74.6839
4.24638	74.9936
4.24291	75.2798
4.23944	75.4576
4.23598	75.6375
4.23252	75.7619
4.22906	75.8192
4.22562	75.8181
4.22218	75.7565
4.21874	75.7335
4.21531	75.733
4.21189	75.677
4.20847	75.6239
4.20506	75.6117
4.20165	75.6287
4.19825	75.6768
4.19485	75.7234
4.19146	75.7291
4.18807	75.8095
4.18469	75.9048
4.18132	75.9551
4.17795	75.9706
4.17458	76.0026
4.17123	76.101
4.16787	76.1767
4.16453	76.2382
4.16118	76.3152
4.15785	76.348
4.15451	76.3299
4.15119	76.3382
4.14787	76.4111
4.14455	76.4675
4.14124	76.5144
4.13794	76.5329
4.13464	76.5677
4.13134	76.6221
4.12805	76.6969
4.12477	76.7114
4.12149	76.704
4.11822	76.7144
4.11495	76.7499
4.11168	76.7729
4.10843	76.7163
4.10517	76.7642
4.10192	76.8391
4.09868	76.8669
4.09545	76.9538
4.09221	76.9493
4.08899	76.8637
4.08576	76.9024
4.08255	76.9682
4.07933	77.0275
4.07613	77.0742
4.07292	77.0483
4.06973	77.0573
4.06654	77.0761
4.06335	77.0568
4.06017	77.0266
4.05699	77.0259
4.05382	77.0318
4.05065	77.0286
4.04749	77.0121
4.04433	77.0458
4.04118	77.0539
4.03803	77.0165
4.03489	77.0237
4.03175	77.0423
4.02862	76.9955
4.02549	76.9557
4.02237	76.9417
4.01925	76.8848
4.01614	76.7839
4.01303	76.761
4.00993	76.7576
4.00683	76.7793
4.00373	76.6926
4.00064	76.6123
3.99756	76.6025
3.99448	76.5793
3.9914	76.4961
3.98833	76.4176
3.98527	76.3569
3.98221	76.3539
3.97915	76.3375
3.9761	76.3233
3.97305	76.3355
3.97001	76.3784
3.96697	76.3818
3.96394	76.4372
3.96091	76.5155
3.95789	76.6073
3.95487	76.6704
3.95186	76.7405
3.94885	76.7725
3.94584	76.785
3.94284	76.8543
3.93984	76.8981
3.93685	76.9812
3.93386	77.0497
3.93088	77.0643
3.9279	77.1124
3.92493	77.1676
3.92196	77.2248
3.919	77.262
3.91604	77.2332
3.91308	77.2081
3.91013	77.2697
3.90718	77.2779
3.90424	77.3048
3.9013	77.3669
3.89837	77.4259
3.89544	77.4438
3.89252	77.4726
3.8896	77.505
3.88668	77.5267
3.88377	77.4844
3.88086	77.4521
3.87796	77.4647
3.87506	77.5141
3.87217	77.5155
3.86928	77.493
3.86639	77.5544
3.86351	77.6003
3.86064	77.6434
3.85776	77.6399
3.8549	77.5737
3.85203	77.6456
3.84917	77.6683
3.84631	77.6534
3.84346	77.7239
3.84062	77.813
3.83777	77.8543
3.83494	77.8415
3.8321	77.7669
3.82927	77.7829
3.82644	77.8611
3.82362	77.8797
3.82081	77.8547
3.81799	77.8925
3.81518	77.9726
3.81238	78.0097
3.80958	78.0216
3.80678	78.0125
3.80399	77.9664
3.8012	78.04
3.79841	78.097
3.79563	78.0755
3.79286	78.1042
3.79008	78.1559
3.78731	78.1907
3.78455	78.221
3.78179	78.1794
3.77903	78.159
3.77628	78.2124
3.77353	78.2237
3.77079	78.2011
3.76805	78.1846
3.76531	78.2004
3.76258	78.1721
3.75985	78.0881
3.75713	78.0534
3.7544	78.1165
3.75169	78.1743
3.74898	78.1743
3.74627	78.1982
3.74356	78.1987
3.74086	78.1854
3.73816	78.133
3.73547	78.0727
3.73278	78.1033
3.7301	78.0972
3.72741	78.1003
3.72474	78.0643
3.72206	78.0704
3.71939	78.1033
3.71673	78.0625
3.71406	78.0344
3.71141	78.0605
3.70875	78.0745
3.7061	78.0007
3.70345	78.0203
3.70081	78.0015
3.69817	77.9814
3.69553	77.9889
3.6929	77.9905
3.69027	77.9845
3.68765	77.9509
3.68503	77.8996
3.68241	77.8767
3.6798	77.8621
3.67719	77.8718
3.67458	77.8873
3.67198	77.8603
3.66938	77.8251
3.66678	77.8166
3.66419	77.7728
3.66161	77.7582
3.65902	77.7331
3.65644	77.7356
3.65387	77.7758
3.65129	77.7471
3.64872	77.6625
3.64616	77.6139
3.64359	77.6403
3.64103	77.6246
3.63848	77.5572
3.63593	77.499
3.63338	77.4464
3.63084	77.4466
3.6283	77.4828
3.62576	77.5193
3.62322	77.5173
3.62069	77.4377
3.61817	77.3567
3.61564	77.3045
3.61312	77.2455
3.61061	77.1939
3.6081	77.1645
3.60559	77.1386
3.60308	77.1386
3.60058	77.1197
3.59808	77.0825
3.59558	77.0214
3.59309	76.9927
3.59061	77.0261
3.58812	77.0134
3.58564	76.9537
3.58316	76.9204
3.58069	76.8429
3.57822	76.7317
3.57575	76.7106
3.57328	76.6941
3.57082	76.712
3.56836	76.7032
3.56591	76.6331
3.56346	76.538
3.56101	76.4681
3.55857	76.4022
3.55613	76.3536
3.55369	76.2909
3.55126	76.2189
3.54883	76.2009
3.5464	76.2126
3.54397	76.0625
3.54155	75.9265
3.53914	75.9392
3.53672	75.9737
3.53431	75.9233
3.5319	75.7697
3.5295	75.6436
3.5271	75.5542
3.5247	75.381
3.52231	75.2255
3.51991	75.0289
3.51753	74.8545
3.51514	74.6727
3.51276	74.4612
3.51038	74.1897
3.50801	73.8979
3.50563	73.7278
3.50327	73.5768
3.5009	73.4151
3.49854	73.3833
3.49618	73.3577
3.49382	73.4178
3.49147	73.5234
3.48912	73.5155
3.48677	73.4573
3.48443	73.473
3.48209	73.486
3.47975	73.4357
3.47742	73.4096
3.47509	73.3873
3.47276	73.3286
3.47044	73.4124
3.46812	73.4554
3.4658	73.4779
3.46348	73.4301
3.46117	73.4255
3.45886	73.3922
3.45656	73.255
3.45425	73.1139
3.45195	73.0737
3.44966	72.9815
3.44736	72.8625
3.44507	72.8336
3.44279	72.6623
3.4405	72.462
3.43822	72.3364
3.43594	72.2136
3.43367	72.0582
3.43139	71.9263
3.42912	71.7281
3.42686	71.3466
3.42459	71.0391
3.42233	70.8287
3.42007	70.5687
3.41782	70.3831
3.41557	70.374
3.41332	70.4054
3.41108	70.5455
3.40883	70.6509
3.40659	70.7366
3.40435	70.8083
3.40212	70.9067
3.39989	71.0363
3.39766	71.1659
3.39544	71.2444
3.39322	71.3037
3.391	71.3962
3.38878	71.3533
3.38657	71.3052
3.38436	71.3085
3.38215	71.2625
3.37994	71.2054
3.37774	71.0991
3.37554	71.0999
3.37335	71.1724
3.37115	71.2102
3.36896	71.2786
3.36678	71.3105
3.36459	71.3675
3.36241	71.4476
3.36023	71.4792
3.35805	71.5241
3.35588	71.5887
3.35371	71.6029
3.35154	71.6038
3.34938	71.5691
3.34721	71.5402
3.34505	71.4779
3.3429	71.4719
3.34074	71.5356
3.33859	71.5424
3.33644	71.5877
3.3343	71.6246
3.33215	71.6053
3.33001	71.5644
3.32788	71.4859
3.32574	71.3644
3.32361	71.3517
3.32148	71.4216
3.31936	71.4248
3.31723	71.4866
3.31511	71.5708
3.31299	71.3988
3.31088	71.165
3.30876	71.1423
3.30665	71.1076
3.30455	71.0613
3.30244	71.0503
3.30034	70.9913
3.29824	70.9412
3.29614	70.9092
3.29405	70.8276
3.29196	70.6955
3.28987	70.611
3.28778	70.5912
3.2857	70.5207
3.28362	70.4503
3.28154	70.4888
3.27946	70.4354
3.27739	70.3667
3.27532	70.2556
3.27325	70.1467
3.27119	70.0847
3.26913	70.0256
3.26707	69.9404
3.26501	69.9443
3.26295	69.9099
3.2609	69.8587
3.25885	69.7821
3.2568	69.7399
3.25476	69.6625
3.25272	69.5977
3.25068	69.4934
3.24864	69.3838
3.24661	69.3321
3.24458	69.383
3.24255	69.4467
3.24052	69.4108
3.2385	69.2838
3.23648	69.1339
3.23446	69.0258
3.23244	68.9959
3.23043	69.047
3.22841	68.9849
3.2264	68.9212
3.2244	68.8511
3.22239	68.717
3.22039	68.6467
3.21839	68.668
3.2164	68.6491
3.2144	68.6246
3.21241	68.549
3.21042	68.348
3.20844	68.2735
3.20645	68.2976
3.20447	68.29
3.20249	68.2481
3.20051	68.2871
3.19854	68.3136
3.19657	68.1964
3.1946	68.1327
3.19263	68.0562
3.19067	67.8311
3.1887	67.7607
3.18674	67.7623
3.18479	67.7376
3.18283	67.7108
3.18088	67.6791
3.17893	67.6159
3.17698	67.5783
3.17504	67.4972
3.17309	67.4221
3.17115	67.4209
3.16921	67.3197
3.16728	67.1465
3.16534	67.1221
3.16341	67.1111
3.16148	67.0093
3.15956	67.028
3.15763	67.0307
3.15571	66.922
3.15379	66.9046
3.15187	66.9018
3.14996	66.7092
3.14805	66.6193
3.14614	66.6902
3.14423	66.7439
3.14232	66.6345
3.14042	66.4744
3.13852	66.3808
3.13662	66.3619
3.13472	66.2677
3.13283	66.2057
3.13094	66.2685
3.12905	66.2177
3.12716	66.1304
3.12528	66.0944
3.12339	66.0775
3.12151	66.0324
3.11964	65.9273
3.11776	65.8269
3.11589	65.8755
3.11401	65.7939
3.11214	65.6539
3.11028	65.6702
3.10841	65.6458
3.10655	65.6088
3.10469	65.5473
3.10283	65.4503
3.10098	65.4329
3.09912	65.4333
3.09727	65.3889
3.09542	65.3434
3.09358	65.268
3.09173	65.249
3.08989	65.169
3.08805	65.0694
3.08621	65.0417
3.08437	65.0374
3.08254	65.021
3.08071	65.0137
3.07888	65.0131
3.07705	64.9631
3.07523	64.9308
3.0734	64.9029
3.07158	64.9244
3.06977	64.9617
3.06795	64.9234
3.06613	64.8294
3.06432	64.7763
3.06251	64.8059
3.0607	64.7238
3.0589	64.6302
3.0571	64.6524
3.05529	64.6183
3.05349	64.5315
3.0517	64.47
3.0499	64.5219
3.04811	64.573
3.04632	64.5428
3.04453	64.4431
3.04274	64.4658
3.04096	64.4227
3.03918	64.3366
3.0374	64.3072
3.03562	64.1989
3.03384	64.2161
3.03207	64.2286
3.03029	64.2251
3.02852	64.3054
3.02676	64.297
3.02499	64.142
3.02323	64.1402
3.02146	64.1527
3.0197	64.1324
3.01795	64.1424
3.01619	64.1302
3.01444	64.0997
3.01269	63.9618
3.01094	63.7818
3.00919	63.7621
3.00744	63.8134
3.0057	63.8666
3.00396	63.8633
3.00222	63.8021
3.00048	63.7874
2.99875	63.7075
2.99701	63.55
2.99528	63.4695
2.99355	63.4686
2.99183	63.5321
2.9901	63.5602
2.98838	63.4934
2.98666	63.5361
2.98494	63.6191
2.98322	63.4953
2.9815	63.3662
2.97979	63.3622
2.97808	63.3113
2.97637	63.2303
2.97466	63.2179
2.97295	63.2644
2.97125	63.3286
2.96955	63.3145
2.96785	63.1638
2.96615	63.1837
2.96446	63.2816
2.96276	63.2172
2.96107	63.0715
2.95938	63.1014
2.95769	63.1558
2.95601	63.1022
2.95432	63.1891
2.95264	63.1615
2.95096	63.0659
2.94928	63.0594
2.9476	63.0734
2.94593	63.1433
2.94425	63.1613
2.94258	63.0251
2.94092	62.985
2.93925	63.0539
2.93758	63.0702
2.93592	63.0391
2.93426	62.9492
2.9326	62.9569
2.93094	62.9932
2.92928	63.0879
2.92763	63.211
2.92598	63.1754
2.92433	63.1043
2.92268	63.1306
2.92103	63.1792
2.91939	63.1768
2.91775	63.1748
2.9161	63.1579
2.91447	63.1097
2.91283	63.0741
2.91119	63.1631
2.90956	63.1933
2.90793	63.2119
2.9063	63.2638
2.90467	63.2846
2.90304	63.3249
2.90142	63.372
2.89979	63.3408
2.89817	63.1845
2.89656	63.1597
2.89494	63.2731
2.89332	63.3206
2.89171	63.2724
2.8901	63.2486
2.88849	63.3373
2.88688	63.4308
2.88527	63.5596
2.88367	63.5597
2.88206	63.3797
2.88046	63.3605
2.87886	63.437
2.87727	63.5835
2.87567	63.7441
2.87408	63.751
2.87248	63.761
2.87089	63.8849
2.8693	63.9191
2.86772	63.9239
2.86613	63.9789
2.86455	63.968
2.86297	63.8829
2.86139	63.8822
2.85981	64.0059
2.85823	64.1409
2.85666	64.2494
2.85508	64.3884
2.85351	64.4673
2.85194	64.4378
2.85038	64.4692
2.84881	64.4367
2.84724	64.3935
2.84568	64.412
2.84412	64.4845
2.84256	64.6329
2.841	64.752
2.83945	64.8461
2.83789	64.9983
2.83634	64.9758
2.83479	64.9917
2.83324	64.9627
2.83169	64.9714
2.83015	65.0848
2.82861	65.1558
2.82706	65.2531
2.82552	65.3547
2.82398	65.3643
2.82245	65.4844
2.82091	65.7506
2.81938	65.817
2.81784	65.5585
2.81631	65.631
2.81479	65.8444
2.81326	65.8777
2.81173	65.8245
2.81021	65.9845
2.80869	66.1377
2.80716	66.133
2.80565	66.3937
2.80413	67.0101
2.80261	67.1474
2.8011	66.7134
2.79959	66.5997
2.79808	66.5629
2.79657	66.6547
2.79506	66.6625
2.79355	66.78
2.79205	66.8287
2.79055	66.9681
2.78904	67.4479
2.78754	68.0412
2.78605	67.7537
2.78455	67.2892
2.78306	67.5626
2.78156	67.7594
2.78007	67.575
2.77858	67.6423
2.77709	67.8812
2.77561	67.9954
2.77412	68.3134
2.77264	68.7539
2.77116	69.2645
2.76968	69.1549
2.7682	69.128
2.76672	69.2062
2.76524	69.2339
2.76377	69.7639
2.7623	69.9989
2.76083	69.5679
2.75936	69.5563
2.75789	70.1619
2.75642	71.8439
2.75496	72.6882
2.7535	71.5763
2.75203	71.4363
2.75057	71.6822
2.74912	71.8819
2.74766	72.012
2.7462	72.3544
2.74475	72.6876
2.7433	73.2984
2.74185	74.8441
2.7404	76.023
2.73895	75.7689
2.7375	74.6841
2.73606	74.9064
2.73462	75.5443
2.73318	75.1713
2.73174	75.1808
2.7303	75.406
2.72886	75.6242
2.72742	76.1691
2.72599	77.4029
2.72456	78.5766
2.72313	78.0725
2.7217	78.8412
2.72027	80.0543
2.71884	78.7283
2.71742	78.0364
2.71599	77.7348
2.71457	77.7139
2.71315	78.0153
2.71173	79.3933
2.71032	79.8239
2.7089	79.0165
2.70748	78.3209
2.70607	78.1046
2.70466	78.123
2.70325	78.4696
2.70184	79.2894
2.70043	79.6069
2.69903	79.6686
2.69762	80.1848
2.69622	81.2014
2.69482	82.3831
2.69342	82.7106
2.69202	81.7738
2.69062	81.4536
2.68923	81.6969
2.68783	82.0417
2.68644	82.4439
2.68505	82.532
2.68366	82.6135
2.68227	82.435
2.68089	82.7705
2.6795	84.0598
2.67812	84.6581
2.67673	85.0969
2.67535	84.3264
2.67397	83.6248
2.6726	84.0777
2.67122	86.4169
2.66984	86.9313
2.66847	85.6306
2.6671	86.8342
2.66572	87.2997
2.66435	86.2837
2.66299	84.8857
2.66162	84.8872
2.66025	85.0595
2.65889	84.8567
2.65753	84.3837
2.65616	84.8215
2.65481	84.9072
2.65345	85.1483
2.65209	85.321
2.65073	84.7327
2.64938	84.4531
2.64803	84.5855
2.64667	84.8421
2.64532	84.9562
2.64397	84.5783
2.64263	84.7267
2.64128	84.7796
2.63994	84.6811
2.63859	84.5671
2.63725	84.5833
2.63591	84.7249
2.63457	85.2691
2.63323	85.2952
2.6319	85.7306
2.63056	86.9419
2.62923	86.0164
2.62789	85.6811
2.62656	86.3058
2.62523	85.1627
2.6239	84.5379
2.62258	84.753
2.62125	86.1296
2.61993	86.6057
2.6186	86.0431
2.61728	87.0289
2.61596	86.4499
2.61464	85.2073
2.61332	85.2932
2.61201	85.1503
2.61069	85.3744
2.60938	85.6852
2.60807	85.6816
2.60675	86.3695
2.60544	87.1727
2.60414	86.4007
2.60283	85.5853
2.60152	85.3894
2.60022	85.1399
2.59891	84.8722
2.59761	85.3002
2.59631	87.0654
2.59501	89.3394
2.59371	87.6159
2.59242	85.4724
2.59112	85.0535
2.58983	85.2869
2.58853	85.8211
2.58724	86.2023
2.58595	85.6966
2.58466	86.3425
2.58338	86.4769
2.58209	85.6902
2.5808	85.6453
2.57952	85.0321
2.57824	85.2749
2.57695	85.8324
2.57567	85.416
2.5744	85.6375
2.57312	86.0622
2.57184	85.2725
2.57057	85.5746
2.56929	85.7555
2.56802	85.0728
2.56675	84.8011
2.56548	85.4273
2.56421	86.1751
2.56294	86.282
2.56168	86.3212
2.56041	85.8384
2.55915	85.0337
2.55789	84.7101
2.55662	84.7511
2.55536	84.7614
2.5541	85.0296
2.55285	85.5341
2.55159	85.4838
2.55034	85.2468
2.54908	85.1101
2.54783	85.2653
2.54658	85.1487
2.54533	85.0417
2.54408	85.0562
2.54283	85.0343
2.54159	84.822
2.54034	84.7621
2.5391	84.8334
2.53785	84.9701
2.53661	85.1639
2.53537	85.0809
2.53413	84.9503
2.53289	85.1345
2.53166	85.1557
2.53042	85.0189
2.52919	84.8334
2.52795	84.7823
2.52672	84.752
2.52549	84.7826
2.52426	84.9352
2.52303	85.0012
2.52181	84.9226
2.52058	84.8604
2.51936	84.8945
2.51813	84.9288
2.51691	84.8978
2.51569	84.8197
2.51447	84.8472
2.51325	84.8566
2.51203	84.833
2.51082	84.8176
2.5096	84.7225
2.50839	84.7635
2.50717	84.9143
2.50596	84.9559
2.50475	84.9553
2.50354	84.9707
2.50233	84.9085
2.50113	84.8514
2.49992	84.9121
2.49872	84.9487
2.49751	84.9053
2.49631	84.8441
2.49511	84.8064
2.49391	84.886
2.49271	84.9423
2.49151	84.9817
2.49031	84.9817
2.48912	84.9682
2.48792	84.9021
2.48673	84.8382
2.48554	84.8419
2.48435	84.9111
2.48316	85.075
2.48197	85.1362
2.48078	85.0511
2.4796	84.9225
2.47841	84.8863
2.47723	85.0305
2.47604	85.0871
2.47486	85.0467
2.47368	85.11
2.4725	85.1196
2.47132	85.0573
2.47014	85.0849
2.46897	85.0893
2.46779	85.0049
2.46662	85.0076
2.46545	85.0078
2.46427	85.0515
2.4631	85.0712
2.46193	85.0846
2.46077	84.9736
2.4596	84.8917
2.45843	84.9319
2.45727	85.0798
2.4561	85.0948
2.45494	84.9568
2.45378	84.9812
2.45262	85.1439
2.45146	85.1915
2.4503	85.152
2.44914	85.1359
2.44799	85.1982
2.44683	85.1829
2.44568	85.0961
2.44452	85.0466
2.44337	85.0471
2.44222	85.1496
2.44107	85.1929
2.43992	85.1604
2.43877	85.1912
2.43763	85.1707
2.43648	85.1982
2.43534	85.2028
2.43419	85.1488
2.43305	85.1831
2.43191	85.1765
2.43077	85.2139
2.42963	85.2518
2.42849	85.217
2.42736	85.2224
2.42622	85.1607
2.42509	85.1509
2.42395	85.2685
2.42282	85.3574
2.42169	85.3526
2.42056	85.3014
2.41943	85.3514
2.4183	85.3658
2.41717	85.3404
2.41605	85.3112
2.41492	85.2394
2.4138	85.2513
2.41267	85.2494
2.41155	85.1597
2.41043	85.1805
2.40931	85.2494
2.40819	85.3144
2.40707	85.432
2.40595	85.501
2.40484	85.4445
2.40372	85.3859
2.40261	85.3863
2.4015	85.353
2.40039	85.3112
2.39928	85.3551
2.39817	85.3863
2.39706	85.297
2.39595	85.2773
2.39484	85.3679
2.39374	85.3015
2.39263	85.2452
2.39153	85.3995
2.39043	85.3751
2.38932	85.2942
2.38822	85.3104
2.38712	85.377
2.38603	85.5299
2.38493	85.565
2.38383	85.528
2.38274	85.413
2.38164	85.2671
2.38055	85.2749
2.37946	85.3399
2.37836	85.4161
2.37727	85.485
2.37618	85.4991
2.3751	85.6338
2.37401	85.6866
2.37292	85.6269
2.37184	85.5916
2.37075	85.5397
2.36967	85.4419
2.36859	85.3863
2.3675	85.4688
2.36642	85.458
2.36534	85.43
2.36427	85.5015
2.36319	85.4953
2.36211	85.4853
2.36104	85.4786
2.35996	85.4616
2.35889	85.4457
2.35781	85.4279
2.35674	85.4561
2.35567	85.4284
2.3546	85.418
2.35353	85.494
2.35247	85.5388
2.3514	85.5277
2.35033	85.4954
2.34927	85.4814
2.3482	85.4979
2.34714	85.5377
2.34608	85.4805
2.34502	85.4089
2.34396	85.4165
2.3429	85.3819
2.34184	85.383
2.34078	85.4464
2.33973	85.557
2.33867	85.5307
2.33762	85.438
2.33656	85.4133
2.33551	85.4302
2.33446	85.4489
2.33341	85.3958
2.33236	85.2347
2.33131	85.2992
2.33026	85.4966
2.32922	85.5953
2.32817	85.557
2.32712	85.4758
2.32608	85.4506
2.32504	85.4553
2.324	85.4704
2.32295	85.439
2.32191	85.5047
2.32087	85.5331
2.31984	85.5277
2.3188	85.5181
2.31776	85.3668
2.31673	85.2665
2.31569	85.327
2.31466	85.4746
2.31362	85.5316
2.31259	85.5705
2.31156	85.5065
2.31053	85.3916
2.3095	85.4738
2.30847	85.4274
2.30745	85.3727
2.30642	85.353
2.3054	85.3633
2.30437	85.5348
2.30335	85.5193
2.30232	85.4702
2.3013	85.5209
2.30028	85.5208
2.29926	85.4353
2.29824	85.3579
2.29722	85.2596
2.29621	85.2021
2.29519	85.3099
2.29417	85.4059
2.29316	85.4645
2.29215	85.6059
2.29113	85.5356
2.29012	85.377
2.28911	85.3655
2.2881	85.3911
2.28709	85.3986
2.28608	85.468
2.28507	85.4239
2.28407	85.326
2.28306	85.3251
2.28206	85.4631
2.28105	85.6189
2.28005	85.4602
2.27905	85.3544
2.27805	85.4187
2.27705	85.4379
2.27605	85.5652
2.27505	85.4742
2.27405	85.4094
2.27305	85.385
2.27206	85.3859
2.27106	85.4713
2.27007	85.4699
2.26907	85.4129
2.26808	85.4051
2.26709	85.3861
2.2661	85.4485
2.26511	85.4326
2.26412	85.385
2.26313	85.3789
2.26214	85.3871
2.26116	85.4162
2.26017	85.4141
2.25919	85.3293
2.2582	85.3001
2.25722	85.3115
2.25624	85.3498
2.25526	85.4017
2.25428	85.4382
2.2533	85.4948
2.25232	85.5717
2.25134	85.4837
2.25036	85.3698
2.24939	85.3969
2.24841	85.468
2.24744	85.3718
2.24646	85.3869
2.24549	85.5727
2.24452	85.5005
2.24355	85.3762
2.24257	85.3748
2.24161	85.5033
2.24064	85.5639
2.23967	85.5005
2.2387	85.5342
2.23774	85.585
2.23677	85.585
2.23581	85.5229
2.23484	85.3851
2.23388	85.3626
2.23292	85.601
2.23196	85.6232
2.231	85.4301
2.23004	85.4051
2.22908	85.3922
2.22812	85.4278
2.22716	85.329
2.22621	85.1877
2.22525	85.1846
2.2243	85.4004
2.22334	85.5085
2.22239	85.5232
2.22144	85.5334
2.22049	85.5358
2.21953	85.4872
2.21859	85.466
2.21764	85.481
2.21669	85.4656
2.21574	85.5386
2.21479	85.5759
2.21385	85.6311
2.2129	85.5653
2.21196	85.402
2.21102	85.4085
2.21007	85.5093
2.20913	85.6484
2.20819	85.7292
2.20725	85.7062
2.20631	85.6362
2.20537	85.5168
2.20444	85.4598
2.2035	85.4631
2.20256	85.4195
2.20163	85.41
2.20069	85.5091
2.19976	85.5432
2.19883	85.5168
2.19789	85.6307
2.19696	85.8158
2.19603	85.6414
2.1951	85.4695
2.19417	85.474
2.19325	85.5426
2.19232	85.5656
2.19139	85.5795
2.19047	85.6094
2.18954	85.6343
2.18862	85.6516
2.18769	85.6105
2.18677	85.6149
2.18585	85.6715
2.18493	85.6257
2.18401	85.6569
2.18309	85.6434
2.18217	85.6435
2.18125	85.6787
2.18033	85.6781
2.17942	85.677
2.1785	85.6223
2.17759	85.6283
2.17667	85.7063
2.17576	85.7483
2.17485	85.7372
2.17393	85.733
2.17302	85.6292
2.17211	85.5919
2.1712	85.584
2.17029	85.6374
2.16939	85.765
2.16848	85.7416
2.16757	85.8479
2.16667	85.8402
2.16576	85.6226
2.16486	85.6216
2.16395	85.783
2.16305	85.8703
2.16215	85.8064
2.16125	85.8388
2.16035	85.9083
2.15945	85.9179
2.15855	85.7301
2.15765	85.6752
2.15675	85.814
2.15586	85.8301
2.15496	85.8218
2.15406	85.772
2.15317	85.6724
2.15228	85.6974
2.15138	85.7745
2.15049	85.6431
2.1496	85.5338
2.14871	85.6697
2.14782	85.8377
2.14693	85.8532
2.14604	85.7625
2.14515	85.6389
2.14427	85.565
2.14338	85.6057
2.14249	85.6896
2.14161	85.7958
2.14072	85.9241
2.13984	85.9777
2.13896	85.9625
2.13808	85.9297
2.13719	85.8082
2.13631	85.7556
2.13543	85.7905
2.13455	85.7571
2.13368	85.8357
2.1328	86.0078
2.13192	86.0054
2.13105	85.781
2.13017	85.8337
2.1293	86.0598
2.12842	86.071
2.12755	86.0176
2.12668	85.9578
2.1258	85.7834
2.12493	85.7715
2.12406	85.8554
2.12319	85.9113
2.12232	85.835
2.12145	85.8306
2.12059	85.9093
2.11972	85.976
2.11885	85.8626
2.11799	85.8395
2.11712	85.9062
2.11626	85.9304
2.1154	85.8931
2.11453	85.8183
2.11367	85.7884
2.11281	85.8894
2.11195	85.9443
2.11109	86.0484
2.11023	85.9268
2.10937	85.8298
2.10851	86.0098
2.10766	86.0592
2.1068	85.8822
2.10594	85.7452
2.10509	85.7171
2.10423	85.7051
2.10338	85.6416
2.10253	85.716
2.10168	85.9319
2.10082	86.0583
2.09997	85.8935
2.09912	85.829
2.09827	85.9468
2.09742	85.9601
2.09658	85.8537
2.09573	85.9186
2.09488	86.0048
2.09404	85.8549
2.09319	85.6909
2.09235	85.6849
2.0915	85.6635
2.09066	85.7817
2.08982	85.8379
2.08897	85.8175
2.08813	85.934
2.08729	85.8953
2.08645	85.7376
2.08561	85.9252
2.08477	85.9938
2.08394	85.958
2.0831	85.9974
2.08226	85.9575
2.08143	85.8605
2.08059	85.9857
2.07976	86.0421
2.07892	85.8496
2.07809	85.8053
2.07726	85.8761
2.07643	85.9475
2.07559	85.842
2.07476	85.7777
2.07393	85.8143
2.0731	85.631
2.07228	85.496
2.07145	85.7227
2.07062	86.0515
2.06979	86.042
2.06897	86.0394
2.06814	86.1091
2.06732	85.9397
2.06649	85.7452
2.06567	85.7157
2.06485	85.9448
2.06403	86.25
2.0632	86.1817
2.06238	86.0514
2.06156	86.0657
2.06074	85.922
2.05993	86.0421
2.05911	86.0089
2.05829	85.7545
2.05747	85.6221
2.05666	85.547
2.05584	85.6887
2.05503	85.7634
2.05421	85.7355
2.0534	85.9319
2.05259	86.199
2.05177	86.1635
2.05096	85.9336
2.05015	85.7492
2.04934	85.9107
2.04853	86.0085
2.04772	85.9166
2.04691	85.8616
2.04611	85.921
2.0453	86.0199
2.04449	86.075
2.04369	86.0047
2.04288	85.9556
2.04208	85.9265
2.04127	85.9002
2.04047	85.9153
2.03967	85.9767
2.03886	86.0168
2.03806	86.0516
2.03726	85.9233
2.03646	85.7802
2.03566	85.7729
2.03486	85.8704
2.03407	85.8995
2.03327	85.8711
2.03247	85.9575
2.03167	86.0108
2.03088	85.9351
2.03008	85.9174
2.02929	86.0194
2.0285	86.0174
2.0277	85.9569
2.02691	86.0402
2.02612	85.9586
2.02533	85.954
2.02453	86.1019
2.02374	86.1018
2.02295	85.9336
2.02217	85.8408
2.02138	85.7808
2.02059	85.7149
2.0198	85.7887
2.01902	85.9484
2.01823	86.0018
2.01744	85.9541
2.01666	85.8634
2.01588	85.8765
2.01509	85.8578
2.01431	85.8889
2.01353	85.8236
2.01275	85.9991
2.01196	86.0068
2.01118	85.9163
2.0104	85.8416
2.00963	85.9173
2.00885	86.0674
2.00807	86.0837
2.00729	85.8576
2.00651	85.9395
2.00574	85.9913
2.00496	85.841
2.00419	85.7373
2.00341	85.8058
2.00264	85.7813
2.00187	85.8416
2.00109	86.0391
2.00032	85.9859
