Name: Dolomite CaMg(CO_3)_2
Type: Mineral
Class: Carbonates
Subclass: 
Particle Size: 0-45um
Sample No.: C-5C
Owner: JPL
Wavelength range: IR
Origin: USA, California, Los Angeles County, Palos Verdes
Collected by Burminco
Description: 





Measurement: Hemispherical reflectance
First Column: X
Second Column: Y
X Units:  Wavelength (micrometers)
Y Units:  Reflectance (percent)
First X Value: 15.3853
Last X Value: 2.00032
Number of X Values: 2256
Additional information: c05ca.txt
 
15.3853	16.3975
15.3397	16.6656
15.2945	16.8361
15.2495	16.9908
15.2048	17.2289
15.1603	17.5169
15.1161	17.7218
15.0722	18.3679
15.0285	19.0585
14.9851	19.5589
14.9419	19.942
14.8989	20.133
14.8563	20.3987
14.8138	20.9196
14.7716	21.1687
14.7296	21.2884
14.6879	21.5156
14.6464	21.6553
14.6052	21.762
14.5641	21.7885
14.5233	21.8066
14.4828	21.8175
14.4424	21.9464
14.4023	22.1044
14.3624	22.0287
14.3227	21.947
14.2833	21.5576
14.244	20.8866
14.205	20.1042
14.1662	19.2436
14.1276	18.3524
14.0892	17.1779
14.051	15.759
14.0131	14.4122
13.9753	12.87
13.9377	11.1771
13.9004	9.53571
13.8632	7.83705
13.8262	6.06234
13.7895	4.67614
13.7529	3.85694
13.7165	2.93658
13.6803	1.93678
13.6443	1.75021
13.6085	2.66623
13.5729	4.51971
13.5374	7.03394
13.5022	9.97019
13.4671	13.0078
13.4322	15.9143
13.3975	18.807
13.363	21.6292
13.3286	24.3883
13.2944	26.9587
13.2604	29.2053
13.2266	31.2093
13.193	33.1121
13.1595	34.7134
13.1262	36.059
13.093	37.2304
13.06	38.3339
13.0272	39.2763
12.9946	40.0094
12.9621	40.5528
12.9298	41.109
12.8976	41.5885
12.8656	41.8892
12.8337	42.1061
12.8021	42.3357
12.7705	42.6569
12.7391	43.1604
12.7079	43.5954
12.6769	43.8752
12.6459	44.1995
12.6152	44.5604
12.5845	44.8727
12.5541	45.0988
12.5238	45.267
12.4936	45.5608
12.4635	45.7499
12.4337	45.8335
12.4039	45.9385
12.3743	46.1415
12.3448	46.2859
12.3155	46.3066
12.2863	46.2863
12.2573	46.323
12.2284	46.3048
12.1996	46.178
12.171	46.0485
12.1425	45.8865
12.1141	45.7051
12.0859	45.3836
12.0578	45.0916
12.0298	44.7497
12.0019	44.1786
11.9742	43.7214
11.9466	43.344
11.9192	42.8872
11.8918	42.0914
11.8646	41.0676
11.8375	39.3707
11.8106	36.5375
11.7837	31.7229
11.757	24.1447
11.7304	16.4182
11.7039	18.3665
11.6776	26.1642
11.6513	29.0151
11.6252	27.9379
11.5992	25.505
11.5733	22.5038
11.5475	19.0392
11.5219	15.6473
11.4963	12.5698
11.4709	10.2012
11.4455	8.61714
11.4203	7.93394
11.3952	7.80665
11.3702	8.2294
11.3454	9.10828
11.3206	10.2053
11.2959	11.5497
11.2714	13.2773
11.2469	15.5771
11.2226	19.0737
11.1983	23.9756
11.1742	29.7603
11.1502	34.8382
11.1263	37.2103
11.1024	37.1552
11.0787	36.7033
11.0551	36.6337
11.0316	36.7999
11.0081	36.9969
10.9848	37.3232
10.9616	37.6456
10.9385	37.9805
10.9154	38.2274
10.8925	38.5268
10.8697	38.7327
10.8469	38.8933
10.8243	38.9937
10.8017	38.9516
10.7793	39.0834
10.7569	39.3849
10.7346	39.6155
10.7125	39.8321
10.6904	40.0311
10.6684	40.0249
10.6465	39.9322
10.6247	39.7539
10.6029	39.6112
10.5813	39.667
10.5597	39.566
10.5383	39.4758
10.5169	39.5445
10.4956	39.5935
10.4744	39.7375
10.4533	40.0779
10.4323	40.3529
10.4113	40.4046
10.3904	40.3666
10.3697	40.1651
10.349	39.8451
10.3284	39.5176
10.3078	39.2188
10.2874	39.1275
10.267	39.207
10.2467	39.2565
10.2265	39.1045
10.2064	39.0368
10.1863	39.1008
10.1663	39.1454
10.1464	39.1082
10.1266	38.9467
10.1069	38.7378
10.0872	38.5168
10.0676	38.3789
10.0481	38.319
10.0287	38.4721
10.0093	38.633
9.99005	38.593
9.97084	38.3636
9.95169	38.1527
9.93263	38.0646
9.91364	37.8902
9.89472	37.6579
9.87587	37.3505
9.8571	37.15
9.83839	37.0387
9.81976	36.8358
9.80119	36.3205
9.78271	35.2921
9.76428	34.0631
9.74592	33.1127
9.72764	32.2697
9.70943	31.5898
9.69128	31.0283
9.6732	30.1995
9.65518	29.1885
9.63724	28.5372
9.61935	29.0733
9.60155	30.3868
9.5838	31.7259
9.56611	32.9927
9.5485	34.162
9.53094	35.276
9.51345	36.1149
9.49604	36.5604
9.47867	36.5954
9.46137	36.3247
9.44414	35.9566
9.42697	35.479
9.40986	34.9826
9.39281	34.282
9.37583	33.3064
9.35891	32.0998
9.34204	30.868
9.32524	29.6311
9.3085	28.175
9.29182	26.8292
9.27519	26.1311
9.25863	26.4144
9.24213	27.2344
9.22568	27.6696
9.2093	27.4106
9.19297	26.8012
9.17669	26.2894
9.16048	26.1426
9.14433	25.73
9.12823	24.3447
9.11218	22.5008
9.0962	21.4507
9.08027	22.5915
9.06439	25.1098
9.04858	27.2737
9.03281	28.5089
9.0171	28.862
9.00145	28.6835
8.98585	28.4325
8.9703	28.5204
8.9548	28.7413
8.93937	28.8296
8.92398	28.9367
8.90865	28.953
8.89337	28.9615
8.87814	28.9217
8.86296	28.9888
8.84784	29.2112
8.83277	29.4551
8.81774	29.6422
8.80277	29.5934
8.78786	29.2015
8.77298	28.516
8.75816	27.8265
8.7434	27.3392
8.72868	27.0822
8.714	26.9091
8.69938	26.8852
8.68481	27.0197
8.67029	27.2808
8.65581	27.6076
8.64139	27.7692
8.62701	27.8466
8.61268	27.8512
8.5984	27.5153
8.58416	26.9529
8.56997	26.414
8.55583	25.7945
8.54174	25.1673
8.52769	24.8582
8.51368	24.5775
8.49973	24.1067
8.48582	23.5635
8.47195	22.9384
8.45813	22.4347
8.44436	22.0619
8.43062	21.6783
8.41693	21.3116
8.4033	21.085
8.3897	21.1684
8.37614	21.3524
8.36264	21.8264
8.34917	22.6438
8.33574	23.5363
8.32236	24.4169
8.30903	24.9201
8.29573	25.1502
8.28248	25.3416
8.26927	25.3479
8.2561	25.2387
8.24298	25.1055
8.2299	24.8794
8.21685	24.5723
8.20385	24.0551
8.19089	23.2467
8.17797	22.2484
8.16509	21.3341
8.15225	20.5903
8.13946	20.1528
8.1267	19.9897
8.11398	19.9463
8.10131	20.2125
8.08867	20.5438
8.07606	20.7907
8.0635	20.9688
8.05099	21.1635
8.0385	21.3063
8.02606	21.4047
8.01366	21.4803
8.00129	21.6158
7.98896	21.6944
7.97667	21.7808
7.96442	21.8837
7.9522	21.96
7.94002	22.0905
7.92788	22.1066
7.91578	22.0601
7.90371	22.0922
7.89168	22.1936
7.87969	22.378
7.86773	22.5082
7.85581	22.5329
7.84392	22.4554
7.83207	22.1817
7.82026	21.8919
7.80849	21.5161
7.79674	21.0481
7.78503	20.549
7.77337	20.0646
7.76173	19.6125
7.75012	19.2414
7.73856	18.944
7.72703	18.6913
7.71553	18.441
7.70406	18.1726
7.69263	18.0422
7.68123	17.938
7.66987	17.8389
7.65855	17.9436
7.64725	18.1562
7.63598	18.3324
7.62475	18.4178
7.61356	18.3123
7.60239	18.1687
7.59126	18.1206
7.58017	18.0586
7.5691	17.8219
7.55806	17.431
7.54707	17.128
7.5361	16.8811
7.52516	16.4693
7.51425	15.948
7.50338	15.5237
7.49253	15.2682
7.48172	15.0742
7.47094	14.9027
7.46019	14.7897
7.44947	14.7025
7.43879	14.583
7.42813	14.4888
7.4175	14.4695
7.4069	14.3923
7.39634	14.1766
7.3858	13.9486
7.37529	13.6892
7.36482	13.3946
7.35437	13.072
7.34396	12.7308
7.33357	12.4182
7.32321	12.1034
7.31288	11.8235
7.30258	11.5986
7.29231	11.3405
7.28207	11.1062
7.27185	10.8788
7.26167	10.6589
7.25152	10.4244
7.24139	10.169
7.23129	9.96948
7.22122	9.79
7.21117	9.68915
7.20116	9.60494
7.19117	9.50307
7.18121	9.44065
7.17128	9.42604
7.16137	9.34838
7.1515	9.27002
7.14164	9.12847
7.13182	9.05237
7.12203	9.17441
7.11225	9.184
7.10251	9.15205
7.0928	9.26424
7.08311	9.4849
7.07344	9.91293
7.06381	10.5753
7.0542	11.3432
7.04461	12.2005
7.03506	12.8776
7.02552	13.2998
7.01601	13.5472
7.00653	13.6622
6.99708	13.6871
6.98765	13.6452
6.97824	13.5378
6.96886	13.446
6.95951	13.3438
6.95018	13.3069
6.94087	13.31
6.9316	13.2574
6.92234	13.1873
6.91311	13.185
6.90391	13.2324
6.89473	13.3157
6.88557	13.312
6.87644	13.3535
6.86733	13.5235
6.85824	13.6279
6.84918	13.6471
6.84015	13.6687
6.83114	13.7374
6.82215	13.8891
6.81319	14.0294
6.80424	14.2058
6.79532	14.2502
6.78643	14.2871
6.77756	14.4057
6.76871	14.5628
6.75989	14.6388
6.75109	14.7993
6.74231	14.9589
6.73355	15.0875
6.72482	15.2648
6.71611	15.3968
6.70742	15.5212
6.69875	15.7246
6.69011	16.0608
6.68149	16.3365
6.67289	16.5491
6.66431	16.809
6.65576	17.0983
6.64722	17.5812
6.63871	18.1847
6.63022	18.5412
6.62175	18.8196
6.61331	19.2181
6.60488	19.5729
6.59648	19.872
6.5881	20.1604
6.57974	20.5057
6.5714	20.7999
6.56308	20.9916
6.55478	21.2725
6.54651	21.505
6.53825	21.7372
6.53001	22.0727
6.5218	22.4942
6.51361	22.9268
6.50544	23.3118
6.49729	23.8545
6.48915	24.3603
6.48104	24.6821
6.47295	25.0546
6.46488	25.4284
6.45683	25.8513
6.4488	26.2966
6.44079	26.673
6.4328	27.0948
6.42482	27.5821
6.41687	28.2544
6.40894	28.5694
6.40103	28.5545
6.39314	28.712
6.38526	28.9958
6.37741	29.3292
6.36957	29.4288
6.36176	29.0255
6.35396	28.1637
6.34618	26.6813
6.33843	24.5075
6.33069	22.3394
6.32297	20.3509
6.31527	18.4595
6.30758	16.7412
6.29992	15.0747
6.29227	13.5126
6.28465	12.1537
6.27704	10.9423
6.26945	9.82904
6.26188	8.88161
6.25432	8.30453
6.24679	7.82238
6.23927	7.28756
6.23177	6.73918
6.22429	6.40596
6.21683	6.22639
6.20938	6.04398
6.20195	5.86267
6.19454	5.76702
6.18715	5.64207
6.17978	5.53842
6.17242	5.4288
6.16508	5.30396
6.15776	5.12923
6.15045	4.90918
6.14317	4.78575
6.1359	4.60745
6.12864	4.43133
6.12141	4.22717
6.11419	4.06873
6.10699	3.93269
6.0998	3.74465
6.09263	3.58825
6.08549	3.57181
6.07835	3.75052
6.07123	3.86995
6.06413	3.95063
6.05705	3.99039
6.04998	4.00742
6.04293	4.03668
6.0359	4.06389
6.02888	4.12852
6.02187	4.17417
6.01489	4.2893
6.00792	4.45018
6.00096	4.6689
5.99403	4.86782
5.98711	4.97963
5.9802	5.09582
5.97331	5.28654
5.96644	5.46464
5.95958	5.56643
5.95274	5.70646
5.94591	5.84022
5.9391	6.05085
5.9323	6.30042
5.92552	6.5299
5.91876	6.79927
5.91201	7.00448
5.90528	7.14747
5.89856	7.4125
5.89186	7.56797
5.88517	7.71587
5.8785	7.91638
5.87184	8.10008
5.8652	8.35878
5.85857	8.55702
5.85196	8.64882
5.84536	8.76456
5.83878	9.01192
5.83221	9.29359
5.82566	9.51557
5.81912	9.66641
5.81259	9.73123
5.80608	9.79773
5.79959	9.90179
5.79311	10.0418
5.78665	10.2472
5.78019	10.4791
5.77376	10.6933
5.76734	10.9184
5.76093	11.0811
5.75453	11.0549
5.74815	11.1213
5.74179	11.2968
5.73543	11.4726
5.7291	11.6205
5.72277	11.8847
5.71646	12.2205
5.71017	12.5658
5.70389	12.6918
5.69762	12.6538
5.69136	12.6217
5.68513	12.765
5.6789	12.9472
5.67268	12.9451
5.66648	12.901
5.6603	12.8809
5.65413	12.7482
5.64797	12.5995
5.64182	12.5242
5.63569	12.3401
5.62957	12.0943
5.62347	11.8952
5.61737	11.7383
5.61129	11.5658
5.60522	11.3263
5.59917	11.0736
5.59313	10.6558
5.5871	10.2539
5.58109	9.88743
5.57509	9.3826
5.5691	8.80243
5.56312	8.2168
5.55716	7.51811
5.55121	6.83211
5.54528	6.21397
5.53935	5.64065
5.53344	5.04361
5.52754	4.52159
5.52166	4.16545
5.51578	3.8844
5.50992	3.68126
5.50407	3.54517
5.49823	3.53234
5.49241	3.61147
5.4866	3.79719
5.4808	4.14062
5.47501	4.70945
5.46923	5.67359
5.46347	7.10107
5.45772	8.91817
5.45198	11.032
5.44625	13.2245
5.44054	15.3228
5.43484	17.3945
5.42914	19.5306
5.42347	21.6649
5.4178	23.5832
5.41214	25.331
5.4065	26.9966
5.40087	28.5336
5.39525	29.9161
5.38964	31.1284
5.38404	32.2508
5.37846	33.2615
5.37288	34.207
5.36732	35.2448
5.36177	36.1903
5.35623	37.0167
5.35071	37.8282
5.34519	38.4891
5.33968	39.0975
5.33419	39.6722
5.32871	40.1902
5.32324	40.7095
5.31778	41.159
5.31233	41.5937
5.30689	42.0619
5.30147	42.6259
5.29605	43.298
5.29065	43.8921
5.28525	44.4728
5.27987	45.1722
5.2745	45.8828
5.26914	46.655
5.26379	47.4216
5.25845	48.1584
5.25312	48.904
5.24781	49.6744
5.2425	50.4312
5.23721	51.2736
5.23192	51.9907
5.22665	52.6049
5.22138	53.2455
5.21613	53.9856
5.21089	54.5642
5.20566	55.0327
5.20044	55.5939
5.19522	56.0896
5.19002	56.5642
5.18483	57.0739
5.17965	57.5517
5.17448	58.0656
5.16933	58.6255
5.16418	59.181
5.15904	59.6277
5.15391	60.0675
5.14879	60.5752
5.14368	60.9431
5.13859	61.2174
5.1335	61.482
5.12842	61.7805
5.12335	62.1033
5.1183	62.396
5.11325	62.6597
5.10821	62.752
5.10318	62.803
5.09817	62.7863
5.09316	62.6982
5.08816	62.429
5.08317	61.8093
5.07819	60.6602
5.07322	58.9234
5.06826	57.1005
5.06331	56.2843
5.05837	57.0058
5.05344	58.8628
5.04852	60.9688
5.04361	62.8313
5.03871	64.3015
5.03382	65.4234
5.02894	66.2949
5.02406	66.8894
5.0192	67.3556
5.01435	67.7755
5.0095	68.0555
5.00467	68.2632
4.99984	68.4201
4.99502	68.5879
4.99021	68.7549
4.98542	68.9329
4.98063	69.1071
4.97585	69.243
4.97108	69.3571
4.96632	69.5413
4.96156	69.6658
4.95682	69.7418
4.95209	69.8578
4.94736	70.0224
4.94264	70.1095
4.93794	70.1455
4.93324	70.1878
4.92855	70.3509
4.92387	70.4725
4.9192	70.5534
4.91453	70.6088
4.90988	70.6522
4.90524	70.7478
4.9006	70.8482
4.89597	70.8716
4.89135	70.8837
4.88674	70.9502
4.88214	71.0307
4.87755	71.0342
4.87296	71.0836
4.86839	71.1072
4.86382	71.0652
4.85926	71.0587
4.85471	71.1642
4.85017	71.2023
4.84564	71.2038
4.84111	71.1602
4.8366	71.0924
4.83209	71.0735
4.82759	71.1415
4.8231	71.1787
4.81862	71.1395
4.81415	71.0524
4.80968	70.9651
4.80522	70.9284
4.80077	70.937
4.79633	70.9105
4.7919	70.8731
4.78747	70.8084
4.78306	70.7465
4.77865	70.7065
4.77425	70.6522
4.76986	70.51
4.76547	70.3667
4.7611	70.2884
4.75673	70.169
4.75237	70.0073
4.74802	69.8792
4.74367	69.6982
4.73934	69.5462
4.73501	69.3343
4.73069	69.006
4.72638	68.5976
4.72207	68.1919
4.71777	67.7688
4.71348	67.2358
4.7092	66.5916
4.70493	65.9639
4.70066	65.2444
4.69641	64.3836
4.69216	63.5399
4.68791	62.6117
4.68368	61.4166
4.67945	60.0328
4.67523	58.5226
4.67102	56.8438
4.66682	55.2463
4.66262	53.8267
4.65843	52.5092
4.65425	51.4277
4.65007	50.6128
4.64591	50.0527
4.64175	49.6271
4.6376	49.2889
4.63345	48.9874
4.62932	48.8019
4.62519	48.6698
4.62106	48.5938
4.61695	48.5169
4.61284	48.5346
4.60874	48.8182
4.60465	49.3341
4.60056	50.0063
4.59648	50.7681
4.59241	51.5573
4.58835	52.3907
4.58429	53.2482
4.58024	54.073
4.5762	54.8391
4.57216	55.6006
4.56814	56.3273
4.56411	56.9139
4.5601	57.4471
4.55609	58.0313
4.55209	58.5637
4.5481	59.0484
4.54411	59.4719
4.54013	59.892
4.53616	60.2959
4.5322	60.6771
4.52824	61.0764
4.52429	61.4308
4.52034	61.8037
4.51641	62.247
4.51247	62.8025
4.50855	63.4925
4.50463	64.319
4.50072	65.1263
4.49682	65.7597
4.49292	66.2234
4.48903	66.4805
4.48515	66.5833
4.48127	66.4894
4.4774	66.2392
4.47354	65.8896
4.46968	65.4341
4.46584	64.8107
4.46199	64.123
4.45815	63.4572
4.45432	62.8264
4.4505	62.2786
4.44668	61.8452
4.44287	61.56
4.43907	61.5533
4.43527	61.7116
4.43148	61.8821
4.4277	62.1696
4.42392	62.6101
4.42015	63.0977
4.41638	63.6701
4.41262	64.2888
4.40887	64.8819
4.40513	65.4763
4.40139	66.058
4.39765	66.6719
4.39393	67.2779
4.39021	67.781
4.38649	68.2258
4.38278	68.606
4.37908	69.0463
4.37539	69.5426
4.3717	69.9409
4.36801	70.2729
4.36434	70.5385
4.36067	70.7619
4.357	70.8725
4.35335	70.8077
4.34969	70.4243
4.34605	69.6935
4.34241	68.808
4.33877	67.9099
4.33514	67.2142
4.33152	66.7187
4.32791	66.3827
4.3243	66.1071
4.32069	65.7734
4.3171	65.4472
4.31351	65.0932
4.30992	64.8384
4.30634	64.8198
4.30277	64.7949
4.2992	64.7429
4.29564	64.6802
4.29208	64.6199
4.28853	64.528
4.28499	64.4177
4.28145	64.2933
4.27792	64.2902
4.27439	64.594
4.27087	65.1197
4.26735	65.5633
4.26384	65.9037
4.26034	66.1296
4.25684	66.3239
4.25335	66.5136
4.24986	66.5946
4.24638	66.5197
4.24291	66.4025
4.23944	66.3876
4.23598	66.5121
4.23252	66.6347
4.22906	66.6939
4.22562	66.7672
4.22218	66.7724
4.21874	66.7552
4.21531	66.8463
4.21189	67.0368
4.20847	67.339
4.20506	67.6633
4.20165	67.9167
4.19825	68.1016
4.19485	68.1991
4.19146	68.2104
4.18807	68.1075
4.18469	67.8517
4.18132	67.5878
4.17795	67.3514
4.17458	67.1367
4.17123	66.8856
4.16787	66.5699
4.16453	66.1828
4.16118	65.7748
4.15785	65.392
4.15451	64.9797
4.15119	64.5401
4.14787	64.2515
4.14455	64.2513
4.14124	64.3094
4.13794	64.2565
4.13464	64.1575
4.13134	64.0831
4.12805	64.0688
4.12477	63.9775
4.12149	63.8083
4.11822	63.6521
4.11495	63.4508
4.11168	63.2216
4.10843	62.9499
4.10517	62.6154
4.10192	62.3532
4.09868	62.0649
4.09545	61.6798
4.09221	61.2807
4.08899	60.8347
4.08576	60.3254
4.08255	59.7286
4.07933	59.0911
4.07613	58.413
4.07292	57.6955
4.06973	56.9688
4.06654	56.2443
4.06335	55.4753
4.06017	54.5904
4.05699	53.7741
4.05382	52.9216
4.05065	51.8144
4.04749	50.7102
4.04433	49.6564
4.04118	48.4774
4.03803	47.196
4.03489	45.8447
4.03175	44.3901
4.02862	42.8974
4.02549	41.3295
4.02237	39.6146
4.01925	37.8328
4.01614	35.9942
4.01303	34.0465
4.00993	32.0237
4.00683	29.9292
4.00373	27.9381
4.00064	26.1243
3.99756	24.4785
3.99448	22.8007
3.9914	21.1309
3.98833	19.4282
3.98527	17.656
3.98221	15.8886
3.97915	14.1771
3.9761	12.5369
3.97305	11.0152
3.97001	9.98233
3.96697	9.36285
3.96394	8.96605
3.96091	8.79657
3.95789	8.74162
3.95487	8.78585
3.95186	8.84258
3.94885	8.90327
3.94584	8.92495
3.94284	9.00557
3.93984	9.20097
3.93685	9.36658
3.93386	9.54813
3.93088	9.77752
3.9279	9.95258
3.92493	10.0687
3.92196	10.2293
3.919	10.4673
3.91604	10.8335
3.91308	11.4022
3.91013	12.1098
3.90718	12.9639
3.90424	13.9908
3.9013	14.9551
3.89837	15.8366
3.89544	16.5214
3.89252	16.9139
3.8896	17.1221
3.88668	17.2331
3.88377	17.2684
3.88086	17.4633
3.87796	17.7743
3.87506	18.1321
3.87217	18.5586
3.86928	19.1212
3.86639	19.6686
3.86351	20.2297
3.86064	21.102
3.85776	22.3347
3.8549	23.8961
3.85203	25.8274
3.84917	27.8108
3.84631	29.4298
3.84346	30.5052
3.84062	30.9192
3.83777	30.82
3.83494	30.2762
3.8321	29.6267
3.82927	28.7784
3.82644	27.6887
3.82362	26.5665
3.82081	25.2932
3.81799	23.8928
3.81518	22.4669
3.81238	21.2689
3.80958	20.3254
3.80678	19.674
3.80399	19.6636
3.8012	20.2259
3.79841	21.0751
3.79563	22.0272
3.79286	23.1277
3.79008	24.3304
3.78731	25.6247
3.78455	27.0321
3.78179	28.3495
3.77903	29.7511
3.77628	31.2496
3.77353	32.7002
3.77079	34.1794
3.76805	35.6248
3.76531	37.1876
3.76258	38.9157
3.75985	40.7791
3.75713	42.7197
3.7544	44.7233
3.75169	46.8887
3.74898	49.1448
3.74627	51.2258
3.74356	53.1469
3.74086	54.8577
3.73816	56.245
3.73547	57.4098
3.73278	58.3823
3.7301	59.1551
3.72741	59.7794
3.72474	60.2953
3.72206	60.7323
3.71939	61.1446
3.71673	61.4691
3.71406	61.8482
3.71141	62.1589
3.70875	62.425
3.7061	62.7542
3.70345	63.1104
3.70081	63.4792
3.69817	63.7903
3.69553	64.0985
3.6929	64.4595
3.69027	64.8158
3.68765	65.1661
3.68503	65.3707
3.68241	65.5049
3.6798	65.7305
3.67719	65.8674
3.67458	65.9996
3.67198	66.1067
3.66938	66.1098
3.66678	66.1524
3.66419	66.2905
3.66161	66.4293
3.65902	66.4622
3.65644	66.4993
3.65387	66.5047
3.65129	66.4497
3.64872	66.3939
3.64616	66.3693
3.64359	66.3791
3.64103	66.4695
3.63848	66.4409
3.63593	66.3339
3.63338	66.2839
3.63084	66.2251
3.6283	66.1564
3.62576	66.1101
3.62322	66.0082
3.62069	65.9047
3.61817	65.7928
3.61564	65.6467
3.61312	65.5998
3.61061	65.5958
3.6081	65.5188
3.60559	65.3937
3.60308	65.3401
3.60058	65.227
3.59808	65.0295
3.59558	64.8884
3.59309	64.7997
3.59061	64.7329
3.58812	64.6515
3.58564	64.5389
3.58316	64.3745
3.58069	64.1735
3.57822	63.9912
3.57575	63.7834
3.57328	63.4031
3.57082	63.0585
3.56836	62.725
3.56591	62.259
3.56346	61.6861
3.56101	61.0192
3.55857	60.1034
3.55613	58.9627
3.55369	57.7334
3.55126	56.6827
3.54883	56.0786
3.5464	55.992
3.54397	56.2331
3.54155	56.446
3.53914	56.4593
3.53672	56.2209
3.53431	55.7702
3.5319	55.1422
3.5295	54.3388
3.5271	53.4694
3.5247	52.4341
3.52231	51.2482
3.51991	49.96
3.51753	48.4748
3.51514	46.7671
3.51276	45.0239
3.51038	43.1414
3.50801	41.0204
3.50563	38.8478
3.50327	36.5989
3.5009	34.2735
3.49854	31.986
3.49618	29.8782
3.49382	28.0048
3.49147	26.2996
3.48912	24.7629
3.48677	23.6211
3.48443	22.737
3.48209	22.0044
3.47975	21.3805
3.47742	20.6458
3.47509	19.9015
3.47276	19.3147
3.47044	18.7309
3.46812	18.2105
3.4658	17.7601
3.46348	17.3355
3.46117	16.9918
3.45886	16.7337
3.45656	16.4498
3.45425	16.0893
3.45195	15.8806
3.44966	15.8855
3.44736	16.0085
3.44507	16.427
3.44279	17.0099
3.4405	17.7138
3.43822	18.6456
3.43594	19.6288
3.43367	20.6884
3.43139	21.7238
3.42912	22.7129
3.42686	23.4665
3.42459	23.9827
3.42233	24.4854
3.42007	24.8892
3.41782	25.1032
3.41557	25.416
3.41332	25.6867
3.41108	25.8519
3.40883	26.0022
3.40659	26.2448
3.40435	26.4834
3.40212	26.7462
3.39989	26.9971
3.39766	27.2729
3.39544	27.5615
3.39322	27.7993
3.391	27.9822
3.38878	28.1781
3.38657	28.5561
3.38436	29.0827
3.38215	29.6558
3.37994	30.3679
3.37774	31.064
3.37554	31.3851
3.37335	31.4146
3.37115	31.14
3.36896	30.5434
3.36678	29.8746
3.36459	29.2389
3.36241	28.6494
3.36023	28.045
3.35805	27.5049
3.35588	27.064
3.35371	26.6817
3.35154	26.1494
3.34938	25.5671
3.34721	25.2013
3.34505	24.8476
3.3429	24.4618
3.34074	24.2461
3.33859	24.1379
3.33644	24.0512
3.3343	24.0696
3.33215	24.3162
3.33001	24.4646
3.32788	24.3642
3.32574	24.1288
3.32361	23.8509
3.32148	23.4161
3.31936	22.9219
3.31723	22.4784
3.31511	21.9006
3.31299	21.2622
3.31088	20.8277
3.30876	20.6811
3.30665	21.0346
3.30455	21.7645
3.30244	22.91
3.30034	25.0027
3.29824	28.0231
3.29614	31.7635
3.29405	35.6821
3.29196	39.1161
3.28987	41.8596
3.28778	44.0638
3.2857	45.8418
3.28362	47.2189
3.28154	48.4223
3.27946	49.5565
3.27739	50.4532
3.27532	51.1032
3.27325	51.7869
3.27119	52.2626
3.26913	52.7925
3.26707	53.383
3.26501	53.8086
3.26295	54.1508
3.2609	54.5218
3.25885	54.9603
3.2568	55.3213
3.25476	55.6487
3.25272	55.9543
3.25068	56.2453
3.24864	56.4983
3.24661	56.7472
3.24458	57.0299
3.24255	57.2942
3.24052	57.5268
3.2385	57.6987
3.23648	57.8468
3.23446	57.9824
3.23244	58.1785
3.23043	58.4616
3.22841	58.6926
3.2264	58.7855
3.2244	58.7919
3.22239	58.9286
3.22039	59.1281
3.21839	59.2511
3.2164	59.3324
3.2144	59.3726
3.21241	59.4367
3.21042	59.5466
3.20844	59.6067
3.20645	59.7234
3.20447	59.843
3.20249	59.877
3.20051	59.9924
3.19854	60.0412
3.19657	60.0626
3.1946	60.1111
3.19263	60.2142
3.19067	60.1951
3.1887	60.1561
3.18674	60.1763
3.18479	60.2328
3.18283	60.2861
3.18088	60.3138
3.17893	60.3049
3.17698	60.3272
3.17504	60.2582
3.17309	60.2085
3.17115	60.2709
3.16921	60.2916
3.16728	60.2774
3.16534	60.1655
3.16341	59.9873
3.16148	59.905
3.15956	59.8554
3.15763	59.7787
3.15571	59.8029
3.15379	59.737
3.15187	59.466
3.14996	59.2345
3.14805	58.9889
3.14614	58.7727
3.14423	58.6177
3.14232	58.526
3.14042	58.4766
3.13852	58.4243
3.13662	58.4998
3.13472	58.5251
3.13283	58.5142
3.13094	58.5634
3.12905	58.6212
3.12716	58.5382
3.12528	58.607
3.12339	58.7737
3.12151	58.8091
3.11964	58.7583
3.11776	58.7365
3.11589	58.7415
3.11401	58.8373
3.11214	58.8973
3.11028	58.8476
3.10841	58.8479
3.10655	58.8675
3.10469	58.8953
3.10283	58.9618
3.10098	58.9962
3.09912	58.891
3.09727	58.8529
3.09542	58.7948
3.09358	58.6216
3.09173	58.3814
3.08989	58.2749
3.08805	58.3185
3.08621	58.2462
3.08437	58.1094
3.08254	58.0781
3.08071	58.1046
3.07888	58.0852
3.07705	58.2358
3.07523	58.4911
3.0734	58.5579
3.07158	58.6595
3.06977	58.835
3.06795	58.8488
3.06613	58.8855
3.06432	59.0508
3.06251	59.1727
3.0607	59.2799
3.0589	59.4096
3.0571	59.4536
3.05529	59.4862
3.05349	59.5638
3.0517	59.5697
3.0499	59.6093
3.04811	59.5956
3.04632	59.5737
3.04453	59.5861
3.04274	59.5955
3.04096	59.6725
3.03918	59.7492
3.0374	59.7725
3.03562	59.8927
3.03384	60.0503
3.03207	60.0622
3.03029	60.1306
3.02852	60.1749
3.02676	60.2257
3.02499	60.2806
3.02323	60.4797
3.02146	60.7236
3.0197	60.7221
3.01795	60.6501
3.01619	60.689
3.01444	60.7668
3.01269	60.7544
3.01094	60.7649
3.00919	60.7856
3.00744	60.9606
3.0057	61.1016
3.00396	61.0533
3.00222	61.074
3.00048	61.214
2.99875	61.2091
2.99701	61.1456
2.99528	61.0941
2.99355	60.9704
2.99183	60.9096
2.9901	60.8779
2.98838	60.8145
2.98666	60.8719
2.98494	61.0629
2.98322	61.0599
2.9815	60.9007
2.97979	60.8778
2.97808	60.8782
2.97637	60.8252
2.97466	60.7993
2.97295	60.8557
2.97125	61.0192
2.96955	61.0734
2.96785	60.9818
2.96615	61.009
2.96446	61.0438
2.96276	60.9511
2.96107	60.9407
2.95938	60.9382
2.95769	60.9943
2.95601	61.0454
2.95432	61.1006
2.95264	61.0884
2.95096	61.0417
2.94928	61.0745
2.9476	61.1325
2.94593	61.0963
2.94425	61.0581
2.94258	61.1193
2.94092	61.0928
2.93925	61.0367
2.93758	61.1188
2.93592	61.2189
2.93426	61.2708
2.9326	61.238
2.93094	61.2897
2.92928	61.3666
2.92763	61.3403
2.92598	61.2982
2.92433	61.2924
2.92268	61.4037
2.92103	61.499
2.91939	61.5536
2.91775	61.5927
2.9161	61.4364
2.91447	61.3842
2.91283	61.7504
2.91119	61.9357
2.90956	61.9327
2.90793	62.073
2.9063	62.343
2.90467	62.5954
2.90304	62.7652
2.90142	62.886
2.89979	62.9703
2.89817	63.052
2.89656	63.1299
2.89494	63.155
2.89332	63.3055
2.89171	63.5577
2.8901	63.7078
2.88849	63.7085
2.88688	63.8378
2.88527	63.9022
2.88367	63.9148
2.88206	64.0254
2.88046	64.1122
2.87886	64.2295
2.87727	64.3122
2.87567	64.291
2.87408	64.3761
2.87248	64.5378
2.87089	64.5892
2.8693	64.6193
2.86772	64.7225
2.86613	64.7644
2.86455	64.8994
2.86297	65.1224
2.86139	65.2863
2.85981	65.3839
2.85823	65.4369
2.85666	65.4288
2.85508	65.3993
2.85351	65.3342
2.85194	65.2977
2.85038	65.33
2.84881	65.4388
2.84724	65.6112
2.84568	65.7503
2.84412	65.8636
2.84256	66.1643
2.841	66.4709
2.83945	66.6132
2.83789	66.8552
2.83634	67.0855
2.83479	67.2523
2.83324	67.4763
2.83169	67.6523
2.83015	67.7882
2.82861	67.9071
2.82706	68.0209
2.82552	68.2062
2.82398	68.5381
2.82245	68.784
2.82091	68.8442
2.81938	69.0097
2.81784	69.0896
2.81631	69.0941
2.81479	69.3122
2.81326	69.4492
2.81173	69.5432
2.81021	69.6406
2.80869	69.758
2.80716	69.827
2.80565	69.8121
2.80413	69.796
2.80261	69.7624
2.8011	69.7015
2.79959	69.6521
2.79808	69.5868
2.79657	69.6655
2.79506	69.6774
2.79355	69.5792
2.79205	69.6429
2.79055	69.7826
2.78904	69.7428
2.78754	69.6469
2.78605	69.5877
2.78455	69.4865
2.78306	69.4619
2.78156	69.4764
2.78007	69.261
2.77858	68.9416
2.77709	68.6397
2.77561	68.5632
2.77412	68.5436
2.77264	68.2379
2.77116	68.0353
2.76968	68.0574
2.7682	68.1908
2.76672	68.4021
2.76524	68.6778
2.76377	69.0606
2.7623	69.5298
2.76083	69.9645
2.75936	70.3808
2.75789	70.7418
2.75642	71.3155
2.75496	71.8496
2.7535	72.1138
2.75203	72.3219
2.75057	72.7004
2.74912	73.1579
2.74766	73.5097
2.7462	73.8434
2.74475	74.3635
2.7433	74.8229
2.74185	75.385
2.7404	76.0202
2.73895	76.3428
2.7375	76.5316
2.73606	76.9769
2.73462	77.4772
2.73318	77.795
2.73174	78.1315
2.7303	78.4276
2.72886	78.7208
2.72742	78.9998
2.72599	79.2583
2.72456	79.6093
2.72313	79.7533
2.7217	80.0484
2.72027	80.379
2.71884	80.3561
2.71742	80.6188
2.71599	80.897
2.71457	81.0879
2.71315	81.3723
2.71173	81.9235
2.71032	82.3451
2.7089	82.4387
2.70748	82.5041
2.70607	82.6758
2.70466	82.7845
2.70325	82.9103
2.70184	83.0963
2.70043	83.1046
2.69903	83.1667
2.69762	83.2996
2.69622	83.4457
2.69482	83.7018
2.69342	83.7882
2.69202	83.6408
2.69062	83.6065
2.68923	83.6978
2.68783	83.8142
2.68644	83.9797
2.68505	84.2129
2.68366	84.536
2.68227	84.7115
2.68089	84.884
2.6795	85.3571
2.67812	85.7479
2.67673	86.1658
2.67535	86.3206
2.67397	86.1525
2.6726	86.2081
2.67122	86.8699
2.66984	87.1426
2.66847	87.0202
2.6671	87.4609
2.66572	87.6881
2.66435	87.6528
2.66299	87.572
2.66162	87.6926
2.66025	87.8376
2.65889	87.9187
2.65753	87.9007
2.65616	88.0581
2.65481	88.1656
2.65345	88.3469
2.65209	88.4099
2.65073	88.2788
2.64938	88.3072
2.64803	88.4584
2.64667	88.566
2.64532	88.6072
2.64397	88.5731
2.64263	88.6294
2.64128	88.7437
2.63994	88.8807
2.63859	88.9312
2.63725	88.8992
2.63591	88.8333
2.63457	88.9202
2.63323	88.9526
2.6319	89.0332
2.63056	89.2211
2.62923	89.0216
2.62789	88.9609
2.62656	89.1465
2.62523	89.1025
2.6239	89.0505
2.62258	89.1178
2.62125	89.4016
2.61993	89.4733
2.6186	89.324
2.61728	89.488
2.61596	89.4338
2.61464	89.1921
2.61332	89.2375
2.61201	89.2632
2.61069	89.2425
2.60938	89.3449
2.60807	89.4066
2.60675	89.5333
2.60544	89.6517
2.60414	89.4551
2.60283	89.2583
2.60152	89.2609
2.60022	89.3599
2.59891	89.3763
2.59761	89.4699
2.59631	89.6926
2.59501	89.868
2.59371	89.55
2.59242	89.226
2.59112	89.0662
2.58983	89.0082
2.58853	89.1849
2.58724	89.2161
2.58595	89.1569
2.58466	89.3021
2.58338	89.2251
2.58209	88.9621
2.5808	88.9304
2.57952	88.7824
2.57824	88.6073
2.57695	88.6522
2.57567	88.6343
2.5744	88.5963
2.57312	88.4563
2.57184	88.0922
2.57057	88.1146
2.56929	88.054
2.56802	87.722
2.56675	87.516
2.56548	87.5241
2.56421	87.558
2.56294	87.3442
2.56168	87.1279
2.56041	86.9234
2.55915	86.761
2.55789	86.6
2.55662	86.3647
2.55536	86.1313
2.5541	85.9133
2.55285	85.6873
2.55159	85.4037
2.55034	85.0616
2.54908	84.606
2.54783	84.1219
2.54658	83.5403
2.54533	82.9324
2.54408	82.392
2.54283	81.8092
2.54159	81.209
2.54034	80.6611
2.5391	79.9536
2.53785	79.1785
2.53661	78.568
2.53537	77.8728
2.53413	77.241
2.53289	76.8444
2.53166	76.3813
2.53042	75.731
2.52919	75.1704
2.52795	74.82
2.52672	74.4409
2.52549	74.1879
2.52426	73.9838
2.52303	73.6439
2.52181	73.2337
2.52058	72.94
2.51936	72.8013
2.51813	72.7572
2.51691	72.749
2.51569	72.7431
2.51447	72.6695
2.51325	72.6676
2.51203	72.7383
2.51082	72.8281
2.5096	72.9994
2.50839	73.1841
2.50717	73.3029
2.50596	73.4713
2.50475	73.6326
2.50354	73.8676
2.50233	74.0089
2.50113	74.1422
2.49992	74.413
2.49872	74.5502
2.49751	74.6517
2.49631	74.8859
2.49511	75.0607
2.49391	75.1436
2.49271	75.4101
2.49151	75.7285
2.49031	76.1095
2.48912	76.3641
2.48792	76.6087
2.48673	76.9107
2.48554	76.9557
2.48435	77.0804
2.48316	77.4239
2.48197	77.6099
2.48078	77.7277
2.4796	77.8967
2.47841	78.0927
2.47723	78.1964
2.47604	78.2383
2.47486	78.3383
2.47368	78.4356
2.4725	78.4767
2.47132	78.5867
2.47014	78.623
2.46897	78.5945
2.46779	78.6394
2.46662	78.7403
2.46545	78.8029
2.46427	78.8329
2.4631	78.9007
2.46193	78.925
2.46077	79.0461
2.4596	79.1919
2.45843	79.3781
2.45727	79.601
2.4561	79.6941
2.45494	79.8728
2.45378	80.1718
2.45262	80.4177
2.45146	80.5231
2.4503	80.594
2.44914	80.8836
2.44799	81.2223
2.44683	81.4343
2.44568	81.6585
2.44452	81.8972
2.44337	82.1639
2.44222	82.4598
2.44107	82.7773
2.43992	83.0977
2.43877	83.2007
2.43763	83.4288
2.43648	83.6515
2.43534	83.864
2.43419	84.0713
2.43305	84.2879
2.43191	84.478
2.43077	84.6093
2.42963	84.7424
2.42849	84.9823
2.42736	85.2451
2.42622	85.4468
2.42509	85.7383
2.42395	85.9796
2.42282	86.1629
2.42169	86.2543
2.42056	86.4061
2.41943	86.6595
2.4183	86.901
2.41717	87.1067
2.41605	87.2731
2.41492	87.4126
2.4138	87.4207
2.41267	87.3829
2.41155	87.4663
2.41043	87.6961
2.40931	87.8125
2.40819	87.7926
2.40707	87.853
2.40595	87.9351
2.40484	87.8709
2.40372	87.9062
2.40261	88.0559
2.4015	88.0865
2.40039	88.0417
2.39928	88.2631
2.39817	88.4284
2.39706	88.4309
2.39595	88.5305
2.39484	88.6521
2.39374	88.6803
2.39263	88.7566
2.39153	88.9075
2.39043	88.9565
2.38932	88.9266
2.38822	89.025
2.38712	89.1039
2.38603	89.1157
2.38493	89.0785
2.38383	89.0256
2.38274	89.152
2.38164	89.2264
2.38055	89.2642
2.37946	89.3664
2.37836	89.4506
2.37727	89.5842
2.37618	89.6833
2.3751	89.6175
2.37401	89.5995
2.37292	89.6657
2.37184	89.823
2.37075	89.8889
2.36967	89.7513
2.36859	89.6602
2.3675	89.714
2.36642	89.7391
2.36534	89.7008
2.36427	89.7565
2.36319	89.7696
2.36211	89.6417
2.36104	89.5732
2.35996	89.5055
2.35889	89.3789
2.35781	89.2055
2.35674	89.1754
2.35567	89.0858
2.3546	88.8678
2.35353	88.7285
2.35247	88.5853
2.3514	88.2878
2.35033	87.9184
2.34927	87.5653
2.3482	87.2287
2.34714	86.8214
2.34608	86.4457
2.34502	86.0896
2.34396	85.6974
2.3429	85.3109
2.34184	84.9766
2.34078	84.6915
2.33973	84.3574
2.33867	84.0212
2.33762	83.6759
2.33656	83.3281
2.33551	82.9137
2.33446	82.5485
2.33341	82.1269
2.33236	81.8563
2.33131	81.7173
2.33026	81.498
2.32922	81.1667
2.32817	80.8917
2.32712	80.8412
2.32608	80.7295
2.32504	80.5402
2.324	80.542
2.32295	80.5812
2.32191	80.4361
2.32087	80.3934
2.31984	80.527
2.3188	80.6144
2.31776	80.7464
2.31673	80.9043
2.31569	80.9207
2.31466	80.8528
2.31362	80.8789
2.31259	80.9894
2.31156	81.0839
2.31053	81.1376
2.3095	81.215
2.30847	81.2934
2.30745	81.4191
2.30642	81.4858
2.3054	81.5346
2.30437	81.6373
2.30335	81.8414
2.30232	81.9814
2.3013	81.9472
2.30028	82.0479
2.29926	82.2328
2.29824	82.4232
2.29722	82.5642
2.29621	82.6783
2.29519	82.6904
2.29417	82.7361
2.29316	82.8281
2.29215	82.9435
2.29113	83.0691
2.29012	83.1076
2.28911	83.2005
2.2881	83.3777
2.28709	83.5867
2.28608	83.7022
2.28507	83.6697
2.28407	83.6337
2.28306	83.735
2.28206	83.8844
2.28105	83.8562
2.28005	83.6786
2.27905	83.7466
2.27805	83.8789
2.27705	83.8879
2.27605	83.9483
2.27505	83.9953
2.27405	84.1738
2.27305	84.1885
2.27206	84.107
2.27106	84.2958
2.27007	84.4084
2.26907	84.3545
2.26808	84.4269
2.26709	84.5765
2.2661	84.7167
2.26511	84.8705
2.26412	85.1664
2.26313	85.298
2.26214	85.2994
2.26116	85.4173
2.26017	85.5462
2.25919	85.63
2.2582	85.7045
2.25722	85.8134
2.25624	86.0771
2.25526	86.389
2.25428	86.5763
2.2533	86.5718
2.25232	86.8794
2.25134	87.1465
2.25036	87.1676
2.24939	87.3629
2.24841	87.588
2.24744	87.6277
2.24646	87.6714
2.24549	87.825
2.24452	87.8967
2.24355	88.0363
2.24257	88.1589
2.24161	88.2874
2.24064	88.3409
2.23967	88.3217
2.2387	88.4051
2.23774	88.64
2.23677	88.8998
2.23581	88.9557
2.23484	88.9906
2.23388	89.1248
2.23292	89.2473
2.23196	89.2062
2.231	89.2379
2.23004	89.3044
2.22908	89.3437
2.22812	89.4475
2.22716	89.5073
2.22621	89.576
2.22525	89.538
2.2243	89.4649
2.22334	89.6279
2.22239	89.7811
2.22144	89.7343
2.22049	89.703
2.21953	89.798
2.21859	89.9456
2.21764	89.9714
2.21669	89.9038
2.21574	89.9901
2.21479	90.0873
2.21385	90.167
2.2129	90.2202
2.21196	90.2341
2.21102	90.3248
2.21007	90.327
2.20913	90.3257
2.20819	90.4752
2.20725	90.5208
2.20631	90.4907
2.20537	90.5125
2.20444	90.5744
2.2035	90.6099
2.20256	90.6109
2.20163	90.8109
2.20069	91.0359
2.19976	91.0539
2.19883	90.9607
2.19789	90.9312
2.19696	90.881
2.19603	90.8532
2.1951	90.9583
2.19417	91.0456
2.19325	90.9716
2.19232	90.9851
2.19139	91.0128
2.19047	91.1886
2.18954	91.2448
2.18862	91.2293
2.18769	91.2898
2.18677	91.3939
2.18585	91.3836
2.18493	91.3844
2.18401	91.4479
2.18309	91.3205
2.18217	91.3233
2.18125	91.492
2.18033	91.5683
2.17942	91.4538
2.1785	91.3068
2.17759	91.3058
2.17667	91.4221
2.17576	91.4728
2.17485	91.551
2.17393	91.6595
2.17302	91.5866
2.17211	91.4426
2.1712	91.4939
2.17029	91.5373
2.16939	91.5498
2.16848	91.4636
2.16757	91.4564
2.16667	91.5612
2.16576	91.5235
2.16486	91.544
2.16395	91.6456
2.16305	91.4783
2.16215	91.3627
2.16125	91.4752
2.16035	91.5073
2.15945	91.5631
2.15855	91.7001
2.15765	91.603
2.15675	91.3698
2.15586	91.34
2.15496	91.3419
2.15406	91.2416
2.15317	91.2055
2.15228	91.2188
2.15138	91.2341
2.15049	91.3234
2.1496	91.3069
2.14871	91.2778
2.14782	91.2818
2.14693	91.2036
2.14604	91.1347
2.14515	91.2615
2.14427	91.2085
2.14338	91.0118
2.14249	90.9414
2.14161	90.8656
2.14072	90.9588
2.13984	91.0631
2.13896	91.0833
2.13808	91.0915
2.13719	91.0724
2.13631	90.9991
2.13543	90.9879
2.13455	91.2055
2.13368	91.3242
2.1328	91.2725
2.13192	91.1676
2.13105	91.1062
2.13017	91.113
2.1293	91.2866
2.12842	91.4332
2.12755	91.3645
2.12668	91.3521
2.1258	91.3045
2.12493	91.295
2.12406	91.3915
2.12319	91.3861
2.12232	91.4604
2.12145	91.4817
2.12059	91.4451
2.11972	91.4164
2.11885	91.5671
2.11799	91.5828
2.11712	91.5582
2.11626	91.7177
2.1154	91.7188
2.11453	91.6146
2.11367	91.6193
2.11281	91.6795
2.11195	91.7254
2.11109	91.731
2.11023	91.7099
2.10937	91.7561
2.10851	91.7795
2.10766	91.6468
2.1068	91.5797
2.10594	91.6108
2.10509	91.8259
2.10423	91.959
2.10338	91.915
2.10253	91.9424
2.10168	91.9708
2.10082	91.8611
2.09997	91.8886
2.09912	91.931
2.09827	91.7443
2.09742	91.5739
2.09658	91.7065
2.09573	91.8537
2.09488	92.1468
2.09404	92.1547
2.09319	91.9324
2.09235	91.9752
2.0915	92.0277
2.09066	91.8801
2.08982	91.7659
2.08897	91.9122
2.08813	91.9421
2.08729	91.8664
2.08645	91.7739
2.08561	91.7203
2.08477	91.67
2.08394	91.8327
2.0831	92.1954
2.08226	92.293
2.08143	92.2641
2.08059	92.1329
2.07976	91.8223
2.07892	91.806
2.07809	91.8871
2.07726	91.9161
2.07643	91.8813
2.07559	91.6996
2.07476	91.7848
2.07393	92.133
2.0731	92.5205
2.07228	92.3349
2.07145	92.1626
2.07062	92.0965
2.06979	91.9642
2.06897	92.2172
2.06814	92.357
2.06732	92.1973
2.06649	92.0459
2.06567	91.8044
2.06485	91.8377
2.06403	92.4618
2.0632	92.6048
2.06238	92.2186
2.06156	92.1096
2.06074	92.1709
2.05993	92.1064
2.05911	91.9962
2.05829	91.9939
2.05747	92.1669
2.05666	92.2772
2.05584	92.3455
2.05503	92.197
2.05421	92.1408
2.0534	92.1808
2.05259	92.3127
2.05177	92.2593
2.05096	91.9446
2.05015	91.9976
2.04934	92.1973
2.04853	92.0941
2.04772	92.0671
2.04691	92.2347
2.04611	92.1702
2.0453	91.9432
2.04449	92.0152
2.04369	92.1876
2.04288	92.2423
2.04208	92.2013
2.04127	92.0868
2.04047	92.0663
2.03967	92.1347
2.03886	92.2261
2.03806	92.1374
2.03726	92.1386
2.03646	92.1873
2.03566	92.2608
2.03486	92.0335
2.03407	91.8684
2.03327	92.0079
2.03247	92.1947
2.03167	92.3138
2.03088	92.1279
2.03008	92.0492
2.02929	92.2811
2.0285	92.5721
2.0277	92.436
2.02691	92.2058
2.02612	92.114
2.02533	92.1948
2.02453	92.0672
2.02374	91.9281
2.02295	92.0427
2.02217	92.1424
2.02138	92.1128
2.02059	92.2214
2.0198	92.1576
2.01902	91.991
2.01823	91.8951
2.01744	91.9839
2.01666	91.9683
2.01588	92.1606
2.01509	92.3736
2.01431	92.1303
2.01353	91.7748
2.01275	91.731
2.01196	91.8823
2.01118	92.1697
2.0104	92.0111
2.00963	91.7941
2.00885	91.9094
2.00807	91.7681
2.00729	91.726
2.00651	91.6666
2.00574	91.7921
2.00496	91.8951
2.00419	91.6758
2.00341	91.6722
2.00264	91.9481
2.00187	91.8584
2.00109	91.5707
2.00032	91.6428
