Name: Glauberite Na_2Ca(SO_4)_2
Type: Mineral
Class: Sulfates
Subclass: 
Particle Size: 0-45um
Sample No.: SO-8A
Owner: JPL
Wavelength range: IR
Origin: USA, Arizona, Yavapai County, Campe Verde
Collected by Burminco
Description: 





Measurement: Hemispherical reflectance
First Column: X
Second Column: Y
X Units:  Wavelength (micrometers)
Y Units:  Reflectance (percent)
First X Value: 15.3853
Last X Value: 2.00032
Number of X Values: 2256
Additional information: so08aa.txt
 
15.3853	4.75932
15.3397	5.19425
15.2945	4.90176
15.2495	3.93882
15.2048	3.26306
15.1603	3.06075
15.1161	2.81198
15.0722	3.05175
15.0285	3.59233
14.9851	4.24497
14.9419	4.98571
14.8989	5.65051
14.8563	6.30169
14.8138	7.07448
14.7716	8.05567
14.7296	9.05971
14.6879	9.7847
14.6464	10.2782
14.6052	10.8289
14.5641	11.6266
14.5233	12.4611
14.4828	13.3215
14.4424	14.1097
14.4023	14.6277
14.3624	15.1562
14.3227	15.8469
14.2833	16.5407
14.244	17.249
14.205	17.7219
14.1662	18.044
14.1276	18.4147
14.0892	18.8194
14.051	19.1039
14.0131	19.3859
13.9753	19.6998
13.9377	19.8704
13.9004	20.0215
13.8632	20.3968
13.8262	20.8028
13.7895	21.1311
13.7529	21.4842
13.7165	21.8917
13.6803	22.1828
13.6443	22.3534
13.6085	22.4823
13.5729	22.5619
13.5374	22.5227
13.5022	22.6823
13.4671	22.7634
13.4322	22.6705
13.3975	22.5716
13.363	22.5555
13.3286	22.9007
13.2944	23.312
13.2604	23.5231
13.2266	23.6116
13.193	23.7314
13.1595	23.9264
13.1262	24.2216
13.093	24.5074
13.06	24.9045
13.0272	25.2987
12.9946	25.7126
12.9621	26.2164
12.9298	26.5658
12.8976	26.9162
12.8656	27.3844
12.8337	27.8145
12.8021	28.377
12.7705	28.9381
12.7391	29.3217
12.7079	29.7031
12.6769	30.1082
12.6459	30.4028
12.6152	30.7372
12.5845	31.1072
12.5541	31.5619
12.5238	31.9378
12.4936	32.2315
12.4635	32.6695
12.4337	33.1076
12.4039	33.4411
12.3743	33.792
12.3448	34.2367
12.3155	34.554
12.2863	34.6869
12.2573	34.7211
12.2284	34.8275
12.1996	34.9122
12.171	34.9693
12.1425	34.9156
12.1141	34.8863
12.0859	34.935
12.0578	34.9753
12.0298	35.0181
12.0019	35.1747
11.9742	35.2033
11.9466	35.1493
11.9192	35.168
11.8918	35.2834
11.8646	35.4848
11.8375	35.5763
11.8106	35.583
11.7837	35.6046
11.757	35.6516
11.7304	35.754
11.7039	35.8296
11.6776	35.7772
11.6513	35.9006
11.6252	35.9958
11.5992	35.9877
11.5733	35.9285
11.5475	36.0254
11.5219	36.0717
11.4963	35.9758
11.4709	35.8536
11.4455	35.6561
11.4203	35.4453
11.3952	35.1394
11.3702	34.8423
11.3454	34.6274
11.3206	34.464
11.2959	34.307
11.2714	34.2082
11.2469	34.1341
11.2226	34.2867
11.1983	34.4732
11.1742	34.5744
11.1502	34.4812
11.1263	34.19
11.1024	33.726
11.0787	33.2619
11.0551	32.8961
11.0316	32.6486
11.0081	32.4179
10.9848	32.1384
10.9616	31.8893
10.9385	31.7741
10.9154	31.5793
10.8925	31.2777
10.8697	30.9566
10.8469	30.776
10.8243	30.6341
10.8017	30.4197
10.7793	30.284
10.7569	30.1947
10.7346	30.2499
10.7125	30.323
10.6904	30.1993
10.6684	30.0312
10.6465	29.9112
10.6247	29.7915
10.6029	29.4984
10.5813	29.2638
10.5597	29.0814
10.5383	28.7205
10.5169	28.3342
10.4956	28.1352
10.4744	27.8415
10.4533	27.5454
10.4323	27.364
10.4113	27.0026
10.3904	26.5743
10.3697	26.1242
10.349	25.6889
10.3284	25.1598
10.3078	24.5717
10.2874	24.0805
10.267	23.5532
10.2467	22.8129
10.2265	21.7989
10.2064	20.8358
10.1863	20.0825
10.1663	19.5134
10.1464	19.2877
10.1266	18.9898
10.1069	18.4346
10.0872	17.7456
10.0676	16.9076
10.0481	16.059
10.0287	15.5374
10.0093	15.6232
9.99005	15.8177
9.97084	15.7264
9.95169	15.5444
9.93263	15.3823
9.91364	15.0845
9.89472	14.8333
9.87587	14.6199
9.8571	14.3862
9.83839	14.0787
9.81976	13.8354
9.80119	13.5833
9.78271	13.306
9.76428	13.1027
9.74592	12.8803
9.72764	12.7129
9.70943	12.6231
9.69128	12.404
9.6732	11.9385
9.65518	11.6309
9.63724	11.4401
9.61935	11.0867
9.60155	10.6489
9.5838	10.274
9.56611	10.0554
9.5485	9.83121
9.53094	9.42316
9.51345	9.12587
9.49604	9.00745
9.47867	8.78213
9.46137	8.43022
9.44414	8.09303
9.42697	7.81164
9.40986	7.53774
9.39281	7.33073
9.37583	7.07578
9.35891	6.87901
9.34204	6.85122
9.32524	6.71275
9.3085	6.47013
9.29182	6.29563
9.27519	6.23231
9.25863	6.32633
9.24213	6.50598
9.22568	6.78719
9.2093	7.0534
9.19297	7.39836
9.17669	7.58893
9.16048	7.84542
9.14433	8.08716
9.12823	8.18888
9.11218	8.4071
9.0962	8.74192
9.08027	9.18921
9.06439	9.53299
9.04858	9.76057
9.03281	9.57979
9.0171	9.0489
9.00145	8.71335
8.98585	8.8015
8.9703	9.15223
8.9548	9.52761
8.93937	10.0186
8.92398	10.4265
8.90865	10.9023
8.89337	11.6108
8.87814	12.4325
8.86296	13.2999
8.84784	14.1367
8.83277	14.857
8.81774	15.1897
8.80277	15.2211
8.78786	15.1032
8.77298	14.7837
8.75816	14.1323
8.7434	13.3005
8.72868	12.5575
8.714	12.0182
8.69938	12.2856
8.68481	13.0489
8.67029	13.7064
8.65581	14.0518
8.64139	13.9544
8.62701	13.5404
8.61268	13.1923
8.5984	13.0811
8.58416	12.9628
8.56997	12.8129
8.55583	12.5852
8.54174	12.4269
8.52769	12.2912
8.51368	12.0339
8.49973	11.8103
8.48582	11.5811
8.47195	11.47
8.45813	11.568
8.44436	11.7742
8.43062	11.9618
8.41693	12.0682
8.4033	12.3129
8.3897	12.7218
8.37614	13.1774
8.36264	13.6953
8.34917	14.2144
8.33574	14.5016
8.32236	14.5612
8.30903	14.5993
8.29573	14.3509
8.28248	13.978
8.26927	13.7737
8.2561	13.4366
8.24298	12.9294
8.2299	12.5626
8.21685	12.0908
8.20385	11.4493
8.19089	10.6378
8.17797	9.80938
8.16509	8.8806
8.15225	7.87163
8.13946	7.02394
8.1267	6.34686
8.11398	5.74525
8.10131	5.16043
8.08867	4.55589
8.07606	3.92596
8.0635	3.37585
8.05099	3.06227
8.0385	2.88557
8.02606	2.54706
8.01366	2.21938
8.00129	1.90807
7.98896	1.60711
7.97667	1.41673
7.96442	1.30163
7.9522	1.16169
7.94002	1.05714
7.92788	0.970139
7.91578	0.888588
7.90371	0.804511
7.89168	0.675229
7.87969	0.555645
7.86773	0.456427
7.85581	0.554694
7.84392	0.54804
7.83207	0.477726
7.82026	0.448972
7.80849	0.423679
7.79674	0.570036
7.78503	0.688684
7.77337	0.567055
7.76173	0.528793
7.75012	0.64363
7.73856	0.734192
7.72703	0.78469
7.71553	0.867376
7.70406	0.871849
7.69263	0.981371
7.68123	1.0585
7.66987	1.18524
7.65855	1.34858
7.64725	1.42242
7.63598	1.55195
7.62475	1.78077
7.61356	1.99361
7.60239	2.28513
7.59126	2.48673
7.58017	2.74492
7.5691	3.03449
7.55806	3.34552
7.54707	3.5989
7.5361	3.93416
7.52516	4.34163
7.51425	4.78023
7.50338	5.1699
7.49253	5.5261
7.48172	6.03845
7.47094	6.70329
7.46019	7.31617
7.44947	7.87511
7.43879	8.49611
7.42813	9.24878
7.4175	9.87769
7.4069	10.4256
7.39634	11.0299
7.3858	11.6466
7.37529	12.2257
7.36482	12.768
7.35437	13.3027
7.34396	13.8123
7.33357	14.2552
7.32321	14.7644
7.31288	15.2807
7.30258	15.7055
7.29231	16.1773
7.28207	16.802
7.27185	17.3519
7.26167	17.838
7.25152	18.3144
7.24139	18.8293
7.23129	19.4167
7.22122	20.0038
7.21117	20.5599
7.20116	20.9354
7.19117	21.2554
7.18121	21.7887
7.17128	22.3137
7.16137	22.6246
7.1515	22.9562
7.14164	23.3258
7.13182	23.7336
7.12203	24.2432
7.11225	24.6608
7.10251	25.0393
7.0928	25.5087
7.08311	26.1306
7.07344	26.7825
7.06381	27.4263
7.0542	28.2341
7.04461	29.0143
7.03506	29.4697
7.02552	30.0844
7.01601	30.7417
7.00653	31.3004
6.99708	31.8235
6.98765	32.2535
6.97824	32.5498
6.96886	32.9769
6.95951	33.363
6.95018	33.2258
6.94087	33.2311
6.9316	33.3994
6.92234	33.4272
6.91311	33.3955
6.90391	33.3878
6.89473	33.1992
6.88557	33.1801
6.87644	33.5054
6.86733	34.2935
6.85824	34.4861
6.84918	34.0833
6.84015	34.0862
6.83114	34.3441
6.82215	34.2607
6.81319	33.7879
6.80424	33.3875
6.79532	33.3631
6.78643	33.2472
6.77756	33.0012
6.76871	32.8878
6.75989	32.8264
6.75109	32.9414
6.74231	33.0672
6.73355	33.4078
6.72482	34.0361
6.71611	34.9055
6.70742	35.7637
6.69875	36.4021
6.69011	37.2688
6.68149	38.1865
6.67289	38.5511
6.66431	38.6592
6.65576	38.8835
6.64722	39.754
6.63871	40.8792
6.63022	40.8978
6.62175	40.6026
6.61331	40.868
6.60488	41.3695
6.59648	42.0142
6.5881	42.4742
6.57974	43.1093
6.5714	43.7567
6.56308	43.6518
6.55478	43.7426
6.54651	43.6927
6.53825	43.4883
6.53001	43.4143
6.5218	43.3745
6.51361	42.6698
6.50544	42.2521
6.49729	42.4036
6.48915	41.7184
6.48104	40.5909
6.47295	39.8705
6.46488	39.4985
6.45683	39.4463
6.4488	39.6464
6.44079	39.986
6.4328	40.4617
6.42482	40.9459
6.41687	41.7885
6.40894	41.5002
6.40103	40.4671
6.39314	40.0633
6.38526	39.796
6.37741	39.5557
6.36957	39.2875
6.36176	38.5422
6.35396	38.0783
6.34618	38.103
6.33843	37.4754
6.33069	36.7075
6.32297	36.412
6.31527	36.1927
6.30758	35.9811
6.29992	35.6834
6.29227	35.4707
6.28465	35.2926
6.27704	35.1245
6.26945	34.9021
6.26188	34.7445
6.25432	34.4994
6.24679	34.0613
6.23927	33.3715
6.23177	32.4431
6.22429	31.4983
6.21683	31.1674
6.20938	31.5673
6.20195	32.38
6.19454	33.1155
6.18715	33.673
6.17978	33.6609
6.17242	34.2385
6.16508	35.9403
6.15776	37.5455
6.15045	38.0945
6.14317	38.0813
6.1359	37.7668
6.12864	37.5674
6.12141	38.0371
6.11419	38.793
6.10699	38.3629
6.0998	37.497
6.09263	37.0789
6.08549	37.415
6.07835	38.6215
6.07123	39.7801
6.06413	40.3984
6.05705	42.0754
6.04998	45.0857
6.04293	46.902
6.0359	48.2331
6.02888	50.057
6.02187	51.6499
6.01489	52.882
6.00792	53.3818
6.00096	53.8523
5.99403	54.7889
5.98711	55.2923
5.9802	55.1424
5.97331	55.3666
5.96644	55.7121
5.95958	55.8989
5.95274	56.5501
5.94591	57.4336
5.9391	58.8722
5.9323	59.1784
5.92552	58.8404
5.91876	59.1994
5.91201	59.6895
5.90528	60.4204
5.89856	61.6197
5.89186	61.9462
5.88517	62.4688
5.8785	62.6427
5.87184	61.6064
5.8652	61.4998
5.85857	61.3328
5.85196	61.1281
5.84536	61.0854
5.83878	61.3494
5.83221	61.7913
5.82566	62.3596
5.81912	62.3566
5.81259	61.6967
5.80608	61.3958
5.79959	61.3338
5.79311	61.0543
5.78665	60.7756
5.78019	60.5253
5.77376	60.6102
5.76734	60.8923
5.76093	59.9381
5.75453	59.1524
5.74815	59.1643
5.74179	58.9255
5.73543	58.7488
5.7291	58.6935
5.72277	58.8033
5.71646	58.9426
5.71017	59.0712
5.70389	58.7563
5.69762	58.5536
5.69136	58.5122
5.68513	58.3146
5.6789	58.3596
5.67268	58.4327
5.66648	58.3162
5.6603	58.6011
5.65413	58.8665
5.64797	59.0935
5.64182	59.3916
5.63569	58.9944
5.62957	58.6845
5.62347	58.6413
5.61737	58.6271
5.61129	58.5834
5.60522	58.828
5.59917	59.2081
5.59313	59.5356
5.5871	60.168
5.58109	61.0615
5.57509	61.606
5.5691	61.9223
5.56312	62.516
5.55716	63.1342
5.55121	63.4679
5.54528	63.5448
5.53935	63.6937
5.53344	63.8001
5.52754	63.8736
5.52166	63.817
5.51578	63.7272
5.50992	63.6748
5.50407	63.7145
5.49823	63.8341
5.49241	64.0883
5.4866	64.4206
5.4808	64.7969
5.47501	64.983
5.46923	65.3471
5.46347	65.7045
5.45772	65.7163
5.45198	65.863
5.44625	66.2284
5.44054	66.6373
5.43484	67.0092
5.42914	67.5272
5.42347	68.2505
5.4178	68.4165
5.41214	68.5472
5.4065	68.9757
5.40087	69.4853
5.39525	69.9784
5.38964	70.4194
5.38404	70.8938
5.37846	71.3383
5.37288	71.699
5.36732	71.9949
5.36177	72.262
5.35623	72.652
5.35071	73.0633
5.34519	73.1531
5.33968	73.1991
5.33419	73.3315
5.32871	73.4845
5.32324	73.6147
5.31778	73.7514
5.31233	73.9093
5.30689	73.941
5.30147	73.9848
5.29605	74.1669
5.29065	74.3674
5.28525	74.3616
5.27987	74.4416
5.2745	74.5269
5.26914	74.527
5.26379	74.6164
5.25845	74.7746
5.25312	74.9241
5.24781	75.03
5.2425	75.0526
5.23721	75.1712
5.23192	75.2686
5.22665	75.3369
5.22138	75.4017
5.21613	75.6029
5.21089	75.6887
5.20566	75.6192
5.20044	75.6817
5.19522	75.6135
5.19002	75.5293
5.18483	75.5573
5.17965	75.5687
5.17448	75.6036
5.16933	75.5878
5.16418	75.5755
5.15904	75.5625
5.15391	75.5713
5.14879	75.641
5.14368	75.6169
5.13859	75.5075
5.1335	75.4307
5.12842	75.3443
5.12335	75.2923
5.1183	75.1563
5.11325	74.9943
5.10821	74.9054
5.10318	74.8728
5.09817	74.8523
5.09316	74.8166
5.08816	74.7366
5.08317	74.627
5.07819	74.4699
5.07322	74.3186
5.06826	74.1418
5.06331	73.916
5.05837	73.6288
5.05344	73.3134
5.04852	72.9329
5.04361	72.4227
5.03871	71.7737
5.03382	70.8571
5.02894	69.5694
5.02406	67.6672
5.0192	64.8755
5.01435	61.6751
5.0095	60.0154
5.00467	60.9899
4.99984	63.4491
4.99502	65.8595
4.99021	67.5889
4.98542	68.7471
4.98063	69.3723
4.97585	69.6261
4.97108	69.745
4.96632	69.7915
4.96156	69.7767
4.95682	69.7225
4.95209	69.5287
4.94736	69.2968
4.94264	69.0275
4.93794	68.7834
4.93324	68.5083
4.92855	68.2116
4.92387	67.8876
4.9192	67.5371
4.91453	67.1318
4.90988	66.7178
4.90524	66.1963
4.9006	65.6503
4.89597	65.141
4.89135	64.6376
4.88674	64.078
4.88214	63.381
4.87755	62.6076
4.87296	61.8628
4.86839	61.0782
4.86382	60.1941
4.85926	59.2195
4.85471	58.134
4.85017	56.9202
4.84564	55.5867
4.84111	54.2094
4.8366	52.6898
4.83209	51.0236
4.82759	49.2483
4.8231	47.1889
4.81862	44.7875
4.81415	42.0697
4.80968	39.0027
4.80522	35.5948
4.80077	32.0923
4.79633	28.7172
4.7919	25.6483
4.78747	23.2294
4.78306	21.3112
4.77865	19.8498
4.77425	19.0379
4.76986	18.6078
4.76547	18.3791
4.7611	18.3605
4.75673	18.4602
4.75237	18.3235
4.74802	18.0627
4.74367	17.6881
4.73934	17.2139
4.73501	16.7575
4.73069	16.3
4.72638	15.9351
4.72207	15.7109
4.71777	15.6568
4.71348	15.7013
4.7092	15.6798
4.70493	15.6531
4.70066	15.761
4.69641	16.0261
4.69216	16.5511
4.68791	17.3159
4.68368	18.1792
4.67945	18.924
4.67523	19.672
4.67102	20.6618
4.66682	21.9368
4.66262	23.3725
4.65843	24.6557
4.65425	25.4127
4.65007	25.6908
4.64591	25.8197
4.64175	25.9571
4.6376	26.0451
4.63345	26.0398
4.62932	25.9662
4.62519	25.9804
4.62106	26.1315
4.61695	26.4155
4.61284	26.8675
4.60874	27.3999
4.60465	27.9145
4.60056	28.5235
4.59648	29.1572
4.59241	29.5712
4.58835	29.7469
4.58429	29.7219
4.58024	29.5074
4.5762	28.9931
4.57216	28.2192
4.56814	27.5256
4.56411	26.8679
4.5601	26.4
4.55609	26.1992
4.55209	26.1824
4.5481	26.3399
4.54411	26.6524
4.54013	27.0406
4.53616	27.475
4.5322	27.8441
4.52824	28.2901
4.52429	28.6962
4.52034	29.0125
4.51641	29.3659
4.51247	29.8379
4.50855	30.3948
4.50463	31.0095
4.50072	31.7971
4.49682	32.5897
4.49292	33.0872
4.48903	33.487
4.48515	33.7415
4.48127	33.8078
4.4774	33.8048
4.47354	33.7965
4.46968	33.7091
4.46584	33.5841
4.46199	33.4716
4.45815	33.2641
4.45432	32.8859
4.4505	32.3954
4.44668	31.9009
4.44287	31.5255
4.43907	31.2959
4.43527	31.1751
4.43148	31.0606
4.4277	31.0451
4.42392	31.0901
4.42015	31.1272
4.41638	31.2396
4.41262	31.3344
4.40887	31.3862
4.40513	31.5571
4.40139	31.8295
4.39765	32.1565
4.39393	32.525
4.39021	32.9022
4.38649	33.1422
4.38278	33.2923
4.37908	33.4224
4.37539	33.461
4.3717	33.4341
4.36801	33.3428
4.36434	33.0906
4.36067	32.8189
4.357	32.674
4.35335	32.667
4.34969	32.7572
4.34605	33.0851
4.34241	33.6404
4.33877	34.183
4.33514	34.6917
4.33152	35.2097
4.32791	35.6393
4.3243	35.967
4.32069	36.2828
4.3171	36.5577
4.31351	36.8416
4.30992	37.2263
4.30634	37.7407
4.30277	38.281
4.2992	38.8873
4.29564	39.4471
4.29208	40.01
4.28853	40.5972
4.28499	41.2187
4.28145	41.8486
4.27792	42.5337
4.27439	43.3003
4.27087	44.1005
4.26735	44.985
4.26384	45.9341
4.26034	46.771
4.25684	47.544
4.25335	48.2766
4.24986	48.9185
4.24638	49.512
4.24291	50.1076
4.23944	50.8491
4.23598	51.7612
4.23252	52.773
4.22906	53.7959
4.22562	54.7599
4.22218	55.709
4.21874	56.6277
4.21531	57.5461
4.21189	58.4599
4.20847	59.3204
4.20506	60.1717
4.20165	60.9712
4.19825	61.6955
4.19485	62.3787
4.19146	62.9544
4.18807	63.4964
4.18469	64.0566
4.18132	64.6026
4.17795	65.2188
4.17458	65.865
4.17123	66.4906
4.16787	67.2095
4.16453	67.9043
4.16118	68.513
4.15785	69.0836
4.15451	69.5914
4.15119	70.1057
4.14787	70.6191
4.14455	71.1558
4.14124	71.6827
4.13794	72.1276
4.13464	72.5511
4.13134	72.9361
4.12805	73.3103
4.12477	73.6206
4.12149	73.9568
4.11822	74.3136
4.11495	74.6322
4.11168	74.8895
4.10843	75.1996
4.10517	75.5379
4.10192	75.7998
4.09868	76.0133
4.09545	76.2474
4.09221	76.5636
4.08899	76.8646
4.08576	77.0686
4.08255	77.2851
4.07933	77.5114
4.07613	77.7396
4.07292	77.9948
4.06973	78.2583
4.06654	78.4701
4.06335	78.6503
4.06017	78.8386
4.05699	78.9959
4.05382	79.1324
4.05065	79.2969
4.04749	79.5016
4.04433	79.7419
4.04118	80.0102
4.03803	80.1934
4.03489	80.3582
4.03175	80.5419
4.02862	80.6775
4.02549	80.7942
4.02237	80.8602
4.01925	81.0493
4.01614	81.2913
4.01303	81.4358
4.00993	81.5725
4.00683	81.6985
4.00373	81.7252
4.00064	81.8048
3.99756	81.8665
3.99448	81.8772
3.9914	81.9936
3.98833	82.1084
3.98527	82.0435
3.98221	81.9827
3.97915	81.942
3.9761	81.9737
3.97305	81.9742
3.97001	81.8517
3.96697	81.7978
3.96394	81.8218
3.96091	81.7529
3.95789	81.6614
3.95487	81.5875
3.95186	81.5717
3.94885	81.6244
3.94584	81.6601
3.94284	81.708
3.93984	81.7351
3.93685	81.7919
3.93386	81.8701
3.93088	81.8814
3.9279	81.896
3.92493	82.0234
3.92196	82.1964
3.919	82.2843
3.91604	82.3695
3.91308	82.4647
3.91013	82.5288
3.90718	82.5705
3.90424	82.615
3.9013	82.6913
3.89837	82.7881
3.89544	82.7985
3.89252	82.8165
3.8896	82.9012
3.88668	82.9741
3.88377	83.053
3.88086	83.1745
3.87796	83.2689
3.87506	83.2841
3.87217	83.3164
3.86928	83.3475
3.86639	83.3849
3.86351	83.3831
3.86064	83.4198
3.85776	83.4812
3.8549	83.437
3.85203	83.4399
3.84917	83.3725
3.84631	83.246
3.84346	83.1792
3.84062	83.2312
3.83777	83.345
3.83494	83.3507
3.8321	83.3782
3.82927	83.5344
3.82644	83.5454
3.82362	83.5608
3.82081	83.684
3.81799	83.7544
3.81518	83.7052
3.81238	83.6644
3.80958	83.677
3.80678	83.6517
3.80399	83.6689
3.8012	83.6862
3.79841	83.7167
3.79563	83.7317
3.79286	83.6943
3.79008	83.7358
3.78731	83.8574
3.78455	84.0082
3.78179	84.102
3.77903	84.2222
3.77628	84.3605
3.77353	84.5452
3.77079	84.8282
3.76805	85.0116
3.76531	85.1005
3.76258	85.2418
3.75985	85.3368
3.75713	85.4382
3.7544	85.5121
3.75169	85.5012
3.74898	85.5298
3.74627	85.6093
3.74356	85.6457
3.74086	85.6755
3.73816	85.7188
3.73547	85.7438
3.73278	85.7141
3.7301	85.7348
3.72741	85.7598
3.72474	85.7665
3.72206	85.7856
3.71939	85.7788
3.71673	85.7573
3.71406	85.8033
3.71141	85.8458
3.70875	85.8513
3.7061	85.8385
3.70345	85.7582
3.70081	85.6699
3.69817	85.7197
3.69553	85.6742
3.6929	85.6383
3.69027	85.6663
3.68765	85.658
3.68503	85.6626
3.68241	85.6579
3.6798	85.6349
3.67719	85.5964
3.67458	85.5795
3.67198	85.5217
3.66938	85.5095
3.66678	85.4724
3.66419	85.3822
3.66161	85.3223
3.65902	85.2777
3.65644	85.2674
3.65387	85.218
3.65129	85.1997
3.64872	85.2487
3.64616	85.2772
3.64359	85.2133
3.64103	85.1784
3.63848	85.2153
3.63593	85.228
3.63338	85.1898
3.63084	85.1065
3.6283	85.0328
3.62576	85.0731
3.62322	85.1286
3.62069	85.1196
3.61817	85.0867
3.61564	85.0298
3.61312	84.9516
3.61061	84.9164
3.6081	84.9285
3.60559	84.941
3.60308	84.9679
3.60058	84.928
3.59808	84.9183
3.59558	84.9115
3.59309	84.838
3.59061	84.7967
3.58812	84.772
3.58564	84.7833
3.58316	84.7181
3.58069	84.6313
3.57822	84.6033
3.57575	84.6067
3.57328	84.551
3.57082	84.509
3.56836	84.4656
3.56591	84.4243
3.56346	84.4035
3.56101	84.3671
3.55857	84.2376
3.55613	84.1576
3.55369	84.1529
3.55126	84.1131
3.54883	84.0243
3.5464	83.9599
3.54397	83.8787
3.54155	83.7994
3.53914	83.7307
3.53672	83.7004
3.53431	83.5892
3.5319	83.4376
3.5295	83.3616
3.5271	83.2605
3.5247	83.1228
3.52231	82.9953
3.51991	82.8669
3.51753	82.7836
3.51514	82.5371
3.51276	82.256
3.51038	81.9955
3.50801	81.7231
3.50563	81.5523
3.50327	81.49
3.5009	81.3866
3.49854	81.2939
3.49618	81.3844
3.49382	81.4684
3.49147	81.4601
3.48912	81.417
3.48677	81.3348
3.48443	81.2947
3.48209	81.2777
3.47975	81.2237
3.47742	81.1026
3.47509	81.0274
3.47276	80.9686
3.47044	80.8828
3.46812	80.9077
3.4658	80.9464
3.46348	80.915
3.46117	80.8257
3.45886	80.6928
3.45656	80.6348
3.45425	80.5852
3.45195	80.4896
3.44966	80.3826
3.44736	80.2317
3.44507	80.1248
3.44279	79.9934
3.4405	79.8194
3.43822	79.6744
3.43594	79.6124
3.43367	79.531
3.43139	79.2919
3.42912	79.0598
3.42686	78.8488
3.42459	78.6671
3.42233	78.5022
3.42007	78.3771
3.41782	78.2166
3.41557	78.1637
3.41332	78.1753
3.41108	78.1946
3.40883	78.2648
3.40659	78.37
3.40435	78.5279
3.40212	78.6679
3.39989	78.6652
3.39766	78.7133
3.39544	78.8402
3.39322	78.8847
3.391	78.8586
3.38878	78.926
3.38657	78.9627
3.38436	78.8872
3.38215	78.8401
3.37994	78.8102
3.37774	78.6773
3.37554	78.6057
3.37335	78.6051
3.37115	78.6371
3.36896	78.6914
3.36678	78.681
3.36459	78.7125
3.36241	78.6708
3.36023	78.6737
3.35805	78.7246
3.35588	78.6608
3.35371	78.6054
3.35154	78.5741
3.34938	78.5519
3.34721	78.6327
3.34505	78.5966
3.3429	78.455
3.34074	78.3755
3.33859	78.368
3.33644	78.4359
3.3343	78.5332
3.33215	78.5532
3.33001	78.4605
3.32788	78.3329
3.32574	78.2727
3.32361	78.2445
3.32148	78.2474
3.31936	78.2765
3.31723	78.2213
3.31511	78.1162
3.31299	77.9803
3.31088	77.9008
3.30876	77.9211
3.30665	77.8635
3.30455	77.7388
3.30244	77.654
3.30034	77.4906
3.29824	77.3651
3.29614	77.3517
3.29405	77.304
3.29196	77.2423
3.28987	77.1624
3.28778	77.0178
3.2857	76.8706
3.28362	76.7361
3.28154	76.6215
3.27946	76.5536
3.27739	76.4681
3.27532	76.3685
3.27325	76.2154
3.27119	76.0732
3.26913	75.9317
3.26707	75.8146
3.26501	75.7539
3.26295	75.6466
3.2609	75.4936
3.25885	75.3389
3.2568	75.1365
3.25476	74.9201
3.25272	74.6829
3.25068	74.423
3.24864	74.1628
3.24661	73.993
3.24458	73.804
3.24255	73.6292
3.24052	73.4688
3.2385	73.2579
3.23648	73.1267
3.23446	73.0618
3.23244	72.9846
3.23043	72.9506
3.22841	72.7792
3.2264	72.6586
3.2244	72.6429
3.22239	72.5967
3.22039	72.4825
3.21839	72.3475
3.2164	72.2342
3.2144	72.0503
3.21241	71.872
3.21042	71.8188
3.20844	71.7857
3.20645	71.7631
3.20447	71.7119
3.20249	71.7021
3.20051	71.6226
3.19854	71.5808
3.19657	71.5288
3.1946	71.4439
3.19263	71.457
3.19067	71.4433
3.1887	71.371
3.18674	71.3146
3.18479	71.2928
3.18283	71.267
3.18088	71.1364
3.17893	71.0425
3.17698	70.9485
3.17504	70.8127
3.17309	70.65
3.17115	70.5319
3.16921	70.4467
3.16728	70.3118
3.16534	70.2063
3.16341	70.1881
3.16148	70.0733
3.15956	69.8494
3.15763	69.6665
3.15571	69.4957
3.15379	69.3441
3.15187	69.2621
3.14996	69.1109
3.14805	68.9157
3.14614	68.7812
3.14423	68.6895
3.14232	68.5367
3.14042	68.4311
3.13852	68.3871
3.13662	68.165
3.13472	67.9569
3.13283	67.9479
3.13094	67.7754
3.12905	67.5858
3.12716	67.4911
3.12528	67.4301
3.12339	67.4159
3.12151	67.3333
3.11964	67.2103
3.11776	67.1333
3.11589	67.0555
3.11401	66.9356
3.11214	66.8337
3.11028	66.7132
3.10841	66.6482
3.10655	66.6547
3.10469	66.6592
3.10283	66.574
3.10098	66.4067
3.09912	66.2697
3.09727	66.1955
3.09542	66.1163
3.09358	66.0083
3.09173	65.8486
3.08989	65.7209
3.08805	65.6084
3.08621	65.5643
3.08437	65.6038
3.08254	65.6241
3.08071	65.5603
3.07888	65.4636
3.07705	65.4015
3.07523	65.2462
3.0734	65.1774
3.07158	65.2982
3.06977	65.3369
3.06795	65.1532
3.06613	64.9769
3.06432	64.9427
3.06251	65.0141
3.0607	65.0469
3.0589	64.9222
3.0571	64.7371
3.05529	64.7063
3.05349	64.8191
3.0517	64.8428
3.0499	64.6952
3.04811	64.6527
3.04632	64.6945
3.04453	64.6347
3.04274	64.4742
3.04096	64.3568
3.03918	64.4116
3.0374	64.385
3.03562	64.2193
3.03384	64.1903
3.03207	64.2678
3.03029	64.1613
3.02852	64.0719
3.02676	64.016
3.02499	63.8943
3.02323	63.8226
3.02146	63.7289
3.0197	63.6386
3.01795	63.5499
3.01619	63.586
3.01444	63.6289
3.01269	63.4381
3.01094	63.2608
3.00919	63.2839
3.00744	63.3038
3.0057	63.1961
3.00396	63.1764
3.00222	63.1578
3.00048	63.0628
2.99875	63.0049
2.99701	63.052
2.99528	63.0083
2.99355	62.8875
2.99183	62.802
2.9901	62.6435
2.98838	62.5422
2.98666	62.5532
2.98494	62.5949
2.98322	62.4924
2.9815	62.2939
2.97979	62.2892
2.97808	62.2153
2.97637	62.2542
2.97466	62.3506
2.97295	62.2335
2.97125	62.0816
2.96955	62.0972
2.96785	62.0522
2.96615	61.9707
2.96446	61.9267
2.96276	61.8018
2.96107	61.7902
2.95938	61.6886
2.95769	61.5576
2.95601	61.5657
2.95432	61.603
2.95264	61.5789
2.95096	61.4727
2.94928	61.435
2.9476	61.4237
2.94593	61.4278
2.94425	61.3695
2.94258	61.2671
2.94092	61.3061
2.93925	61.3508
2.93758	61.3266
2.93592	61.225
2.93426	61.2467
2.9326	61.2216
2.93094	61.1937
2.92928	61.2915
2.92763	61.3489
2.92598	61.296
2.92433	61.2096
2.92268	61.2791
2.92103	61.2971
2.91939	61.3241
2.91775	61.4185
2.9161	61.4177
2.91447	61.3526
2.91283	61.3235
2.91119	61.4017
2.90956	61.5963
2.90793	61.673
2.9063	61.5697
2.90467	61.4942
2.90304	61.4926
2.90142	61.5731
2.89979	61.6202
2.89817	61.6127
2.89656	61.5325
2.89494	61.5858
2.89332	61.648
2.89171	61.5115
2.8901	61.4801
2.88849	61.6777
2.88688	61.7816
2.88527	61.6139
2.88367	61.5744
2.88206	61.7176
2.88046	61.7267
2.87886	61.6273
2.87727	61.6179
2.87567	61.6306
2.87408	61.4853
2.87248	61.4306
2.87089	61.6207
2.8693	61.6944
2.86772	61.733
2.86613	61.7109
2.86455	61.6267
2.86297	61.6445
2.86139	61.7946
2.85981	61.9281
2.85823	61.9079
2.85666	61.9463
2.85508	62.0088
2.85351	62.0213
2.85194	62.0604
2.85038	62.1434
2.84881	62.272
2.84724	62.2671
2.84568	62.2944
2.84412	62.2237
2.84256	62.3166
2.841	62.4368
2.83945	62.4642
2.83789	62.4757
2.83634	62.5898
2.83479	62.6916
2.83324	62.7544
2.83169	62.7234
2.83015	62.7458
2.82861	62.8246
2.82706	62.8217
2.82552	62.7993
2.82398	62.9497
2.82245	63.1185
2.82091	63.2928
2.81938	63.37
2.81784	63.3482
2.81631	63.4236
2.81479	63.5875
2.81326	63.6287
2.81173	63.6545
2.81021	63.6534
2.80869	63.6992
2.80716	63.8518
2.80565	64.0628
2.80413	64.3193
2.80261	64.3029
2.8011	64.034
2.79959	63.9984
2.79808	64.095
2.79657	64.1491
2.79506	64.1533
2.79355	64.1857
2.79205	64.1673
2.79055	64.2336
2.78904	64.4499
2.78754	64.7416
2.78605	64.6458
2.78455	64.4277
2.78306	64.4791
2.78156	64.5092
2.78007	64.452
2.77858	64.3662
2.77709	64.4121
2.77561	64.3819
2.77412	64.4201
2.77264	64.6834
2.77116	65.0362
2.76968	65.012
2.7682	64.9696
2.76672	64.8439
2.76524	64.6729
2.76377	64.7893
2.7623	64.8115
2.76083	64.6828
2.75936	64.7715
2.75789	65.2687
2.75642	66.028
2.75496	66.4152
2.7535	66.1324
2.75203	66.204
2.75057	66.3968
2.74912	66.5833
2.74766	66.8326
2.7462	67.1391
2.74475	67.4105
2.7433	67.801
2.74185	68.6328
2.7404	69.3669
2.73895	69.3344
2.7375	68.9406
2.73606	69.2311
2.73462	69.6745
2.73318	69.5965
2.73174	69.7635
2.7303	70.021
2.72886	70.2366
2.72742	70.6171
2.72599	71.2108
2.72456	71.7943
2.72313	71.5337
2.7217	71.8423
2.72027	72.2735
2.71884	71.7141
2.71742	71.6699
2.71599	71.9424
2.71457	72.3508
2.71315	72.9309
2.71173	74.1288
2.71032	74.7482
2.7089	74.4701
2.70748	74.3635
2.70607	74.648
2.70466	74.9839
2.70325	75.4453
2.70184	76.2442
2.70043	76.9792
2.69903	77.6165
2.69762	78.4783
2.69622	79.6073
2.69482	80.7182
2.69342	81.4608
2.69202	81.6833
2.69062	82.0861
2.68923	82.8255
2.68783	83.578
2.68644	84.1402
2.68505	84.6574
2.68366	85.2651
2.68227	85.5349
2.68089	86.0085
2.6795	87.0126
2.67812	87.4592
2.67673	87.8038
2.67535	87.6267
2.67397	87.3704
2.6726	87.6503
2.67122	88.9524
2.66984	89.2404
2.66847	88.4929
2.6671	89.0702
2.66572	89.3225
2.66435	88.8042
2.66299	88.1133
2.66162	88.2193
2.66025	88.4026
2.65889	88.4314
2.65753	88.2288
2.65616	88.3199
2.65481	88.3074
2.65345	88.4865
2.65209	88.5929
2.65073	88.3385
2.64938	88.2281
2.64803	88.3057
2.64667	88.5115
2.64532	88.6897
2.64397	88.5443
2.64263	88.5508
2.64128	88.5759
2.63994	88.568
2.63859	88.5554
2.63725	88.6117
2.63591	88.7062
2.63457	88.9604
2.63323	88.8704
2.6319	89.0602
2.63056	89.7181
2.62923	89.3213
2.62789	89.0743
2.62656	89.4349
2.62523	88.9253
2.6239	88.5368
2.62258	88.6784
2.62125	89.4981
2.61993	89.7723
2.6186	89.3768
2.61728	89.8231
2.61596	89.6393
2.61464	89.0653
2.61332	89.0302
2.61201	88.8952
2.61069	89.0431
2.60938	89.2875
2.60807	89.3457
2.60675	89.5918
2.60544	89.9107
2.60414	89.5963
2.60283	89.319
2.60152	89.1793
2.60022	88.9724
2.59891	88.8822
2.59761	89.114
2.59631	90.063
2.59501	91.2593
2.59371	90.4736
2.59242	89.2603
2.59112	88.9473
2.58983	89.1025
2.58853	89.3711
2.58724	89.514
2.58595	89.3034
2.58466	89.6881
2.58338	89.7782
2.58209	89.3063
2.5808	89.2853
2.57952	89.0407
2.57824	89.2003
2.57695	89.443
2.57567	89.2226
2.5744	89.4712
2.57312	89.6166
2.57184	89.0445
2.57057	89.2527
2.56929	89.4415
2.56802	89.0642
2.56675	88.9483
2.56548	89.2442
2.56421	89.6518
2.56294	89.7579
2.56168	89.7176
2.56041	89.5067
2.55915	89.0887
2.55789	88.9226
2.55662	89.0007
2.55536	89.0142
2.5541	89.0223
2.55285	89.182
2.55159	89.202
2.55034	89.124
2.54908	89.1301
2.54783	89.1523
2.54658	89.0804
2.54533	89.0552
2.54408	89.1164
2.54283	89.218
2.54159	89.145
2.54034	88.9635
2.5391	88.8755
2.53785	88.9188
2.53661	89.1263
2.53537	89.0947
2.53413	88.9106
2.53289	88.9499
2.53166	89.0065
2.53042	88.8688
2.52919	88.8723
2.52795	89.0578
2.52672	89.0637
2.52549	89.0763
2.52426	89.1044
2.52303	89.0339
2.52181	88.9922
2.52058	88.9482
2.51936	88.9423
2.51813	88.9675
2.51691	88.9547
2.51569	89.0227
2.51447	89.0288
2.51325	88.9983
2.51203	88.9366
2.51082	88.9517
2.5096	88.9378
2.50839	88.9919
2.50717	89.0388
2.50596	89.0247
2.50475	89.0341
2.50354	89.0111
2.50233	89.09
2.50113	89.1234
2.49992	89.0877
2.49872	88.9494
2.49751	88.9134
2.49631	88.886
2.49511	88.9001
2.49391	89.0248
2.49271	89.1229
2.49151	89.0309
2.49031	89.0239
2.48912	89.1418
2.48792	89.171
2.48673	89.0365
2.48554	88.9889
2.48435	88.9669
2.48316	88.9026
2.48197	88.9533
2.48078	89.0726
2.4796	89.0811
2.47841	89.0495
2.47723	89.103
2.47604	89.1482
2.47486	89.1386
2.47368	89.096
2.4725	89.0876
2.47132	89.0989
2.47014	89.1351
2.46897	89.1558
2.46779	89.0688
2.46662	88.9938
2.46545	89.069
2.46427	89.1132
2.4631	89.1386
2.46193	89.2193
2.46077	89.234
2.4596	89.1747
2.45843	89.1269
2.45727	89.117
2.4561	89.1432
2.45494	89.1312
2.45378	89.1163
2.45262	89.1897
2.45146	89.3452
2.4503	89.35
2.44914	89.2549
2.44799	89.2787
2.44683	89.357
2.44568	89.3888
2.44452	89.2894
2.44337	89.2034
2.44222	89.2192
2.44107	89.2264
2.43992	89.291
2.43877	89.3268
2.43763	89.3616
2.43648	89.4309
2.43534	89.4129
2.43419	89.3731
2.43305	89.4054
2.43191	89.5103
2.43077	89.4992
2.42963	89.5021
2.42849	89.5346
2.42736	89.6519
2.42622	89.7102
2.42509	89.5366
2.42395	89.3501
2.42282	89.2619
2.42169	89.3186
2.42056	89.3958
2.41943	89.4858
2.4183	89.4235
2.41717	89.4078
2.41605	89.4734
2.41492	89.4251
2.4138	89.5588
2.41267	89.711
2.41155	89.6011
2.41043	89.5843
2.40931	89.6105
2.40819	89.6792
2.40707	89.6817
2.40595	89.6551
2.40484	89.6698
2.40372	89.5913
2.40261	89.5894
2.4015	89.7311
2.40039	89.6916
2.39928	89.5563
2.39817	89.5879
2.39706	89.7248
2.39595	89.7907
2.39484	89.7794
2.39374	89.7199
2.39263	89.6735
2.39153	89.7343
2.39043	89.7327
2.38932	89.7543
2.38822	89.7791
2.38712	89.753
2.38603	89.7907
2.38493	89.7827
2.38383	89.7798
2.38274	89.691
2.38164	89.7034
2.38055	89.8149
2.37946	89.8983
2.37836	89.9633
2.37727	89.9738
2.37618	89.8802
2.3751	89.8192
2.37401	89.8613
2.37292	89.8896
2.37184	89.8154
2.37075	89.8824
2.36967	89.9614
2.36859	89.8857
2.3675	89.8973
2.36642	89.971
2.36534	90.017
2.36427	90.0146
2.36319	90.0289
2.36211	90.1348
2.36104	90.1317
2.35996	89.9965
2.35889	89.9029
2.35781	89.8925
2.35674	89.9794
2.35567	90.0465
2.3546	90.1183
2.35353	90.102
2.35247	90.0111
2.3514	90.0064
2.35033	90.0706
2.34927	90.0474
2.3482	90.0629
2.34714	90.1252
2.34608	90.091
2.34502	90.149
2.34396	90.187
2.3429	90.0703
2.34184	90.0283
2.34078	90.0551
2.33973	90.0563
2.33867	89.9406
2.33762	89.9386
2.33656	90.0619
2.33551	90.1016
2.33446	90.0849
2.33341	89.9647
2.33236	90.035
2.33131	90.1399
2.33026	90.1851
2.32922	90.1388
2.32817	90.0608
2.32712	90.1877
2.32608	90.2209
2.32504	90.2005
2.324	90.1065
2.32295	90.0699
2.32191	90.1249
2.32087	90.0668
2.31984	90.0695
2.3188	89.9878
2.31776	89.9389
2.31673	89.9538
2.31569	89.9813
2.31466	90.0159
2.31362	89.9469
2.31259	89.8561
2.31156	89.9459
2.31053	90.1253
2.3095	90.1062
2.30847	90.1758
2.30745	90.2711
2.30642	90.1837
2.3054	90.0194
2.30437	90.1198
2.30335	90.1784
2.30232	90.1688
2.3013	90.1815
2.30028	90.2453
2.29926	90.2592
2.29824	90.2247
2.29722	90.1542
2.29621	90.193
2.29519	90.1804
2.29417	90.1738
2.29316	90.2489
2.29215	90.3028
2.29113	90.3233
2.29012	90.3624
2.28911	90.2991
2.2881	90.3005
2.28709	90.2465
2.28608	90.2312
2.28507	90.3212
2.28407	90.3393
2.28306	90.3081
2.28206	90.386
2.28105	90.4241
2.28005	90.3582
2.27905	90.4482
2.27805	90.4563
2.27705	90.4442
2.27605	90.4868
2.27505	90.5148
2.27405	90.4494
2.27305	90.3421
2.27206	90.3533
2.27106	90.4338
2.27007	90.3314
2.26907	90.295
2.26808	90.3673
2.26709	90.4097
2.2661	90.3799
2.26511	90.3536
2.26412	90.4327
2.26313	90.5209
2.26214	90.5491
2.26116	90.4941
2.26017	90.4458
2.25919	90.5775
2.2582	90.6651
2.25722	90.4995
2.25624	90.4475
2.25526	90.4514
2.25428	90.4423
2.2533	90.3829
2.25232	90.2756
2.25134	90.3181
2.25036	90.6237
2.24939	90.6279
2.24841	90.5681
2.24744	90.6137
2.24646	90.5865
2.24549	90.5219
2.24452	90.3601
2.24355	90.409
2.24257	90.3421
2.24161	90.3254
2.24064	90.5211
2.23967	90.5693
2.2387	90.5864
2.23774	90.5803
2.23677	90.5902
2.23581	90.5315
2.23484	90.4746
2.23388	90.5824
2.23292	90.6342
2.23196	90.5567
2.231	90.4898
2.23004	90.455
2.22908	90.4331
2.22812	90.5051
2.22716	90.6522
2.22621	90.7592
2.22525	90.7935
2.2243	90.6552
2.22334	90.4738
2.22239	90.512
2.22144	90.5528
2.22049	90.4338
2.21953	90.3627
2.21859	90.3867
2.21764	90.5186
2.21669	90.5908
2.21574	90.5496
2.21479	90.5779
2.21385	90.6895
2.2129	90.7843
2.21196	90.6365
2.21102	90.4514
2.21007	90.5264
2.20913	90.6053
2.20819	90.5301
2.20725	90.5293
2.20631	90.5894
2.20537	90.5516
2.20444	90.5809
2.2035	90.6198
2.20256	90.5249
2.20163	90.5094
2.20069	90.6385
2.19976	90.7693
2.19883	90.6812
2.19789	90.5784
2.19696	90.6109
2.19603	90.6594
2.1951	90.6968
2.19417	90.888
2.19325	90.9162
2.19232	90.7192
2.19139	90.6723
2.19047	90.7482
2.18954	90.7671
2.18862	90.7204
2.18769	90.782
2.18677	90.7936
2.18585	90.7136
2.18493	90.6375
2.18401	90.7322
2.18309	90.8869
2.18217	90.7786
2.18125	90.7227
2.18033	90.78
2.17942	90.8594
2.1785	90.8288
2.17759	90.765
2.17667	90.7731
2.17576	90.7701
2.17485	90.7942
2.17393	90.8911
2.17302	90.9729
2.17211	90.8959
2.1712	90.9391
2.17029	90.9736
2.16939	90.7308
2.16848	90.6353
2.16757	90.7726
2.16667	90.8309
2.16576	90.7665
2.16486	90.8678
2.16395	91.136
2.16305	91.25
2.16215	91.0021
2.16125	90.8705
2.16035	90.8904
2.15945	90.8676
2.15855	90.8817
2.15765	90.8353
2.15675	90.8432
2.15586	90.8493
2.15496	90.9125
2.15406	90.981
2.15317	90.961
2.15228	90.8695
2.15138	90.9689
2.15049	91.0996
2.1496	90.9306
2.14871	90.7702
2.14782	90.9376
2.14693	91.0421
2.14604	91.0486
2.14515	91.0427
2.14427	91.0394
2.14338	91.0958
2.14249	91.1642
2.14161	91.085
2.14072	91.0965
2.13984	91.099
2.13896	90.9546
2.13808	90.8831
2.13719	90.8724
2.13631	91.0181
2.13543	91.1402
2.13455	91.0779
2.13368	91.0155
2.1328	91.0801
2.13192	91.1927
2.13105	91.2609
2.13017	91.2344
2.1293	91.1049
2.12842	90.9317
2.12755	91.0289
2.12668	91.0261
2.1258	90.8852
2.12493	90.7788
2.12406	90.8783
2.12319	90.9677
2.12232	90.9839
2.12145	90.9438
2.12059	91.0662
2.11972	91.0854
2.11885	90.9699
2.11799	90.9889
2.11712	91.1392
2.11626	91.0629
2.1154	91.1867
2.11453	91.2022
2.11367	91.0861
2.11281	91.1137
2.11195	90.9881
2.11109	90.9381
2.11023	91.053
2.10937	91.2514
2.10851	91.223
2.10766	91.1478
2.1068	91.2915
2.10594	91.0937
2.10509	91.0232
2.10423	91.2108
2.10338	91.2309
2.10253	91.1216
2.10168	91.0218
2.10082	91.0923
2.09997	91.1188
2.09912	90.9843
2.09827	91.0563
2.09742	91.1448
2.09658	91.201
2.09573	91.1008
2.09488	91.098
2.09404	91.0725
2.09319	90.9138
2.09235	90.7985
2.0915	90.8847
2.09066	91.1471
2.08982	91.2983
2.08897	91.2154
2.08813	91.14
2.08729	91.1832
2.08645	91.1132
2.08561	90.9729
2.08477	90.9146
2.08394	90.9132
2.0831	91.0808
2.08226	90.9885
2.08143	91.0462
2.08059	91.3381
2.07976	91.4898
2.07892	91.3602
2.07809	91.0563
2.07726	90.8353
2.07643	90.9329
2.07559	91.0073
2.07476	91.0309
2.07393	91.1774
2.0731	91.2049
2.07228	91.088
2.07145	91.0251
2.07062	90.8362
2.06979	90.911
2.06897	91.0882
2.06814	91.4029
2.06732	91.5792
2.06649	91.4489
2.06567	91.2609
2.06485	91.1103
2.06403	91.1475
2.0632	91.1717
2.06238	91.1933
2.06156	91.0718
2.06074	91.1165
2.05993	91.2362
2.05911	91.2903
2.05829	91.2194
2.05747	91.1002
2.05666	90.9831
2.05584	91.0386
2.05503	91.3454
2.05421	91.1297
2.0534	90.9823
2.05259	91.2685
2.05177	91.313
2.05096	91.3308
2.05015	91.3034
2.04934	91.2672
2.04853	91.0542
2.04772	90.9062
2.04691	91.2262
2.04611	91.4856
2.0453	91.2665
2.04449	91.1661
2.04369	91.187
2.04288	91.3196
2.04208	91.1895
2.04127	91.0804
2.04047	91.1084
2.03967	90.9827
2.03886	90.9033
2.03806	90.9163
2.03726	91.0004
2.03646	91.1453
2.03566	91.1683
2.03486	91.0472
2.03407	90.9574
2.03327	90.9195
2.03247	90.9354
2.03167	91.0835
2.03088	91.0294
2.03008	90.9287
2.02929	91.2255
2.0285	91.3695
2.0277	91.1097
2.02691	91.0923
2.02612	91.3282
2.02533	91.3874
2.02453	91.3183
2.02374	91.1142
2.02295	90.9008
2.02217	90.9767
2.02138	91.0535
2.02059	91.1154
2.0198	91.1822
2.01902	91.0639
2.01823	91.0756
2.01744	90.9657
2.01666	91.1222
2.01588	91.3301
2.01509	91.2286
2.01431	91.2495
2.01353	91.2471
2.01275	91.0977
2.01196	91.1299
2.01118	91.183
2.0104	90.9586
2.00963	91.0971
2.00885	91.2006
2.00807	91.0993
2.00729	90.9689
2.00651	91.0021
2.00574	90.986
2.00496	90.9966
2.00419	91.0978
2.00341	91.0713
2.00264	90.7874
2.00187	90.7255
2.00109	90.7598
2.00032	90.6449
