Name: Anhydrite CaSO_4
Type: Mineral
Class: Sulfates
Subclass: 
Particle Size: 0-45um
Sample No.: SO-1A
Owner: JPL
Wavelength range: IR
Origin: Canada, Nova Scotia
Collected by Ward's
Description: 





Measurement: Hemispherical reflectance
First Column: X
Second Column: Y
X Units:  Wavelength (micrometers)
Y Units:  Reflectance (percent)
First X Value: 15.3853
Last X Value: 2.00032
Number of X Values: 2256
Additional information: so01aa.txt
 
15.3853	16.7265
15.3397	16.7751
15.2945	16.5805
15.2495	16.0637
15.2048	14.9493
15.1603	13.4914
15.1161	11.8741
15.0722	10.4927
15.0285	9.12809
14.9851	8.12381
14.9419	7.6808
14.8989	7.93659
14.8563	8.19182
14.8138	8.41934
14.7716	8.92923
14.7296	9.19914
14.6879	9.52919
14.6464	9.64316
14.6052	9.74778
14.5641	10.0446
14.5233	10.8886
14.4828	12.0469
14.4424	13.1284
14.4023	14.1907
14.3624	14.8505
14.3227	14.3427
14.2833	13.2494
14.244	12.3638
14.205	11.5954
14.1662	11.04
14.1276	10.716
14.0892	10.5606
14.051	10.4794
14.0131	10.6308
13.9753	11.3594
13.9377	12.131
13.9004	12.6595
13.8632	13.2355
13.8262	13.683
13.7895	14.0931
13.7529	14.4953
13.7165	14.8014
13.6803	15.4148
13.6443	16.1768
13.6085	16.4753
13.5729	16.7939
13.5374	17.0955
13.5022	17.145
13.4671	17.2403
13.4322	17.542
13.3975	17.9116
13.363	18.2919
13.3286	18.653
13.2944	19.2433
13.2604	19.9653
13.2266	20.6058
13.193	21.129
13.1595	21.7126
13.1262	22.336
13.093	22.8768
13.06	23.1472
13.0272	23.4009
12.9946	23.6335
12.9621	23.7189
12.9298	24.1588
12.8976	25.0427
12.8656	25.7984
12.8337	26.3005
12.8021	26.6655
12.7705	26.9054
12.7391	27.1185
12.7079	27.3953
12.6769	28.066
12.6459	28.8983
12.6152	29.5425
12.5845	29.9829
12.5541	30.1205
12.5238	29.9618
12.4936	29.9818
12.4635	30.2386
12.4337	30.4968
12.4039	30.8338
12.3743	31.1768
12.3448	31.1555
12.3155	31.0334
12.2863	30.9181
12.2573	30.8482
12.2284	30.7664
12.1996	30.6382
12.171	30.4163
12.1425	30.0669
12.1141	29.8107
12.0859	29.904
12.0578	30.0627
12.0298	30.1513
12.0019	30.0811
11.9742	29.8774
11.9466	29.5581
11.9192	29.1793
11.8918	28.8019
11.8646	28.5511
11.8375	28.5103
11.8106	28.5553
11.7837	28.7571
11.757	29.1141
11.7304	29.4393
11.7039	29.8097
11.6776	30.2239
11.6513	30.5107
11.6252	30.6775
11.5992	30.7321
11.5733	30.5582
11.5475	30.2855
11.5219	29.8933
11.4963	29.2676
11.4709	28.5454
11.4455	27.6463
11.4203	26.5837
11.3952	26.2412
11.3702	26.5924
11.3454	26.7444
11.3206	26.6936
11.2959	26.5749
11.2714	26.4434
11.2469	26.4497
11.2226	26.4516
11.1983	26.3675
11.1742	26.3177
11.1502	26.5691
11.1263	26.9086
11.1024	27.1747
11.0787	27.3805
11.0551	27.4762
11.0316	27.6675
11.0081	27.8312
10.9848	27.8444
10.9616	27.8305
10.9385	27.8564
10.9154	28.0912
10.8925	28.4035
10.8697	28.6752
10.8469	28.9546
10.8243	29.1045
10.8017	29.2789
10.7793	29.3613
10.7569	29.3445
10.7346	29.1792
10.7125	28.9457
10.6904	28.6745
10.6684	28.3498
10.6465	28.083
10.6247	27.9557
10.6029	27.8645
10.5813	27.7633
10.5597	27.7278
10.5383	27.6816
10.5169	27.6144
10.4956	27.5103
10.4744	27.3847
10.4533	27.2011
10.4323	27.0173
10.4113	26.9374
10.3904	26.7289
10.3697	26.5008
10.349	26.4003
10.3284	26.2448
10.3078	25.8715
10.2874	25.5362
10.267	25.1879
10.2467	24.9009
10.2265	24.8589
10.2064	24.8271
10.1863	24.6015
10.1663	24.2977
10.1464	24.0639
10.1266	23.9662
10.1069	23.8453
10.0872	23.7142
10.0676	23.4153
10.0481	22.9256
10.0287	22.1988
10.0093	21.451
9.99005	21.5139
9.97084	21.8229
9.95169	21.5062
9.93263	20.8482
9.91364	19.8006
9.89472	17.9644
9.87587	15.2892
9.8571	13.9323
9.83839	15.8729
9.81976	18.5039
9.80119	19.7688
9.78271	20.2895
9.76428	20.5794
9.74592	20.7553
9.72764	20.8733
9.70943	20.8023
9.69128	20.6825
9.6732	20.6654
9.65518	20.7029
9.63724	20.5963
9.61935	20.498
9.60155	20.378
9.5838	20.2824
9.56611	20.3234
9.5485	20.1455
9.53094	20.0067
9.51345	20.0849
9.49604	20.1653
9.47867	20.0559
9.46137	19.8845
9.44414	19.6264
9.42697	19.3982
9.40986	19.0897
9.39281	18.5992
9.37583	18.1408
9.35891	17.6537
9.34204	17.063
9.32524	16.4498
9.3085	15.6488
9.29182	14.8308
9.27519	14.1469
9.25863	13.4681
9.24213	12.6971
9.22568	12.0496
9.2093	11.4679
9.19297	10.8159
9.17669	10.3232
9.16048	9.9278
9.14433	9.73941
9.12823	9.59605
9.11218	9.67784
9.0962	9.91906
9.08027	10.0851
9.06439	10.1761
9.04858	10.2662
9.03281	10.2456
9.0171	10.4536
9.00145	10.6522
8.98585	10.6925
8.9703	10.9056
8.9548	11.2364
8.93937	11.5325
8.92398	11.9142
8.90865	12.2469
8.89337	12.4736
8.87814	12.7607
8.86296	13.1612
8.84784	13.4301
8.83277	13.6683
8.81774	13.8248
8.80277	13.9981
8.78786	14.2476
8.77298	14.3347
8.75816	14.5322
8.7434	14.9667
8.72868	15.4483
8.714	15.8128
8.69938	16.1815
8.68481	16.3835
8.67029	16.2942
8.65581	16.0636
8.64139	15.8295
8.62701	15.6787
8.61268	15.5662
8.5984	15.4785
8.58416	15.3348
8.56997	15.2171
8.55583	15.0881
8.54174	15.0624
8.52769	15.1339
8.51368	15.0061
8.49973	14.8371
8.48582	14.8894
8.47195	14.781
8.45813	14.6379
8.44436	14.633
8.43062	14.641
8.41693	14.605
8.4033	14.5353
8.3897	14.6932
8.37614	14.9005
8.36264	15.1391
8.34917	15.4946
8.33574	16.0767
8.32236	16.5594
8.30903	16.8663
8.29573	17.0916
8.28248	17.2674
8.26927	17.3019
8.2561	17.3175
8.24298	17.079
8.2299	16.3107
8.21685	15.4389
8.20385	15.0501
8.19089	14.9816
8.17797	14.9395
8.16509	14.7761
8.15225	14.6166
8.13946	14.4946
8.1267	14.3241
8.11398	14.0492
8.10131	13.6509
8.08867	13.2091
8.07606	12.5605
8.0635	11.6677
8.05099	10.4622
8.0385	9.14318
8.02606	8.09127
8.01366	7.28195
8.00129	6.70827
7.98896	6.2812
7.97667	5.90318
7.96442	5.45631
7.9522	4.89511
7.94002	4.39196
7.92788	3.97467
7.91578	3.54478
7.90371	3.1969
7.89168	2.80403
7.87969	2.45687
7.86773	2.30521
7.85581	2.05604
7.84392	1.81817
7.83207	1.67446
7.82026	1.53971
7.80849	1.36473
7.79674	1.30009
7.78503	1.25393
7.77337	1.14824
7.76173	1.11415
7.75012	1.14712
7.73856	1.15692
7.72703	1.18081
7.71553	1.26664
7.70406	1.3999
7.69263	1.51782
7.68123	1.66141
7.66987	1.86027
7.65855	2.06083
7.64725	2.22761
7.63598	2.29478
7.62475	2.37574
7.61356	2.4023
7.60239	2.45041
7.59126	2.55706
7.58017	2.77414
7.5691	2.97359
7.55806	3.07118
7.54707	3.23498
7.5361	3.47824
7.52516	3.58308
7.51425	3.71251
7.50338	3.94205
7.49253	4.15392
7.48172	4.44548
7.47094	4.68977
7.46019	4.8958
7.44947	5.0949
7.43879	5.30422
7.42813	5.58733
7.4175	5.89968
7.4069	6.22817
7.39634	6.52766
7.3858	6.89163
7.37529	7.23914
7.36482	7.59107
7.35437	7.93684
7.34396	8.32374
7.33357	8.6216
7.32321	8.8369
7.31288	9.07427
7.30258	9.44773
7.29231	9.768
7.28207	10.1199
7.27185	10.5441
7.26167	10.8804
7.25152	11.2638
7.24139	11.627
7.23129	11.9449
7.22122	12.262
7.21117	12.6099
7.20116	12.9452
7.19117	13.2267
7.18121	13.4288
7.17128	13.5789
7.16137	13.6068
7.1515	13.7158
7.14164	13.9333
7.13182	14.0676
7.12203	14.3328
7.11225	14.6376
7.10251	15.0394
7.0928	15.5326
7.08311	15.9422
7.07344	16.2143
7.06381	16.5997
7.0542	17.1266
7.04461	17.5009
7.03506	17.4462
7.02552	17.3812
7.01601	17.2744
7.00653	17.2232
6.99708	17.3689
6.98765	17.5606
6.97824	17.5945
6.96886	17.7727
6.95951	17.8543
6.95018	17.2057
6.94087	16.2409
6.9316	15.0434
6.92234	13.2426
6.91311	11.8053
6.90391	12.6223
6.89473	14.6428
6.88557	16.2298
6.87644	17.383
6.86733	18.8151
6.85824	19.722
6.84918	19.8969
6.84015	20.3496
6.83114	21.2146
6.82215	21.9848
6.81319	22.4897
6.80424	23.181
6.79532	24.2836
6.78643	25.1967
6.77756	25.5989
6.76871	25.9307
6.75989	26.1782
6.75109	26.4995
6.74231	26.6693
6.73355	26.9073
6.72482	27.2463
6.71611	27.747
6.70742	28.3399
6.69875	28.9314
6.69011	30.1525
6.68149	31.6683
6.67289	32.6788
6.66431	33.5112
6.65576	34.3358
6.64722	35.7323
6.63871	37.4589
6.63022	37.7578
6.62175	37.4464
6.61331	37.6884
6.60488	37.9727
6.59648	38.3903
6.5881	38.5839
6.57974	38.8073
6.5714	38.9289
6.56308	38.2408
6.55478	37.8265
6.54651	37.4027
6.53825	36.7404
6.53001	36.2717
6.5218	36.143
6.51361	35.37
6.50544	34.9386
6.49729	35.3563
6.48915	35.1887
6.48104	34.5459
6.47295	34.1554
6.46488	33.8943
6.45683	34.0475
6.4488	34.5323
6.44079	35.2532
6.4328	36.4017
6.42482	37.7997
6.41687	39.752
6.40894	40.1263
6.40103	39.371
6.39314	39.4086
6.38526	39.5282
6.37741	39.7536
6.36957	39.9453
6.36176	39.4291
6.35396	39.2859
6.34618	39.7053
6.33843	39.0825
6.33069	38.2079
6.32297	37.9776
6.31527	37.9326
6.30758	37.9229
6.29992	37.7204
6.29227	37.3803
6.28465	36.8299
6.27704	36.1973
6.26945	35.4172
6.26188	34.4606
6.25432	33.4574
6.24679	32.5292
6.23927	31.5388
6.23177	30.4352
6.22429	29.2275
6.21683	27.837
6.20938	26.1895
6.20195	24.3922
6.19454	22.712
6.18715	21.2238
6.17978	19.2569
6.17242	17.7488
6.16508	17.3171
6.15776	17.8748
6.15045	18.7447
6.14317	19.7565
6.1359	20.7851
6.12864	22.0633
6.12141	23.9203
6.11419	26.1087
6.10699	27.5628
6.0998	28.7269
6.09263	30.039
6.08549	31.2962
6.07835	32.8099
6.07123	33.9631
6.06413	34.2925
6.05705	35.3323
6.04998	37.0583
6.04293	36.6873
6.0359	36.0754
6.02888	36.2118
6.02187	36.5408
6.01489	36.8663
6.00792	36.702
6.00096	36.6646
5.99403	37.1193
5.98711	37.2783
5.9802	36.9365
5.97331	36.7808
5.96644	36.2631
5.95958	35.0305
5.95274	34.1837
5.94591	33.7883
5.9391	34.1397
5.9323	33.8377
5.92552	33.6575
5.91876	34.4601
5.91201	35.2857
5.90528	36.4392
5.89856	38.6299
5.89186	40.4256
5.88517	42.5106
5.8785	44.4265
5.87184	44.9741
5.8652	46.5027
5.85857	47.78
5.85196	48.7137
5.84536	49.6334
5.83878	50.7863
5.83221	52.0581
5.82566	53.4206
5.81912	53.6677
5.81259	52.7261
5.80608	52.0917
5.79959	51.7777
5.79311	51.6399
5.78665	51.9502
5.78019	52.511
5.77376	53.5758
5.76734	55.1935
5.76093	55.2635
5.75453	55.1708
5.74815	56.0313
5.74179	56.1938
5.73543	56.1881
5.7291	56.4435
5.72277	57.0281
5.71646	57.5414
5.71017	58.0197
5.70389	57.9545
5.69762	58.3006
5.69136	58.9691
5.68513	59.3904
5.6789	60.164
5.67268	60.8502
5.66648	61.2083
5.6603	62.0141
5.65413	62.725
5.64797	63.3836
5.64182	63.9376
5.63569	63.4356
5.62957	62.9327
5.62347	62.7867
5.61737	62.7711
5.61129	62.5832
5.60522	62.3616
5.59917	61.8813
5.59313	60.9382
5.5871	60.2759
5.58109	60.0074
5.57509	59.4788
5.5691	58.9918
5.56312	59.0008
5.55716	59.4019
5.55121	60.1242
5.54528	60.7666
5.53935	61.3322
5.53344	61.6685
5.52754	62.0078
5.52166	62.2414
5.51578	62.4897
5.50992	62.8451
5.50407	63.2917
5.49823	63.6153
5.49241	63.9458
5.4866	64.2972
5.4808	64.9348
5.47501	65.2695
5.46923	65.788
5.46347	66.3585
5.45772	66.3587
5.45198	66.5319
5.44625	66.987
5.44054	67.4147
5.43484	67.8112
5.42914	68.4411
5.42347	69.3776
5.4178	69.5256
5.41214	69.4875
5.4065	69.6794
5.40087	69.85
5.39525	70.0285
5.38964	70.2301
5.38404	70.4722
5.37846	70.6602
5.37288	70.7075
5.36732	70.7613
5.36177	70.9103
5.35623	71.2263
5.35071	71.5137
5.34519	71.3512
5.33968	71.2144
5.33419	71.3539
5.32871	71.4579
5.32324	71.4765
5.31778	71.542
5.31233	71.6398
5.30689	71.7507
5.30147	71.8446
5.29605	72.0186
5.29065	72.1448
5.28525	72.0804
5.27987	72.2047
5.2745	72.337
5.26914	72.3738
5.26379	72.404
5.25845	72.4718
5.25312	72.5886
5.24781	72.7341
5.2425	72.8647
5.23721	73.0747
5.23192	73.1284
5.22665	73.1618
5.22138	73.3196
5.21613	73.7346
5.21089	73.8622
5.20566	73.7939
5.20044	73.9066
5.19522	73.9188
5.19002	73.9231
5.18483	73.9235
5.17965	73.9372
5.17448	73.946
5.16933	73.9665
5.16418	73.9371
5.15904	73.9045
5.15391	73.9233
5.14879	73.9902
5.14368	73.8876
5.13859	73.7359
5.1335	73.5978
5.12842	73.4938
5.12335	73.4144
5.1183	73.2733
5.11325	73.1732
5.10821	73.048
5.10318	72.8751
5.09817	72.6808
5.09316	72.5855
5.08816	72.5288
5.08317	72.4657
5.07819	72.3593
5.07322	72.2863
5.06826	72.2126
5.06331	72.1208
5.05837	72.0793
5.05344	72.1226
5.04852	72.0731
5.04361	71.9987
5.03871	71.8863
5.03382	71.7651
5.02894	71.7492
5.02406	71.7024
5.0192	71.5847
5.01435	71.4039
5.0095	71.2408
5.00467	71.1997
4.99984	71.1908
4.99502	71.112
4.99021	70.9887
4.98542	70.8371
4.98063	70.6597
4.97585	70.5388
4.97108	70.3915
4.96632	70.2477
4.96156	70.1435
4.95682	70.014
4.95209	69.6507
4.94736	69.1104
4.94264	68.4812
4.93794	67.6017
4.93324	66.2264
4.92855	64.77
4.92387	64.3209
4.9192	65.3119
4.91453	66.7568
4.90988	67.864
4.90524	68.5236
4.9006	68.8829
4.89597	68.9943
4.89135	68.9977
4.88674	68.9273
4.88214	68.8687
4.87755	68.7624
4.87296	68.5834
4.86839	68.3659
4.86382	68.184
4.85926	68.0578
4.85471	67.8875
4.85017	67.5925
4.84564	67.3904
4.84111	67.2494
4.8366	66.9801
4.83209	66.6386
4.82759	66.2682
4.8231	65.9269
4.81862	65.5773
4.81415	65.1774
4.80968	64.7133
4.80522	64.2136
4.80077	63.6593
4.79633	62.9583
4.7919	62.1754
4.78747	61.4007
4.78306	60.5337
4.77865	59.5074
4.77425	58.3966
4.76986	57.233
4.76547	56.0073
4.7611	54.7294
4.75673	53.3598
4.75237	51.8722
4.74802	50.2112
4.74367	48.2757
4.73934	46.0859
4.73501	43.4034
4.73069	40.2242
4.72638	36.8085
4.72207	33.3157
4.71777	29.7491
4.71348	26.116
4.7092	22.6507
4.70493	19.5428
4.70066	17.0602
4.69641	15.4683
4.69216	14.8301
4.68791	14.8923
4.68368	15.3621
4.67945	15.7839
4.67523	15.9044
4.67102	15.8834
4.66682	16.0318
4.66262	16.4554
4.65843	17.2474
4.65425	18.3657
4.65007	19.7001
4.64591	21.1674
4.64175	22.7095
4.6376	24.249
4.63345	25.356
4.62932	26.1383
4.62519	26.7243
4.62106	27.1103
4.61695	27.5935
4.61284	28.0668
4.60874	28.5084
4.60465	29.1688
4.60056	29.89
4.59648	30.6439
4.59241	31.5161
4.58835	32.4709
4.58429	33.4949
4.58024	34.3599
4.5762	34.8899
4.57216	35.0996
4.56814	35.0651
4.56411	34.9193
4.5601	34.6051
4.55609	34.2338
4.55209	33.8567
4.5481	33.4448
4.54411	33.0493
4.54013	32.6504
4.53616	32.2354
4.5322	31.9081
4.52824	31.6762
4.52429	31.3597
4.52034	30.953
4.51641	30.5551
4.51247	30.2231
4.50855	29.8218
4.50463	29.2853
4.50072	28.8319
4.49682	28.4
4.49292	27.9139
4.48903	27.3025
4.48515	26.5307
4.48127	25.8331
4.4774	25.3462
4.47354	25.1137
4.46968	25.1478
4.46584	25.2483
4.46199	25.444
4.45815	25.735
4.45432	26.13
4.4505	26.3735
4.44668	26.7932
4.44287	27.5632
4.43907	28.5719
4.43527	29.7675
4.43148	30.8873
4.4277	31.7689
4.42392	32.6273
4.42015	33.5279
4.41638	34.3037
4.41262	35.0476
4.40887	35.7795
4.40513	36.4684
4.40139	36.9989
4.39765	37.2903
4.39393	37.402
4.39021	37.4036
4.38649	37.1601
4.38278	36.7049
4.37908	36.338
4.37539	36.1789
4.3717	36.129
4.36801	36.0577
4.36434	35.9852
4.36067	35.8879
4.357	35.7355
4.35335	35.5296
4.34969	35.4022
4.34605	35.4614
4.34241	35.8124
4.33877	36.5505
4.33514	37.4677
4.33152	38.3129
4.32791	39.0174
4.3243	39.5777
4.32069	39.9637
4.3171	40.361
4.31351	40.7215
4.30992	40.951
4.30634	41.1835
4.30277	41.4016
4.2992	41.4489
4.29564	41.4271
4.29208	41.413
4.28853	41.4075
4.28499	41.4854
4.28145	41.609
4.27792	41.9003
4.27439	42.4092
4.27087	42.9981
4.26735	43.6051
4.26384	44.2757
4.26034	44.9996
4.25684	45.9893
4.25335	47.507
4.24986	49.1999
4.24638	50.7302
4.24291	52.0415
4.23944	52.9851
4.23598	53.6923
4.23252	54.254
4.22906	54.6742
4.22562	54.9839
4.22218	55.2122
4.21874	55.1662
4.21531	54.9053
4.21189	54.5416
4.20847	54.2315
4.20506	54.0518
4.20165	54.0417
4.19825	54.314
4.19485	54.7364
4.19146	55.1417
4.18807	55.7642
4.18469	56.6126
4.18132	57.5153
4.17795	58.5741
4.17458	59.8468
4.17123	61.2417
4.16787	62.7757
4.16453	64.381
4.16118	65.8339
4.15785	66.9737
4.15451	67.8152
4.15119	68.4925
4.14787	69.1143
4.14455	69.5814
4.14124	69.9846
4.13794	70.3211
4.13464	70.6861
4.13134	71.0611
4.12805	71.3724
4.12477	71.6309
4.12149	71.9323
4.11822	72.2217
4.11495	72.5021
4.11168	72.7515
4.10843	73.0212
4.10517	73.1834
4.10192	73.3245
4.09868	73.5437
4.09545	73.7641
4.09221	73.9377
4.08899	74.1485
4.08576	74.3273
4.08255	74.545
4.07933	74.7007
4.07613	74.7857
4.07292	74.926
4.06973	75.128
4.06654	75.3436
4.06335	75.5011
4.06017	75.5349
4.05699	75.6297
4.05382	75.8269
4.05065	75.9932
4.04749	76.0808
4.04433	76.1713
4.04118	76.1889
4.03803	76.179
4.03489	76.1265
4.03175	76.1758
4.02862	76.2874
4.02549	76.3064
4.02237	76.2537
4.01925	76.2107
4.01614	76.1594
4.01303	75.9832
4.00993	75.7266
4.00683	75.5576
4.00373	75.2649
4.00064	74.8737
3.99756	74.5311
3.99448	74.2939
3.9914	73.9736
3.98833	73.5649
3.98527	73.1411
3.98221	72.7164
3.97915	72.3258
3.9761	72.143
3.97305	72.2948
3.97001	72.543
3.96697	72.8012
3.96394	73.1569
3.96091	73.4874
3.95789	73.8832
3.95487	74.2284
3.95186	74.5422
3.94885	74.9218
3.94584	75.2826
3.94284	75.6142
3.93984	75.976
3.93685	76.2377
3.93386	76.3771
3.93088	76.4748
3.9279	76.5467
3.92493	76.6589
3.92196	76.8534
3.919	77.0083
3.91604	77.1989
3.91308	77.4338
3.91013	77.7023
3.90718	77.9361
3.90424	78.1301
3.9013	78.3548
3.89837	78.5467
3.89544	78.6902
3.89252	78.8207
3.8896	78.9093
3.88668	78.988
3.88377	79.133
3.88086	79.265
3.87796	79.2838
3.87506	79.2658
3.87217	79.3713
3.86928	79.6124
3.86639	79.7471
3.86351	79.8055
3.86064	79.97
3.85776	80.2291
3.8549	80.4597
3.85203	80.6183
3.84917	80.7504
3.84631	80.8818
3.84346	81.0176
3.84062	81.0283
3.83777	80.9893
3.83494	81.0707
3.8321	81.1973
3.82927	81.3356
3.82644	81.3359
3.82362	81.2864
3.82081	81.242
3.81799	81.1393
3.81518	81.0512
3.81238	80.9697
3.80958	80.8206
3.80678	80.6773
3.80399	80.5889
3.8012	80.5765
3.79841	80.5426
3.79563	80.5821
3.79286	80.7159
3.79008	80.9152
3.78731	81.1376
3.78455	81.2862
3.78179	81.4656
3.77903	81.8055
3.77628	82.0189
3.77353	82.1388
3.77079	82.3206
3.76805	82.5554
3.76531	82.6914
3.76258	82.8456
3.75985	82.9854
3.75713	83.0044
3.7544	83.0564
3.75169	83.188
3.74898	83.3466
3.74627	83.3269
3.74356	83.3359
3.74086	83.3317
3.73816	83.3259
3.73547	83.4286
3.73278	83.5103
3.7301	83.5117
3.72741	83.4655
3.72474	83.4089
3.72206	83.3731
3.71939	83.4248
3.71673	83.4721
3.71406	83.4338
3.71141	83.4305
3.70875	83.3739
3.7061	83.2824
3.70345	83.2291
3.70081	83.1172
3.69817	82.9775
3.69553	82.9042
3.6929	82.8801
3.69027	82.8959
3.68765	82.9265
3.68503	82.8997
3.68241	82.8968
3.6798	82.8846
3.67719	82.8673
3.67458	82.9056
3.67198	82.9479
3.66938	82.8497
3.66678	82.7996
3.66419	82.7538
3.66161	82.6598
3.65902	82.5266
3.65644	82.411
3.65387	82.3006
3.65129	82.2949
3.64872	82.3023
3.64616	82.2345
3.64359	82.1606
3.64103	82.1203
3.63848	82.032
3.63593	81.9757
3.63338	81.9645
3.63084	81.9174
3.6283	81.9521
3.62576	81.9653
3.62322	81.8477
3.62069	81.8075
3.61817	81.8175
3.61564	81.8125
3.61312	81.7375
3.61061	81.6757
3.6081	81.6287
3.60559	81.6057
3.60308	81.5787
3.60058	81.4447
3.59808	81.2997
3.59558	81.2356
3.59309	81.184
3.59061	81.1289
3.58812	81.0395
3.58564	80.9365
3.58316	80.8712
3.58069	80.8246
3.57822	80.7316
3.57575	80.5675
3.57328	80.4837
3.57082	80.418
3.56836	80.3297
3.56591	80.2878
3.56346	80.2266
3.56101	80.1067
3.55857	79.9227
3.55613	79.8066
3.55369	79.7152
3.55126	79.6076
3.54883	79.4714
3.5464	79.2761
3.54397	79.1412
3.54155	79.044
3.53914	78.9539
3.53672	78.8065
3.53431	78.5459
3.5319	78.361
3.5295	78.1828
3.5271	77.9664
3.5247	77.7639
3.52231	77.5106
3.51991	77.289
3.51753	76.9995
3.51514	76.7266
3.51276	76.4966
3.51038	76.1833
3.50801	75.8395
3.50563	75.5047
3.50327	75.2957
3.5009	75.1854
3.49854	74.9985
3.49618	74.7889
3.49382	74.5921
3.49147	74.4406
3.48912	74.3053
3.48677	74.0846
3.48443	73.8879
3.48209	73.7672
3.47975	73.6528
3.47742	73.5141
3.47509	73.4364
3.47276	73.4059
3.47044	73.423
3.46812	73.4934
3.4658	73.542
3.46348	73.5009
3.46117	73.2839
3.45886	73.117
3.45656	73.1661
3.45425	73.2631
3.45195	73.2574
3.44966	73.1841
3.44736	73.1079
3.44507	73.0246
3.44279	72.9728
3.4405	72.9498
3.43822	72.9143
3.43594	72.8363
3.43367	72.7592
3.43139	72.7647
3.42912	72.6465
3.42686	72.4102
3.42459	72.2458
3.42233	72.2057
3.42007	72.127
3.41782	71.964
3.41557	71.7571
3.41332	71.5769
3.41108	71.521
3.40883	71.4886
3.40659	71.4053
3.40435	71.2935
3.40212	71.2702
3.39989	71.306
3.39766	71.2308
3.39544	71.1331
3.39322	71.0362
3.391	70.88
3.38878	70.7658
3.38657	70.6081
3.38436	70.5349
3.38215	70.4303
3.37994	70.2524
3.37774	70.0431
3.37554	69.9004
3.37335	69.8078
3.37115	69.6577
3.36896	69.5331
3.36678	69.4062
3.36459	69.2843
3.36241	69.1808
3.36023	69.0096
3.35805	68.7806
3.35588	68.6171
3.35371	68.4148
3.35154	68.2975
3.34938	68.213
3.34721	68.1411
3.34505	68.1324
3.3429	68.1195
3.34074	68.0768
3.33859	68.0315
3.33644	67.8905
3.3343	67.761
3.33215	67.71
3.33001	67.5575
3.32788	67.3928
3.32574	67.3052
3.32361	67.1721
3.32148	67.0427
3.31936	66.8195
3.31723	66.5509
3.31511	66.3936
3.31299	66.1769
3.31088	65.9976
3.30876	65.8358
3.30665	65.6275
3.30455	65.5106
3.30244	65.3486
3.30034	65.1644
3.29824	64.9793
3.29614	64.7772
3.29405	64.581
3.29196	64.4371
3.28987	64.2878
3.28778	64.1308
3.2857	63.9463
3.28362	63.695
3.28154	63.4627
3.27946	63.2489
3.27739	62.9899
3.27532	62.7799
3.27325	62.6755
3.27119	62.4882
3.26913	62.2962
3.26707	62.0786
3.26501	61.8247
3.26295	61.548
3.2609	61.3527
3.25885	61.1204
3.2568	60.874
3.25476	60.6438
3.25272	60.4234
3.25068	60.2172
3.24864	60.0668
3.24661	59.8577
3.24458	59.5502
3.24255	59.276
3.24052	59.0337
3.2385	58.7844
3.23648	58.5468
3.23446	58.3695
3.23244	58.2075
3.23043	58.0386
3.22841	57.8003
3.2264	57.4449
3.2244	57.1715
3.22239	56.9561
3.22039	56.7342
3.21839	56.5401
3.2164	56.2452
3.2144	56.0327
3.21241	55.8172
3.21042	55.5181
3.20844	55.2564
3.20645	55.0113
3.20447	54.7607
3.20249	54.5068
3.20051	54.2174
3.19854	53.9254
3.19657	53.5676
3.1946	53.1671
3.19263	52.7872
3.19067	52.4822
3.1887	52.166
3.18674	51.9022
3.18479	51.6176
3.18283	51.2204
3.18088	51.0249
3.17893	50.7889
3.17698	50.4775
3.17504	50.1858
3.17309	49.8686
3.17115	49.6543
3.16921	49.4626
3.16728	49.201
3.16534	48.9163
3.16341	48.6605
3.16148	48.3361
3.15956	47.9796
3.15763	47.696
3.15571	47.4547
3.15379	47.1829
3.15187	46.8342
3.14996	46.4991
3.14805	46.1074
3.14614	45.7889
3.14423	45.4898
3.14232	45.1958
3.14042	44.9133
3.13852	44.6678
3.13662	44.3799
3.13472	44.1183
3.13283	43.8456
3.13094	43.5571
3.12905	43.339
3.12716	43.1859
3.12528	42.9885
3.12339	42.8555
3.12151	42.6886
3.11964	42.4024
3.11776	42.0962
3.11589	41.9074
3.11401	41.7237
3.11214	41.4183
3.11028	41.2045
3.10841	40.9958
3.10655	40.7429
3.10469	40.5714
3.10283	40.4213
3.10098	40.0217
3.09912	39.6384
3.09727	39.3642
3.09542	39.0923
3.09358	38.7742
3.09173	38.4667
3.08989	38.1548
3.08805	37.8232
3.08621	37.5386
3.08437	37.3653
3.08254	37.2606
3.08071	37.2053
3.07888	37.0858
3.07705	37.0324
3.07523	37.0967
3.0734	37.1487
3.07158	37.2552
3.06977	37.1903
3.06795	37.0063
3.06613	36.9667
3.06432	36.879
3.06251	36.7685
3.0607	36.6994
3.0589	36.586
3.0571	36.4916
3.05529	36.3777
3.05349	36.1692
3.0517	36.0738
3.0499	35.9325
3.04811	35.7406
3.04632	35.6442
3.04453	35.5306
3.04274	35.4088
3.04096	35.3548
3.03918	35.1244
3.0374	34.9813
3.03562	34.8339
3.03384	34.5556
3.03207	34.4642
3.03029	34.4016
3.02852	34.2641
3.02676	34.1194
3.02499	33.9993
3.02323	33.8734
3.02146	33.6586
3.0197	33.4901
3.01795	33.4064
3.01619	33.2711
3.01444	33.1077
3.01269	32.9631
3.01094	32.7666
3.00919	32.6887
3.00744	32.497
3.0057	32.2253
3.00396	32.0726
3.00222	32.0906
3.00048	32.0765
2.99875	31.9002
2.99701	31.6684
2.99528	31.565
2.99355	31.4923
2.99183	31.2836
2.9901	31.1925
2.98838	31.1228
2.98666	30.9351
2.98494	30.8272
2.98322	30.6842
2.9815	30.5079
2.97979	30.4203
2.97808	30.3694
2.97637	30.2614
2.97466	30.0939
2.97295	29.7937
2.97125	29.5621
2.96955	29.3803
2.96785	29.0988
2.96615	28.9317
2.96446	28.8321
2.96276	28.6184
2.96107	28.4252
2.95938	28.3316
2.95769	28.0651
2.95601	27.7765
2.95432	27.5827
2.95264	27.404
2.95096	27.2302
2.94928	27.1043
2.9476	27.0172
2.94593	26.8478
2.94425	26.7532
2.94258	26.6463
2.94092	26.6554
2.93925	26.6493
2.93758	26.6078
2.93592	26.5871
2.93426	26.5862
2.9326	26.6578
2.93094	26.8162
2.92928	27.0207
2.92763	26.9508
2.92598	26.7741
2.92433	26.9397
2.92268	27.2366
2.92103	27.2996
2.91939	27.2657
2.91775	27.2941
2.9161	27.351
2.91447	27.3212
2.91283	27.2228
2.91119	27.3479
2.90956	27.5809
2.90793	27.6491
2.9063	27.5937
2.90467	27.5673
2.90304	27.4658
2.90142	27.3379
2.89979	27.201
2.89817	26.9565
2.89656	26.836
2.89494	26.8044
2.89332	26.7208
2.89171	26.6048
2.8901	26.6335
2.88849	26.6498
2.88688	26.7278
2.88527	26.7508
2.88367	26.6266
2.88206	26.5979
2.88046	26.476
2.87886	26.401
2.87727	26.4254
2.87567	26.3314
2.87408	26.2491
2.87248	26.0874
2.87089	25.8315
2.8693	25.5648
2.86772	25.1956
2.86613	24.8822
2.86455	24.8839
2.86297	25.2472
2.86139	25.787
2.85981	26.2874
2.85823	26.7417
2.85666	27.1882
2.85508	27.559
2.85351	27.76
2.85194	27.8402
2.85038	27.9488
2.84881	28.0332
2.84724	28.0447
2.84568	28.1525
2.84412	28.2643
2.84256	28.3791
2.841	28.5636
2.83945	28.6778
2.83789	28.7943
2.83634	28.9002
2.83479	29.0579
2.83324	29.147
2.83169	29.1621
2.83015	29.2598
2.82861	29.5287
2.82706	29.7688
2.82552	29.9879
2.82398	30.2707
2.82245	30.5456
2.82091	30.6823
2.81938	30.811
2.81784	30.8896
2.81631	31.0891
2.81479	31.5375
2.81326	31.7531
2.81173	31.9461
2.81021	32.173
2.80869	32.2642
2.80716	32.4377
2.80565	32.9274
2.80413	33.4612
2.80261	33.7169
2.8011	33.7245
2.79959	33.7632
2.79808	33.8335
2.79657	33.7504
2.79506	34.0514
2.79355	34.7848
2.79205	35.3484
2.79055	35.7598
2.78904	36.3191
2.78754	36.9495
2.78605	37.1639
2.78455	37.2689
2.78306	37.6898
2.78156	38.1116
2.78007	38.3787
2.77858	38.7843
2.77709	39.3101
2.77561	39.5148
2.77412	39.848
2.77264	40.5364
2.77116	41.266
2.76968	41.5659
2.7682	41.7892
2.76672	42.0368
2.76524	42.5087
2.76377	43.5121
2.7623	44.1671
2.76083	44.1488
2.75936	44.467
2.75789	45.3499
2.75642	46.7998
2.75496	47.8483
2.7535	47.8254
2.75203	48.2528
2.75057	48.9607
2.74912	49.7289
2.74766	50.4144
2.7462	51.3075
2.74475	52.2609
2.7433	53.1093
2.74185	54.4328
2.7404	55.9007
2.73895	56.2343
2.7375	55.9459
2.73606	56.5735
2.73462	57.4057
2.73318	57.5967
2.73174	58.1226
2.7303	58.8466
2.72886	59.5892
2.72742	60.3115
2.72599	61.3874
2.72456	62.5752
2.72313	62.861
2.7217	63.8861
2.72027	65.0679
2.71884	64.6876
2.71742	64.7945
2.71599	65.2237
2.71457	65.7865
2.71315	66.4986
2.71173	67.9331
2.71032	68.7995
2.7089	68.6845
2.70748	68.6819
2.70607	69.0704
2.70466	69.5908
2.70325	70.0844
2.70184	70.8251
2.70043	71.2472
2.69903	71.4558
2.69762	72.0087
2.69622	72.8172
2.69482	73.6938
2.69342	74.0203
2.69202	73.5796
2.69062	73.6188
2.68923	74.1205
2.68783	74.5703
2.68644	74.8265
2.68505	74.932
2.68366	75.1788
2.68227	75.2167
2.68089	75.5926
2.6795	76.4635
2.67812	76.7669
2.67673	77.1859
2.67535	76.9164
2.67397	76.5115
2.6726	76.8766
2.67122	78.4331
2.66984	78.6784
2.66847	78.0366
2.6671	79.0065
2.66572	79.3307
2.66435	78.746
2.66299	77.9771
2.66162	78.1709
2.66025	78.5005
2.65889	78.5358
2.65753	78.2998
2.65616	78.7062
2.65481	78.9801
2.65345	79.2611
2.65209	79.3756
2.65073	79.1327
2.64938	79.0805
2.64803	79.2273
2.64667	79.6202
2.64532	79.8566
2.64397	79.6029
2.64263	79.685
2.64128	79.7872
2.63994	79.7967
2.63859	79.7868
2.63725	79.8941
2.63591	80.0995
2.63457	80.6061
2.63323	80.6704
2.6319	80.9207
2.63056	81.7356
2.62923	81.163
2.62789	80.8429
2.62656	81.2597
2.62523	80.7214
2.6239	80.4485
2.62258	80.544
2.62125	81.4445
2.61993	81.6941
2.6186	81.2225
2.61728	81.8328
2.61596	81.6226
2.61464	80.9804
2.61332	81.021
2.61201	80.8071
2.61069	80.9922
2.60938	81.3525
2.60807	81.4654
2.60675	81.8728
2.60544	82.3911
2.60414	81.9548
2.60283	81.4716
2.60152	81.2607
2.60022	80.9727
2.59891	80.7674
2.59761	81.2461
2.59631	82.6119
2.59501	84.0905
2.59371	82.9684
2.59242	81.5306
2.59112	81.1929
2.58983	81.349
2.58853	81.6693
2.58724	81.8658
2.58595	81.4963
2.58466	81.9951
2.58338	82.1071
2.58209	81.4978
2.5808	81.446
2.57952	81.1248
2.57824	81.3702
2.57695	81.8153
2.57567	81.5312
2.5744	81.6477
2.57312	81.9101
2.57184	81.3821
2.57057	81.5457
2.56929	81.7192
2.56802	81.3672
2.56675	81.2319
2.56548	81.5403
2.56421	81.9185
2.56294	81.9716
2.56168	82.0433
2.56041	81.8178
2.55915	81.4046
2.55789	81.2739
2.55662	81.2754
2.55536	81.3407
2.5541	81.619
2.55285	81.7986
2.55159	81.6448
2.55034	81.5501
2.54908	81.6294
2.54783	81.7459
2.54658	81.5823
2.54533	81.4815
2.54408	81.652
2.54283	81.7731
2.54159	81.5958
2.54034	81.5132
2.5391	81.4476
2.53785	81.4944
2.53661	81.7492
2.53537	81.651
2.53413	81.4585
2.53289	81.5497
2.53166	81.647
2.53042	81.5677
2.52919	81.4578
2.52795	81.4886
2.52672	81.65
2.52549	81.7437
2.52426	81.6587
2.52303	81.5251
2.52181	81.4369
2.52058	81.4575
2.51936	81.4725
2.51813	81.4607
2.51691	81.4772
2.51569	81.4484
2.51447	81.4719
2.51325	81.3942
2.51203	81.277
2.51082	81.2391
2.5096	81.2793
2.50839	81.2901
2.50717	81.2653
2.50596	81.2089
2.50475	81.2578
2.50354	81.2402
2.50233	81.0864
2.50113	81.0849
2.49992	81.1149
2.49872	81.0074
2.49751	80.9902
2.49631	81.0708
2.49511	81.1158
2.49391	81.0784
2.49271	80.9805
2.49151	80.9364
2.49031	81.0144
2.48912	81.0564
2.48792	80.9951
2.48673	80.9256
2.48554	80.8628
2.48435	80.8395
2.48316	81.0145
2.48197	81.1352
2.48078	81.0796
2.4796	80.9637
2.47841	81.0041
2.47723	81.1494
2.47604	81.1867
2.47486	81.198
2.47368	81.2085
2.4725	81.265
2.47132	81.3425
2.47014	81.361
2.46897	81.4151
2.46779	81.4126
2.46662	81.488
2.46545	81.551
2.46427	81.5347
2.4631	81.5372
2.46193	81.5659
2.46077	81.5868
2.4596	81.6546
2.45843	81.8008
2.45727	81.8318
2.4561	81.9005
2.45494	81.9494
2.45378	81.9319
2.45262	81.9961
2.45146	82.0379
2.4503	82.0306
2.44914	82.0374
2.44799	82.0463
2.44683	82.081
2.44568	82.1573
2.44452	82.2683
2.44337	82.2255
2.44222	82.1189
2.44107	82.1637
2.43992	82.2598
2.43877	82.424
2.43763	82.3449
2.43648	82.2911
2.43534	82.3733
2.43419	82.3102
2.43305	82.3675
2.43191	82.4835
2.43077	82.513
2.42963	82.5937
2.42849	82.7513
2.42736	82.7939
2.42622	82.7669
2.42509	82.7406
2.42395	82.767
2.42282	82.9366
2.42169	83.0642
2.42056	83.1202
2.41943	83.1203
2.4183	83.142
2.41717	83.3271
2.41605	83.5887
2.41492	83.598
2.4138	83.5865
2.41267	83.6669
2.41155	83.803
2.41043	83.8265
2.40931	83.8588
2.40819	84.0529
2.40707	84.2659
2.40595	84.4003
2.40484	84.4435
2.40372	84.5466
2.40261	84.5877
2.4015	84.6764
2.40039	84.8832
2.39928	85.0565
2.39817	85.2603
2.39706	85.4728
2.39595	85.627
2.39484	85.6221
2.39374	85.7822
2.39263	86.0283
2.39153	86.1189
2.39043	86.1801
2.38932	86.2873
2.38822	86.3199
2.38712	86.5127
2.38603	86.7435
2.38493	86.8104
2.38383	86.867
2.38274	86.96
2.38164	87.0541
2.38055	87.2829
2.37946	87.3744
2.37836	87.3375
2.37727	87.4075
2.37618	87.5309
2.3751	87.5634
2.37401	87.6714
2.37292	87.8822
2.37184	87.8939
2.37075	87.8834
2.36967	87.9956
2.36859	88.0347
2.3675	88.0375
2.36642	88.0671
2.36534	88.1132
2.36427	88.2391
2.36319	88.3973
2.36211	88.4565
2.36104	88.4865
2.35996	88.4755
2.35889	88.5651
2.35781	88.6426
2.35674	88.7078
2.35567	88.7402
2.3546	88.7536
2.35353	88.7901
2.35247	88.8097
2.3514	88.8222
2.35033	88.8195
2.34927	88.7981
2.3482	88.7988
2.34714	88.9052
2.34608	89.1528
2.34502	89.2531
2.34396	89.2523
2.3429	89.2198
2.34184	89.2273
2.34078	89.3567
2.33973	89.4687
2.33867	89.4029
2.33762	89.3362
2.33656	89.3676
2.33551	89.4154
2.33446	89.4563
2.33341	89.5432
2.33236	89.609
2.33131	89.6995
2.33026	89.6698
2.32922	89.5349
2.32817	89.5295
2.32712	89.6243
2.32608	89.6763
2.32504	89.6782
2.324	89.7789
2.32295	89.8241
2.32191	89.821
2.32087	89.8667
2.31984	89.8772
2.3188	89.8781
2.31776	89.9288
2.31673	89.9154
2.31569	89.837
2.31466	89.8327
2.31362	89.9363
2.31259	90.0056
2.31156	89.9942
2.31053	89.9373
2.3095	89.8968
2.30847	90.0193
2.30745	90.1067
2.30642	89.9679
2.3054	90.012
2.30437	90.1237
2.30335	90.0482
2.30232	89.8916
2.3013	89.8955
2.30028	89.8165
2.29926	89.8721
2.29824	90.0252
2.29722	89.9814
2.29621	89.9163
2.29519	89.8673
2.29417	89.8649
2.29316	89.9398
2.29215	90.041
2.29113	89.9413
2.29012	89.8524
2.28911	89.8677
2.2881	89.9423
2.28709	89.9232
2.28608	89.9253
2.28507	89.8063
2.28407	89.7287
2.28306	89.8193
2.28206	89.8122
2.28105	89.774
2.28005	89.8244
2.27905	89.7915
2.27805	89.7619
2.27705	89.6836
2.27605	89.5842
2.27505	89.6262
2.27405	89.6869
2.27305	89.6207
2.27206	89.4688
2.27106	89.4696
2.27007	89.5214
2.26907	89.374
2.26808	89.4505
2.26709	89.6355
2.2661	89.6341
2.26511	89.5232
2.26412	89.5616
2.26313	89.6591
2.26214	89.6377
2.26116	89.5038
2.26017	89.4885
2.25919	89.5416
2.2582	89.5808
2.25722	89.6098
2.25624	89.6799
2.25526	89.7349
2.25428	89.8467
2.2533	89.9142
2.25232	89.8105
2.25134	89.7213
2.25036	89.7027
2.24939	89.7716
2.24841	89.7429
2.24744	89.712
2.24646	89.7824
2.24549	89.8119
2.24452	89.7376
2.24355	89.6527
2.24257	89.7487
2.24161	89.8621
2.24064	89.7717
2.23967	89.7376
2.2387	89.7929
2.23774	89.8358
2.23677	89.7616
2.23581	89.6303
2.23484	89.5949
2.23388	89.6212
2.23292	89.6208
2.23196	89.5588
2.231	89.5251
2.23004	89.5414
2.22908	89.4776
2.22812	89.4054
2.22716	89.3442
2.22621	89.2882
2.22525	89.2254
2.2243	89.1198
2.22334	89.1106
2.22239	89.0427
2.22144	88.8979
2.22049	88.7831
2.21953	88.8047
2.21859	88.8832
2.21764	88.8422
2.21669	88.8467
2.21574	88.9239
2.21479	88.8893
2.21385	88.9637
2.2129	89.1855
2.21196	89.075
2.21102	88.8808
2.21007	88.9721
2.20913	89.1352
2.20819	89.1845
2.20725	89.1143
2.20631	89.1135
2.20537	89.2253
2.20444	89.2964
2.2035	89.2317
2.20256	89.2359
2.20163	89.2338
2.20069	89.2433
2.19976	89.2772
2.19883	89.4529
2.19789	89.639
2.19696	89.5746
2.19603	89.4552
2.1951	89.3374
2.19417	89.4488
2.19325	89.4999
2.19232	89.3999
2.19139	89.3175
2.19047	89.3762
2.18954	89.5346
2.18862	89.5414
2.18769	89.5839
2.18677	89.6324
2.18585	89.5851
2.18493	89.4863
2.18401	89.519
2.18309	89.6594
2.18217	89.6837
2.18125	89.6931
2.18033	89.6264
2.17942	89.6242
2.1785	89.6399
2.17759	89.5803
2.17667	89.6574
2.17576	89.7357
2.17485	89.6332
2.17393	89.5182
2.17302	89.6989
2.17211	89.879
2.1712	89.9096
2.17029	89.8524
2.16939	89.8091
2.16848	89.8299
2.16757	89.8859
2.16667	89.7721
2.16576	89.6541
2.16486	89.7821
2.16395	89.8749
2.16305	89.8237
2.16215	89.853
2.16125	89.9197
2.16035	89.8265
2.15945	89.9281
2.15855	90.0211
2.15765	89.9581
2.15675	89.9775
2.15586	90.0427
2.15496	90.1814
2.15406	90.1707
2.15317	90.1158
2.15228	90.0284
2.15138	90.002
2.15049	90.0472
2.1496	90.0925
2.14871	90.1125
2.14782	90.1334
2.14693	90.1737
2.14604	90.1304
2.14515	90.2295
2.14427	90.2314
2.14338	90.1083
2.14249	90.2082
2.14161	90.3025
2.14072	90.1798
2.13984	90.1621
2.13896	90.3345
2.13808	90.4587
2.13719	90.4856
2.13631	90.3893
2.13543	90.4054
2.13455	90.4265
2.13368	90.3538
2.1328	90.3415
2.13192	90.3567
2.13105	90.5139
2.13017	90.5203
2.1293	90.4395
2.12842	90.5046
2.12755	90.6121
2.12668	90.5319
2.1258	90.2819
2.12493	90.3045
2.12406	90.5667
2.12319	90.7425
2.12232	90.7111
2.12145	90.5417
2.12059	90.5466
2.11972	90.562
2.11885	90.5693
2.11799	90.5701
2.11712	90.6379
2.11626	90.804
2.1154	90.9436
2.11453	90.9725
2.11367	90.9186
2.11281	90.7997
2.11195	90.6556
2.11109	90.6479
2.11023	90.7312
2.10937	90.8626
2.10851	90.9275
2.10766	90.8961
2.1068	90.7212
2.10594	90.7076
2.10509	90.8071
2.10423	90.9035
2.10338	91.0559
2.10253	91.0261
2.10168	90.9898
2.10082	90.9959
2.09997	91.0027
2.09912	90.8662
2.09827	90.9344
2.09742	91.1626
2.09658	91.1988
2.09573	90.9914
2.09488	90.8576
2.09404	90.9876
2.09319	91.0857
2.09235	90.9646
2.0915	90.9832
2.09066	91.0622
2.08982	90.9227
2.08897	90.8661
2.08813	90.9635
2.08729	90.9156
2.08645	90.9031
2.08561	91.0505
2.08477	91.1323
2.08394	90.9746
2.0831	91.0048
2.08226	91.1348
2.08143	91.1245
2.08059	91.2133
2.07976	91.2018
2.07892	91.0838
2.07809	90.9998
2.07726	90.9951
2.07643	91.0236
2.07559	91.195
2.07476	91.0316
2.07393	91.0009
2.0731	91.2661
2.07228	91.2874
2.07145	91.2089
2.07062	91.0714
2.06979	90.9961
2.06897	91.0324
2.06814	91.128
2.06732	91.1461
2.06649	90.9888
2.06567	91.0115
2.06485	91.107
2.06403	90.9854
2.0632	91.1142
2.06238	91.2013
2.06156	91.1935
2.06074	91.1633
2.05993	91.0507
2.05911	90.8799
2.05829	90.9565
2.05747	91.0611
2.05666	91.0958
2.05584	90.9033
2.05503	90.8859
2.05421	91.1065
2.0534	91.1324
2.05259	90.9805
2.05177	90.904
2.05096	91.0758
2.05015	90.9659
2.04934	90.7609
2.04853	90.8664
2.04772	90.9807
2.04691	91.129
2.04611	91.0788
2.0453	90.8223
2.04449	90.8127
2.04369	90.8759
2.04288	90.833
2.04208	90.7521
2.04127	90.7561
2.04047	90.639
2.03967	90.5747
2.03886	90.7281
2.03806	90.8778
2.03726	90.7569
2.03646	90.654
2.03566	90.701
2.03486	90.7218
2.03407	90.612
2.03327	90.385
2.03247	90.3647
2.03167	90.4061
2.03088	90.309
2.03008	90.2577
2.02929	90.3595
2.0285	90.4488
2.0277	90.3086
2.02691	90.3445
2.02612	90.4109
2.02533	90.1605
2.02453	90.1211
2.02374	90.2576
2.02295	90.2674
2.02217	90.1014
2.02138	90.0391
2.02059	90.0059
2.0198	89.9656
2.01902	89.9641
2.01823	89.9801
2.01744	89.8845
2.01666	89.6709
2.01588	89.7561
2.01509	89.6539
2.01431	89.384
2.01353	89.4131
2.01275	89.321
2.01196	89.4501
2.01118	89.5037
2.0104	89.2514
2.00963	89.1126
2.00885	88.9718
2.00807	88.9452
2.00729	88.9895
2.00651	88.9811
2.00574	88.7541
2.00496	88.6104
2.00419	88.5917
2.00341	88.3579
2.00264	88.0685
2.00187	87.9736
2.00109	88.0341
2.00032	87.9612
