Name: Celestite SrSO_4
Type: Mineral
Class: Sulfates
Subclass: 
Particle Size: 45-125um
Sample No.: SO-5A
Owner: JPL
Wavelength range: IR
Origin: USA, Utah, Emery County
Collected by Grieger's Inc.
Description: 





Measurement: Hemispherical reflectance
First Column: X
Second Column: Y
X Units:  Wavelength (micrometers)
Y Units:  Reflectance (percent)
First X Value: 15.3853
Last X Value: 2.00032
Number of X Values: 2256
Additional information: so05aa.txt
 
15.3853	8.83203
15.3397	8.69231
15.2945	8.35107
15.2495	7.3582
15.2048	6.12785
15.1603	5.02198
15.1161	3.9021
15.0722	2.68673
15.0285	1.96167
14.9851	1.88387
14.9419	2.06533
14.8989	2.13587
14.8563	2.02614
14.8138	2.17352
14.7716	2.48959
14.7296	2.92128
14.6879	3.40617
14.6464	3.99757
14.6052	4.56971
14.5641	5.01676
14.5233	5.47198
14.4828	6.34629
14.4424	6.94821
14.4023	7.56882
14.3624	8.16114
14.3227	8.42866
14.2833	8.57611
14.244	8.59869
14.205	8.66466
14.1662	8.83694
14.1276	9.18257
14.0892	9.39044
14.051	9.42067
14.0131	9.48838
13.9753	9.90514
13.9377	10.4777
13.9004	11.0051
13.8632	11.5585
13.8262	11.8964
13.7895	12.2654
13.7529	12.5356
13.7165	12.7035
13.6803	13.0113
13.6443	13.1492
13.6085	13.3327
13.5729	13.6174
13.5374	14.1146
13.5022	14.5566
13.4671	14.8606
13.4322	15.0964
13.3975	15.2375
13.363	15.3182
13.3286	15.0998
13.2944	14.9747
13.2604	14.9306
13.2266	14.7989
13.193	14.8575
13.1595	14.9464
13.1262	14.7302
13.093	14.6887
13.06	14.716
13.0272	14.571
12.9946	14.5019
12.9621	14.6644
12.9298	14.9462
12.8976	15.0277
12.8656	15.0341
12.8337	15.1517
12.8021	15.1393
12.7705	15.1518
12.7391	15.0961
12.7079	14.9772
12.6769	15.0259
12.6459	15.0084
12.6152	14.9027
12.5845	14.8227
12.5541	14.9409
12.5238	14.9899
12.4936	14.8513
12.4635	14.6486
12.4337	14.6187
12.4039	14.6337
12.3743	14.6279
12.3448	14.6678
12.3155	14.8125
12.2863	14.9713
12.2573	15.0109
12.2284	15.0586
12.1996	15.1688
12.171	15.3225
12.1425	15.3879
12.1141	15.4588
12.0859	15.4588
12.0578	15.4476
12.0298	15.5419
12.0019	15.7145
11.9742	15.8353
11.9466	15.8386
11.9192	15.9793
11.8918	16.1528
11.8646	16.2608
11.8375	16.4712
11.8106	16.6839
11.7837	16.7249
11.757	16.7549
11.7304	16.9459
11.7039	17.1362
11.6776	17.3512
11.6513	17.6724
11.6252	17.9437
11.5992	18.115
11.5733	18.2868
11.5475	18.3895
11.5219	18.4477
11.4963	18.4991
11.4709	18.7627
11.4455	18.9003
11.4203	18.7273
11.3952	18.8107
11.3702	19.1138
11.3454	19.2851
11.3206	19.2983
11.2959	19.2461
11.2714	19.1891
11.2469	19.2185
11.2226	19.2686
11.1983	19.1142
11.1742	18.8267
11.1502	18.538
11.1263	18.195
11.1024	17.7516
11.0787	17.3639
11.0551	17.0459
11.0316	16.6528
11.0081	16.1477
10.9848	15.7975
10.9616	15.4
10.9385	14.8621
10.9154	14.2952
10.8925	13.7987
10.8697	13.3681
10.8469	13.0762
10.8243	12.8489
10.8017	12.5278
10.7793	12.3299
10.7569	12.2962
10.7346	12.2714
10.7125	12.1854
10.6904	12.1317
10.6684	11.9095
10.6465	11.6385
10.6247	11.4818
10.6029	11.2818
10.5813	11.0955
10.5597	11.0143
10.5383	10.8888
10.5169	10.729
10.4956	10.4986
10.4744	10.149
10.4533	9.87052
10.4323	9.65025
10.4113	9.40252
10.3904	9.23736
10.3697	8.98572
10.349	8.66033
10.3284	8.42855
10.3078	8.06243
10.2874	7.44085
10.267	6.8519
10.2467	6.77276
10.2265	6.79192
10.2064	6.64574
10.1863	6.57302
10.1663	6.4566
10.1464	6.26469
10.1266	6.21396
10.1069	6.31477
10.0872	6.29255
10.0676	6.08698
10.0481	5.84948
10.0287	5.27097
10.0093	5.29891
9.99005	5.82775
9.97084	6.3272
9.95169	6.60131
9.93263	6.78678
9.91364	6.96912
9.89472	7.05684
9.87587	7.14037
9.8571	7.27308
9.83839	7.2832
9.81976	7.13313
9.80119	7.09181
9.78271	7.26241
9.76428	7.34688
9.74592	7.324
9.72764	7.38576
9.70943	7.48103
9.69128	7.63507
9.6732	7.76667
9.65518	7.83666
9.63724	8.04989
9.61935	8.23739
9.60155	8.42994
9.5838	8.73077
9.56611	8.93367
9.5485	9.10195
9.53094	9.4615
9.51345	9.79727
9.49604	10.0657
9.47867	10.3803
9.46137	10.9612
9.44414	11.4857
9.42697	12.0634
9.40986	12.6624
9.39281	13.397
9.37583	14.138
9.35891	14.925
9.34204	15.7052
9.32524	16.4152
9.3085	17.1696
9.29182	17.9388
9.27519	18.632
9.25863	19.1308
9.24213	19.5815
9.22568	20.1589
9.2093	20.6799
9.19297	21.1589
9.17669	21.7078
9.16048	22.2553
9.14433	22.8177
9.12823	23.4528
9.11218	24.0381
9.0962	24.5
9.08027	24.9066
9.06439	25.3333
9.04858	25.707
9.03281	26.0896
9.0171	26.478
9.00145	27.0338
8.98585	27.5374
8.9703	27.879
8.9548	28.1466
8.93937	28.5464
8.92398	29.0778
8.90865	29.5643
8.89337	29.8778
8.87814	30.2908
8.86296	30.6537
8.84784	30.8365
8.83277	30.9817
8.81774	31.1472
8.80277	31.2736
8.78786	31.4275
8.77298	31.5592
8.75816	31.6515
8.7434	31.6718
8.72868	31.5474
8.714	31.3653
8.69938	31.2845
8.68481	30.8783
8.67029	30.3564
8.65581	29.6844
8.64139	28.7941
8.62701	27.7858
8.61268	26.4654
8.5984	24.8327
8.58416	23.1582
8.56997	21.5361
8.55583	20.362
8.54174	19.6623
8.52769	19.1938
8.51368	18.8943
8.49973	18.6123
8.48582	18.4128
8.47195	18.2512
8.45813	17.866
8.44436	17.4263
8.43062	16.8604
8.41693	16.2745
8.4033	15.6913
8.3897	15.0002
8.37614	14.3693
8.36264	13.8307
8.34917	13.5305
8.33574	13.3194
8.32236	13.1037
8.30903	12.9509
8.29573	12.803
8.28248	12.758
8.26927	12.7737
8.2561	12.7923
8.24298	12.8359
8.2299	12.9414
8.21685	12.9893
8.20385	13.0116
8.19089	12.9701
8.17797	12.8319
8.16509	12.94
8.15225	13.1588
8.13946	13.256
8.1267	13.1436
8.11398	13.013
8.10131	13.034
8.08867	13.0015
8.07606	13.0164
8.0635	12.9348
8.05099	12.9224
8.0385	12.9109
8.02606	12.8084
8.01366	12.5481
8.00129	12.1299
7.98896	11.66
7.97667	11.2465
7.96442	10.7399
7.9522	10.084
7.94002	9.29249
7.92788	8.39179
7.91578	7.35789
7.90371	6.17286
7.89168	5.02127
7.87969	4.12283
7.86773	3.34278
7.85581	2.76049
7.84392	2.30888
7.83207	1.93558
7.82026	1.63994
7.80849	1.30785
7.79674	1.04696
7.78503	0.896463
7.77337	0.751189
7.76173	0.686668
7.75012	0.642883
7.73856	0.619887
7.72703	0.622846
7.71553	0.570606
7.70406	0.555187
7.69263	0.525436
7.68123	0.534358
7.66987	0.634304
7.65855	0.678718
7.64725	0.678547
7.63598	0.616501
7.62475	0.691487
7.61356	0.862873
7.60239	0.965733
7.59126	1.04723
7.58017	1.16355
7.5691	1.26598
7.55806	1.46814
7.54707	1.57085
7.5361	1.59506
7.52516	1.70756
7.51425	1.89424
7.50338	2.07476
7.49253	2.28879
7.48172	2.51068
7.47094	2.69164
7.46019	2.92186
7.44947	3.21564
7.43879	3.42318
7.42813	3.69024
7.4175	3.93426
7.4069	4.16555
7.39634	4.38387
7.3858	4.63617
7.37529	4.86548
7.36482	5.12306
7.35437	5.31636
7.34396	5.46268
7.33357	5.61377
7.32321	5.7331
7.31288	5.83611
7.30258	6.06812
7.29231	6.43353
7.28207	6.80445
7.27185	7.04785
7.26167	7.27257
7.25152	7.52003
7.24139	7.78182
7.23129	8.05267
7.22122	8.46773
7.21117	8.96583
7.20116	9.36297
7.19117	9.73649
7.18121	10.213
7.17128	10.5839
7.16137	10.9563
7.1515	11.4057
7.14164	11.9426
7.13182	12.371
7.12203	12.7992
7.11225	13.2321
7.10251	13.6305
7.0928	14.0705
7.08311	14.5477
7.07344	14.9968
7.06381	15.0382
7.0542	14.5118
7.04461	13.9727
7.03506	14.817
7.02552	17.1588
7.01601	19.5169
7.00653	21.4221
6.99708	22.9973
6.98765	24.3984
6.97824	25.6058
6.96886	26.7922
6.95951	28.0051
6.95018	28.835
6.94087	29.5509
6.9316	30.259
6.92234	30.7557
6.91311	30.8908
6.90391	30.613
6.89473	29.6533
6.88557	27.4414
6.87644	24.4609
6.86733	23.8153
6.85824	26.7741
6.84918	30.2453
6.84015	32.8893
6.83114	34.942
6.82215	36.3979
6.81319	37.2836
6.80424	38.0122
6.79532	38.777
6.78643	39.5266
6.77756	40.2034
6.76871	40.9704
6.75989	41.758
6.75109	42.5113
6.74231	43.0725
6.73355	43.6093
6.72482	44.1163
6.71611	44.4856
6.70742	44.6706
6.69875	44.7185
6.69011	44.9636
6.68149	45.2308
6.67289	45.2417
6.66431	45.1447
6.65576	45.0161
6.64722	44.9929
6.63871	44.9488
6.63022	44.3001
6.62175	43.253
6.61331	42.2521
6.60488	41.1595
6.59648	39.8999
6.5881	38.3789
6.57974	36.8326
6.5714	35.1329
6.56308	33.1944
6.55478	31.3775
6.54651	29.4634
6.53825	27.6357
6.53001	26.0941
6.5218	24.7105
6.51361	23.2739
6.50544	22.0501
6.49729	20.9332
6.48915	19.5999
6.48104	18.2892
6.47295	17.2508
6.46488	16.4612
6.45683	15.9652
6.4488	15.7016
6.44079	15.6969
6.4328	15.9227
6.42482	16.1359
6.41687	16.4664
6.40894	16.5477
6.40103	16.4112
6.39314	16.4208
6.38526	16.6153
6.37741	17.0026
6.36957	17.5887
6.36176	18.0472
6.35396	18.4509
6.34618	18.9747
6.33843	19.4794
6.33069	19.9703
6.32297	20.5218
6.31527	20.9824
6.30758	21.3996
6.29992	21.6842
6.29227	21.8735
6.28465	21.8527
6.27704	21.5096
6.26945	20.8029
6.26188	19.6932
6.25432	18.3452
6.24679	17.1726
6.23927	16.6736
6.23177	17.009
6.22429	17.7912
6.21683	18.579
6.20938	19.1424
6.20195	19.1617
6.19454	18.4932
6.18715	17.4474
6.17978	16.6527
6.17242	17.0593
6.16508	18.3364
6.15776	20.084
6.15045	22.0675
6.14317	24.0614
6.1359	25.399
6.12864	26.0233
6.12141	26.4086
6.11419	26.7152
6.10699	26.874
6.0998	27.0904
6.09263	27.4449
6.08549	27.9358
6.07835	28.8129
6.07123	30.0074
6.06413	31.2502
6.05705	32.8283
6.04998	34.7397
6.04293	36.0996
6.0359	37.3199
6.02888	38.8583
6.02187	40.3407
6.01489	41.7306
6.00792	42.7604
6.00096	43.6918
5.99403	44.7582
5.98711	45.4386
5.9802	45.6484
5.97331	45.8319
5.96644	45.5897
5.95958	44.5282
5.95274	43.1419
5.94591	42.2521
5.9391	43.1895
5.9323	45.2927
5.92552	46.8868
5.91876	47.9249
5.91201	48.424
5.90528	48.8069
5.89856	49.2826
5.89186	49.3557
5.88517	49.6465
5.8785	49.9684
5.87184	49.7971
5.8652	49.8904
5.85857	49.9614
5.85196	49.8968
5.84536	49.7532
5.83878	49.6528
5.83221	49.6466
5.82566	49.7049
5.81912	49.4167
5.81259	48.8504
5.80608	48.4651
5.79959	48.2396
5.79311	48.1718
5.78665	48.4077
5.78019	48.8458
5.77376	49.5004
5.76734	50.2047
5.76093	50.2878
5.75453	50.2519
5.74815	50.5513
5.74179	50.7214
5.73543	50.8164
5.7291	50.9584
5.72277	51.1487
5.71646	51.3236
5.71017	51.4903
5.70389	51.4855
5.69762	51.58
5.69136	51.5935
5.68513	51.4458
5.6789	51.7145
5.67268	52.0245
5.66648	52.0059
5.6603	52.0741
5.65413	52.2765
5.64797	52.5238
5.64182	52.7344
5.63569	52.7261
5.62957	52.7301
5.62347	52.8755
5.61737	53.1623
5.61129	53.3882
5.60522	53.5594
5.59917	53.7524
5.59313	53.9626
5.5871	54.264
5.58109	54.596
5.57509	54.7665
5.5691	54.7567
5.56312	54.8899
5.55716	55.0908
5.55121	55.2779
5.54528	55.3389
5.53935	55.4586
5.53344	55.6013
5.52754	55.8065
5.52166	56.0806
5.51578	56.2116
5.50992	56.2303
5.50407	56.2668
5.49823	56.2856
5.49241	56.218
5.4866	56.0172
5.4808	55.8386
5.47501	55.7212
5.46923	55.6625
5.46347	55.6063
5.45772	55.3987
5.45198	55.3261
5.44625	55.3758
5.44054	55.3781
5.43484	55.4082
5.42914	55.4852
5.42347	55.6654
5.4178	55.5953
5.41214	55.4833
5.4065	55.4174
5.40087	55.3832
5.39525	55.3553
5.38964	55.3692
5.38404	55.4691
5.37846	55.6056
5.37288	55.797
5.36732	56
5.36177	56.3433
5.35623	56.816
5.35071	57.2936
5.34519	57.7045
5.33968	58.1795
5.33419	58.7518
5.32871	59.323
5.32324	59.9048
5.31778	60.5171
5.31233	61.0705
5.30689	61.5043
5.30147	61.8877
5.29605	62.3197
5.29065	62.7397
5.28525	63.0139
5.27987	63.3536
5.2745	63.6312
5.26914	63.8457
5.26379	64.0292
5.25845	64.2299
5.25312	64.3993
5.24781	64.5559
5.2425	64.6968
5.23721	64.7956
5.23192	64.8239
5.22665	64.7778
5.22138	64.7578
5.21613	64.8538
5.21089	64.8372
5.20566	64.7702
5.20044	64.7169
5.19522	64.5923
5.19002	64.4354
5.18483	64.3813
5.17965	64.2842
5.17448	64.0833
5.16933	63.7697
5.16418	63.347
5.15904	62.8298
5.15391	62.1837
5.14879	61.3131
5.14368	60.326
5.13859	59.9033
5.1335	60.2249
5.12842	60.4413
5.12335	60.2719
5.1183	59.7696
5.11325	59.1822
5.10821	58.5157
5.10318	57.8067
5.09817	57.0268
5.09316	56.0503
5.08816	54.8668
5.08317	53.4667
5.07819	51.8242
5.07322	49.8141
5.06826	47.0646
5.06331	43.6487
5.05837	39.4188
5.05344	34.0178
5.04852	27.6121
5.04361	21.2473
5.03871	17.2758
5.03382	17.829
5.02894	21.8565
5.02406	26.8037
5.0192	31.8774
5.01435	36.8075
5.0095	41.1925
5.00467	44.7349
4.99984	47.1596
4.99502	48.5339
4.99021	49.1954
4.98542	49.3636
4.98063	49.194
4.97585	48.8782
4.97108	48.4068
4.96632	47.8454
4.96156	47.2071
4.95682	46.3932
4.95209	45.4833
4.94736	44.5235
4.94264	43.4724
4.93794	42.327
4.93324	41.0839
4.92855	39.7709
4.92387	38.3336
4.9192	36.7494
4.91453	35.0921
4.90988	33.432
4.90524	31.6686
4.9006	29.8182
4.89597	27.9278
4.89135	25.9861
4.88674	23.9516
4.88214	21.8144
4.87755	19.6973
4.87296	17.6113
4.86839	15.6073
4.86382	13.7242
4.85926	12.0486
4.85471	10.5686
4.85017	9.28665
4.84564	8.3189
4.84111	7.71231
4.8366	7.44394
4.83209	7.37762
4.82759	7.355
4.8231	7.27679
4.81862	7.10563
4.81415	6.86076
4.80968	6.53284
4.80522	6.16755
4.80077	5.76313
4.79633	5.48599
4.7919	5.44731
4.78747	5.49999
4.78306	5.64866
4.77865	6.05838
4.77425	6.52017
4.76986	7.04748
4.76547	7.52917
4.7611	7.87954
4.75673	8.18481
4.75237	8.39242
4.74802	8.39383
4.74367	8.41036
4.73934	8.49563
4.73501	8.60035
4.73069	8.68101
4.72638	8.68797
4.72207	8.78183
4.71777	8.90313
4.71348	8.98789
4.7092	9.10035
4.70493	9.27793
4.70066	9.4571
4.69641	9.56341
4.69216	9.53528
4.68791	9.4336
4.68368	9.31554
4.67945	9.13504
4.67523	8.92131
4.67102	8.71136
4.66682	8.56067
4.66262	8.40235
4.65843	8.14308
4.65425	7.81218
4.65007	7.5786
4.64591	7.39488
4.64175	7.25742
4.6376	7.19007
4.63345	7.12386
4.62932	7.12049
4.62519	7.13381
4.62106	7.17665
4.61695	7.36541
4.61284	7.50414
4.60874	7.68538
4.60465	7.96515
4.60056	8.28122
4.59648	8.69348
4.59241	9.12348
4.58835	9.53123
4.58429	9.86642
4.58024	10.2392
4.5762	10.5593
4.57216	10.6476
4.56814	10.5974
4.56411	10.508
4.5601	10.3579
4.55609	10.3207
4.55209	10.2745
4.5481	10.2098
4.54411	10.1752
4.54013	9.94103
4.53616	9.69263
4.5322	9.60351
4.52824	9.51655
4.52429	9.40666
4.52034	9.35209
4.51641	9.22105
4.51247	9.09328
4.50855	9.02198
4.50463	8.96716
4.50072	8.93411
4.49682	8.95802
4.49292	9.05769
4.48903	9.16512
4.48515	9.22531
4.48127	9.36881
4.4774	9.57777
4.47354	9.78621
4.46968	10.2022
4.46584	10.6778
4.46199	10.9944
4.45815	11.3339
4.45432	11.8077
4.4505	12.3163
4.44668	12.7475
4.44287	13.146
4.43907	13.555
4.43527	13.8733
4.43148	14.1829
4.4277	14.5227
4.42392	14.8512
4.42015	15.1351
4.41638	15.3258
4.41262	15.3688
4.40887	15.4568
4.40513	15.7464
4.40139	15.9253
4.39765	16.0119
4.39393	16.1614
4.39021	16.3206
4.38649	16.5054
4.38278	16.7264
4.37908	16.8834
4.37539	17.0409
4.3717	17.1527
4.36801	17.2452
4.36434	17.4109
4.36067	17.5164
4.357	17.5358
4.35335	17.6492
4.34969	17.9047
4.34605	18.2409
4.34241	18.5675
4.33877	18.7772
4.33514	18.9239
4.33152	19.0448
4.32791	19.183
4.3243	19.2887
4.32069	19.3146
4.3171	19.3192
4.31351	19.4023
4.30992	19.5602
4.30634	19.7087
4.30277	19.9
4.2992	20.1462
4.29564	20.3688
4.29208	20.577
4.28853	20.7979
4.28499	20.9949
4.28145	21.2816
4.27792	21.558
4.27439	21.8198
4.27087	22.0775
4.26735	22.3843
4.26384	22.7796
4.26034	23.1093
4.25684	23.243
4.25335	23.1509
4.24986	22.9347
4.24638	22.6774
4.24291	22.2445
4.23944	21.8245
4.23598	21.5642
4.23252	21.3549
4.22906	21.0421
4.22562	20.7726
4.22218	20.6512
4.21874	20.5868
4.21531	20.5267
4.21189	20.4296
4.20847	20.3245
4.20506	20.3324
4.20165	20.4367
4.19825	20.4658
4.19485	20.4651
4.19146	20.5363
4.18807	20.598
4.18469	20.6593
4.18132	20.7663
4.17795	21.0026
4.17458	21.2134
4.17123	21.3338
4.16787	21.5463
4.16453	21.8375
4.16118	22.1453
4.15785	22.5129
4.15451	23.0845
4.15119	23.6461
4.14787	24.0975
4.14455	24.6887
4.14124	25.3607
4.13794	26.0459
4.13464	26.8331
4.13134	27.6047
4.12805	28.5427
4.12477	29.4794
4.12149	30.3585
4.11822	31.4007
4.11495	32.5517
4.11168	33.8209
4.10843	35.2026
4.10517	36.6307
4.10192	38.0352
4.09868	39.42
4.09545	40.7802
4.09221	42.0717
4.08899	43.236
4.08576	44.4963
4.08255	45.7635
4.07933	46.8349
4.07613	47.8373
4.07292	48.8313
4.06973	49.8026
4.06654	50.6939
4.06335	51.6
4.06017	52.4743
4.05699	53.2304
4.05382	53.9767
4.05065	54.6553
4.04749	55.3591
4.04433	56.0189
4.04118	56.5794
4.03803	57.1523
4.03489	57.861
4.03175	58.6243
4.02862	59.3472
4.02549	60.0471
4.02237	60.7072
4.01925	61.2685
4.01614	61.7618
4.01303	62.3195
4.00993	62.8553
4.00683	63.379
4.00373	63.9202
4.00064	64.3757
3.99756	64.7704
3.99448	65.1995
3.9914	65.6419
3.98833	65.9481
3.98527	66.163
3.98221	66.3014
3.97915	66.5084
3.9761	66.8775
3.97305	67.2761
3.97001	67.661
3.96697	68.0392
3.96394	68.3533
3.96091	68.5429
3.95789	68.7435
3.95487	68.9611
3.95186	69.1153
3.94885	69.2899
3.94584	69.5357
3.94284	69.7202
3.93984	69.9053
3.93685	70.1175
3.93386	70.3549
3.93088	70.5444
3.9279	70.7755
3.92493	71.0514
3.92196	71.2525
3.919	71.5708
3.91604	71.8862
3.91308	72.1117
3.91013	72.4359
3.90718	72.7135
3.90424	72.9773
3.9013	73.215
3.89837	73.5017
3.89544	73.7403
3.89252	73.9729
3.8896	74.2118
3.88668	74.4269
3.88377	74.6678
3.88086	74.8978
3.87796	74.9542
3.87506	74.835
3.87217	74.682
3.86928	74.5064
3.86639	74.1926
3.86351	73.8543
3.86064	73.6289
3.85776	73.4975
3.8549	73.485
3.85203	73.6948
3.84917	74.0521
3.84631	74.3907
3.84346	74.5289
3.84062	74.5056
3.83777	74.3617
3.83494	74.191
3.8321	74.1673
3.82927	74.3977
3.82644	74.8342
3.82362	75.3701
3.82081	75.9093
3.81799	76.3884
3.81518	76.7404
3.81238	77.0023
3.80958	77.1753
3.80678	77.3652
3.80399	77.5968
3.8012	77.7217
3.79841	77.9242
3.79563	78.2096
3.79286	78.3642
3.79008	78.5735
3.78731	78.9155
3.78455	79.29
3.78179	79.6415
3.77903	79.9561
3.77628	80.178
3.77353	80.3508
3.77079	80.531
3.76805	80.6802
3.76531	80.8245
3.76258	80.8846
3.75985	80.8967
3.75713	80.9507
3.7544	80.9736
3.75169	80.9168
3.74898	80.8252
3.74627	80.7575
3.74356	80.7353
3.74086	80.6992
3.73816	80.6291
3.73547	80.5765
3.73278	80.4911
3.7301	80.4319
3.72741	80.358
3.72474	80.2588
3.72206	80.1972
3.71939	80.1326
3.71673	80.166
3.71406	80.3927
3.71141	80.5238
3.70875	80.6252
3.7061	80.8421
3.70345	80.8842
3.70081	80.8149
3.69817	80.7842
3.69553	80.7641
3.6929	80.7854
3.69027	80.8185
3.68765	80.9247
3.68503	81.0553
3.68241	81.1685
3.6798	81.2493
3.67719	81.3512
3.67458	81.4829
3.67198	81.6216
3.66938	81.7312
3.66678	81.8411
3.66419	81.9822
3.66161	82.1553
3.65902	82.3656
3.65644	82.5243
3.65387	82.5923
3.65129	82.7272
3.64872	82.8598
3.64616	82.9296
3.64359	83.0109
3.64103	83.1918
3.63848	83.3116
3.63593	83.3209
3.63338	83.3716
3.63084	83.4226
3.6283	83.5249
3.62576	83.5751
3.62322	83.5499
3.62069	83.4877
3.61817	83.4399
3.61564	83.4216
3.61312	83.4122
3.61061	83.3913
3.6081	83.3703
3.60559	83.306
3.60308	83.295
3.60058	83.2704
3.59808	83.1731
3.59558	83.0691
3.59309	83.0127
3.59061	82.9234
3.58812	82.8647
3.58564	82.8144
3.58316	82.6906
3.58069	82.5599
3.57822	82.5325
3.57575	82.5124
3.57328	82.4024
3.57082	82.3172
3.56836	82.2956
3.56591	82.2743
3.56346	82.2472
3.56101	82.1107
3.55857	82.0628
3.55613	82.0754
3.55369	81.9433
3.55126	81.8528
3.54883	81.7719
3.5464	81.7097
3.54397	81.6639
3.54155	81.703
3.53914	81.6882
3.53672	81.6036
3.53431	81.5318
3.5319	81.4846
3.5295	81.5068
3.5271	81.531
3.5247	81.5351
3.52231	81.5317
3.51991	81.439
3.51753	81.3236
3.51514	81.206
3.51276	80.997
3.51038	80.7561
3.50801	80.5902
3.50563	80.5241
3.50327	80.362
3.5009	80.187
3.49854	80.1226
3.49618	80.1585
3.49382	80.2433
3.49147	80.307
3.48912	80.3246
3.48677	80.2296
3.48443	80.1584
3.48209	80.153
3.47975	80.1538
3.47742	80.1268
3.47509	80.0982
3.47276	80.1684
3.47044	80.2354
3.46812	80.2102
3.4658	80.2405
3.46348	80.2109
3.46117	80.1107
3.45886	80.0338
3.45656	79.9627
3.45425	79.8628
3.45195	79.731
3.44966	79.6915
3.44736	79.6185
3.44507	79.494
3.44279	79.3973
3.4405	79.3979
3.43822	79.3328
3.43594	79.2081
3.43367	79.1632
3.43139	79.0178
3.42912	78.7844
3.42686	78.6304
3.42459	78.4401
3.42233	78.2176
3.42007	78.0683
3.41782	78.0603
3.41557	78.1056
3.41332	78.0811
3.41108	78.1242
3.40883	78.2453
3.40659	78.3583
3.40435	78.4206
3.40212	78.5004
3.39989	78.6229
3.39766	78.7692
3.39544	78.922
3.39322	79.0425
3.391	79.0815
3.38878	79.1079
3.38657	79.0839
3.38436	78.8991
3.38215	78.7061
3.37994	78.5731
3.37774	78.4362
3.37554	78.2638
3.37335	78.0173
3.37115	77.6927
3.36896	77.2262
3.36678	76.7461
3.36459	76.5956
3.36241	76.7334
3.36023	77.1376
3.35805	77.7765
3.35588	78.4425
3.35371	78.8846
3.35154	79.1952
3.34938	79.5949
3.34721	79.9323
3.34505	80.0451
3.3429	80.1476
3.34074	80.3267
3.33859	80.4451
3.33644	80.5271
3.3343	80.5117
3.33215	80.528
3.33001	80.5673
3.32788	80.5349
3.32574	80.3466
3.32361	80.229
3.32148	80.3198
3.31936	80.3719
3.31723	80.1822
3.31511	79.8596
3.31299	79.6119
3.31088	79.4451
3.30876	79.2154
3.30665	78.9634
3.30455	78.6315
3.30244	78.0823
3.30034	77.5139
3.29824	76.9704
3.29614	76.2434
3.29405	75.4921
3.29196	74.667
3.28987	73.7576
3.28778	72.7881
3.2857	71.856
3.28362	70.9671
3.28154	70.1257
3.27946	69.4393
3.27739	69.0327
3.27532	68.9394
3.27325	69.1149
3.27119	69.3486
3.26913	69.6462
3.26707	69.8988
3.26501	70.066
3.26295	70.16
3.2609	70.1266
3.25885	70.0359
3.2568	69.9397
3.25476	69.8671
3.25272	69.8727
3.25068	70.0361
3.24864	70.3742
3.24661	70.8055
3.24458	71.2287
3.24255	71.5849
3.24052	71.9574
3.2385	72.2482
3.23648	72.5244
3.23446	72.8343
3.23244	72.9935
3.23043	73.0361
3.22841	73.1748
3.2264	73.4567
3.2244	73.7121
3.22239	73.9803
3.22039	74.1928
3.21839	74.3326
3.2164	74.4155
3.2144	74.4218
3.21241	74.4243
3.21042	74.5462
3.20844	74.6153
3.20645	74.4729
3.20447	74.3184
3.20249	74.2117
3.20051	74.0639
3.19854	73.959
3.19657	73.7691
3.1946	73.4625
3.19263	73.2183
3.19067	73.0474
3.1887	72.9016
3.18674	72.7355
3.18479	72.5124
3.18283	72.3729
3.18088	72.2538
3.17893	72.1202
3.17698	71.9914
3.17504	71.8577
3.17309	71.774
3.17115	71.7884
3.16921	71.7865
3.16728	71.7856
3.16534	71.7669
3.16341	71.8174
3.16148	71.8903
3.15956	71.9346
3.15763	72.014
3.15571	72.0412
3.15379	72.0535
3.15187	72.0285
3.14996	71.9527
3.14805	71.9002
3.14614	71.8605
3.14423	71.8671
3.14232	71.8992
3.14042	71.8474
3.13852	71.7814
3.13662	71.7752
3.13472	71.7906
3.13283	71.8711
3.13094	71.8807
3.12905	71.8698
3.12716	71.9685
3.12528	71.9692
3.12339	71.9936
3.12151	71.97
3.11964	71.8772
3.11776	71.976
3.11589	72.1201
3.11401	72.074
3.11214	72.0879
3.11028	72.1758
3.10841	72.2428
3.10655	72.2278
3.10469	72.2529
3.10283	72.2693
3.10098	72.2573
3.09912	72.2004
3.09727	72.2177
3.09542	72.3286
3.09358	72.3559
3.09173	72.323
3.08989	72.2784
3.08805	72.1679
3.08621	72.1676
3.08437	72.1822
3.08254	72.0697
3.08071	71.9704
3.07888	71.9709
3.07705	71.9896
3.07523	71.865
3.0734	71.8598
3.07158	71.9809
3.06977	71.9504
3.06795	71.9537
3.06613	71.9633
3.06432	72.0047
3.06251	72.0631
3.0607	72.2092
3.0589	72.3987
3.0571	72.4949
3.05529	72.5232
3.05349	72.5669
3.0517	72.5915
3.0499	72.5516
3.04811	72.5688
3.04632	72.6759
3.04453	72.6935
3.04274	72.643
3.04096	72.6383
3.03918	72.6705
3.0374	72.706
3.03562	72.6236
3.03384	72.5595
3.03207	72.579
3.03029	72.5635
3.02852	72.4717
3.02676	72.4628
3.02499	72.5217
3.02323	72.4825
3.02146	72.5527
3.0197	72.5678
3.01795	72.5331
3.01619	72.5563
3.01444	72.6061
3.01269	72.5521
3.01094	72.4503
3.00919	72.4113
3.00744	72.4548
3.0057	72.5046
3.00396	72.5437
3.00222	72.5645
3.00048	72.5368
2.99875	72.5937
2.99701	72.6276
2.99528	72.6061
2.99355	72.7468
2.99183	72.8144
2.9901	72.7825
2.98838	72.862
2.98666	72.8652
2.98494	72.8708
2.98322	72.9832
2.9815	73.0756
2.97979	73.0534
2.97808	73.0215
2.97637	73.0604
2.97466	73.1182
2.97295	73.052
2.97125	73.1124
2.96955	73.2897
2.96785	73.2191
2.96615	73.2773
2.96446	73.4481
2.96276	73.3863
2.96107	73.3427
2.95938	73.4282
2.95769	73.5497
2.95601	73.5433
2.95432	73.5527
2.95264	73.6896
2.95096	73.7053
2.94928	73.7201
2.9476	73.755
2.94593	73.8151
2.94425	73.8618
2.94258	73.8742
2.94092	73.8939
2.93925	73.929
2.93758	73.9782
2.93592	74.0711
2.93426	74.064
2.9326	74.1035
2.93094	74.2656
2.92928	74.3032
2.92763	74.3017
2.92598	74.3735
2.92433	74.4182
2.92268	74.3797
2.92103	74.3335
2.91939	74.3692
2.91775	74.4907
2.9161	74.5673
2.91447	74.6861
2.91283	74.7489
2.91119	74.7487
2.90956	74.8282
2.90793	74.8087
2.9063	74.8159
2.90467	74.8627
2.90304	74.8765
2.90142	74.9001
2.89979	74.8748
2.89817	74.8181
2.89656	74.7894
2.89494	74.8979
2.89332	75.0197
2.89171	75.0236
2.8901	75.1533
2.88849	75.2497
2.88688	75.2815
2.88527	75.2381
2.88367	75.3284
2.88206	75.4837
2.88046	75.431
2.87886	75.3618
2.87727	75.3427
2.87567	75.3305
2.87408	75.3653
2.87248	75.4721
2.87089	75.5233
2.8693	75.4858
2.86772	75.4805
2.86613	75.688
2.86455	75.8175
2.86297	75.8263
2.86139	75.9384
2.85981	75.9579
2.85823	75.9188
2.85666	76.0066
2.85508	76.1742
2.85351	76.3388
2.85194	76.3746
2.85038	76.2808
2.84881	76.2371
2.84724	76.243
2.84568	76.2858
2.84412	76.4592
2.84256	76.5401
2.841	76.5756
2.83945	76.6634
2.83789	76.709
2.83634	76.7177
2.83479	76.8533
2.83324	76.9805
2.83169	77.0163
2.83015	77.0283
2.82861	77.1401
2.82706	77.214
2.82552	77.2782
2.82398	77.3829
2.82245	77.5103
2.82091	77.7017
2.81938	77.8235
2.81784	77.8864
2.81631	77.8756
2.81479	77.9494
2.81326	78.0281
2.81173	78.1397
2.81021	78.3005
2.80869	78.4426
2.80716	78.5236
2.80565	78.708
2.80413	78.9597
2.80261	79.2259
2.8011	79.3123
2.79959	79.2775
2.79808	79.3792
2.79657	79.5746
2.79506	79.802
2.79355	80.0404
2.79205	80.1928
2.79055	80.296
2.78904	80.6215
2.78754	80.9769
2.78605	81.0604
2.78455	81.1645
2.78306	81.3285
2.78156	81.4152
2.78007	81.5688
2.77858	81.8328
2.77709	82.1153
2.77561	82.1783
2.77412	82.4048
2.77264	82.942
2.77116	83.3303
2.76968	83.3489
2.7682	83.4534
2.76672	83.7145
2.76524	83.8145
2.76377	84.072
2.7623	84.2853
2.76083	84.2385
2.75936	84.2817
2.75789	84.6842
2.75642	85.2396
2.75496	85.3238
2.7535	85.1515
2.75203	85.2915
2.75057	85.4361
2.74912	85.6455
2.74766	85.8576
2.7462	86.0666
2.74475	86.2284
2.7433	86.4677
2.74185	86.8592
2.7404	87.2016
2.73895	87.2743
2.7375	87.119
2.73606	87.2576
2.73462	87.4793
2.73318	87.52
2.73174	87.6047
2.7303	87.6547
2.72886	87.7664
2.72742	87.929
2.72599	88.2994
2.72456	88.6509
2.72313	88.6001
2.7217	88.798
2.72027	89.0969
2.71884	88.9232
2.71742	88.8923
2.71599	88.8769
2.71457	89.0031
2.71315	89.2017
2.71173	89.5756
2.71032	89.7067
2.7089	89.5523
2.70748	89.365
2.70607	89.2868
2.70466	89.398
2.70325	89.6255
2.70184	89.8316
2.70043	89.8778
2.69903	89.8163
2.69762	89.903
2.69622	90.2725
2.69482	90.5742
2.69342	90.5424
2.69202	90.3109
2.69062	90.3069
2.68923	90.3947
2.68783	90.4583
2.68644	90.54
2.68505	90.6822
2.68366	90.6979
2.68227	90.6296
2.68089	90.6286
2.6795	90.7983
2.67812	90.962
2.67673	91.0833
2.67535	90.9784
2.67397	90.835
2.6726	90.8875
2.67122	91.4154
2.66984	91.5736
2.66847	91.2911
2.6671	91.5129
2.66572	91.6319
2.66435	91.4775
2.66299	91.1333
2.66162	91.0829
2.66025	91.1162
2.65889	91.1748
2.65753	91.0974
2.65616	91.218
2.65481	91.2024
2.65345	91.1486
2.65209	91.2433
2.65073	91.244
2.64938	91.1587
2.64803	91.1177
2.64667	91.1821
2.64532	91.1008
2.64397	91.0547
2.64263	91.1479
2.64128	91.1995
2.63994	91.1289
2.63859	91.087
2.63725	91.177
2.63591	91.2137
2.63457	91.2564
2.63323	91.2728
2.6319	91.3717
2.63056	91.5937
2.62923	91.4966
2.62789	91.4147
2.62656	91.5242
2.62523	91.4453
2.6239	91.3663
2.62258	91.3589
2.62125	91.6136
2.61993	91.7031
2.6186	91.5693
2.61728	91.7262
2.61596	91.5522
2.61464	91.3331
2.61332	91.4161
2.61201	91.4588
2.61069	91.5022
2.60938	91.555
2.60807	91.5711
2.60675	91.7024
2.60544	91.7455
2.60414	91.5311
2.60283	91.4476
2.60152	91.3821
2.60022	91.3654
2.59891	91.3224
2.59761	91.4148
2.59631	91.7516
2.59501	92.2433
2.59371	92.022
2.59242	91.6061
2.59112	91.4757
2.58983	91.4704
2.58853	91.4961
2.58724	91.511
2.58595	91.4536
2.58466	91.6561
2.58338	91.7334
2.58209	91.5517
2.5808	91.461
2.57952	91.3768
2.57824	91.4046
2.57695	91.5209
2.57567	91.5652
2.5744	91.5996
2.57312	91.5553
2.57184	91.3499
2.57057	91.4085
2.56929	91.4636
2.56802	91.4057
2.56675	91.3911
2.56548	91.4251
2.56421	91.5254
2.56294	91.5573
2.56168	91.6208
2.56041	91.6733
2.55915	91.4679
2.55789	91.2598
2.55662	91.2759
2.55536	91.3364
2.5541	91.3747
2.55285	91.4526
2.55159	91.3504
2.55034	91.1659
2.54908	91.1301
2.54783	91.2968
2.54658	91.3738
2.54533	91.3767
2.54408	91.4837
2.54283	91.6325
2.54159	91.4991
2.54034	91.2709
2.5391	91.2411
2.53785	91.2915
2.53661	91.2523
2.53537	91.1963
2.53413	91.2699
2.53289	91.4121
2.53166	91.4
2.53042	91.3351
2.52919	91.2597
2.52795	91.1496
2.52672	91.0956
2.52549	91.127
2.52426	91.2048
2.52303	91.3468
2.52181	91.4341
2.52058	91.3432
2.51936	91.2167
2.51813	91.1878
2.51691	91.2453
2.51569	91.2684
2.51447	91.2375
2.51325	91.3167
2.51203	91.301
2.51082	91.2358
2.5096	91.3079
2.50839	91.2652
2.50717	91.233
2.50596	91.2903
2.50475	91.1892
2.50354	91.1281
2.50233	91.2004
2.50113	91.3354
2.49992	91.2945
2.49872	91.1989
2.49751	91.2376
2.49631	91.2887
2.49511	91.3444
2.49391	91.3289
2.49271	91.2785
2.49151	91.1788
2.49031	90.9946
2.48912	90.918
2.48792	91.0763
2.48673	91.1348
2.48554	91.0594
2.48435	91.0433
2.48316	91.0677
2.48197	91.0432
2.48078	91.0141
2.4796	90.9717
2.47841	91.046
2.47723	91.1663
2.47604	91.0947
2.47486	91.0268
2.47368	91.003
2.4725	91.0106
2.47132	91.106
2.47014	91.129
2.46897	91.0978
2.46779	91.0149
2.46662	91.1028
2.46545	91.1581
2.46427	91.0572
2.4631	91.0597
2.46193	91.1862
2.46077	91.1655
2.4596	91.1631
2.45843	91.2732
2.45727	91.2676
2.4561	91.2932
2.45494	91.3852
2.45378	91.296
2.45262	91.2822
2.45146	91.3274
2.4503	91.263
2.44914	91.1915
2.44799	91.198
2.44683	91.2733
2.44568	91.2993
2.44452	91.2053
2.44337	91.2281
2.44222	91.3623
2.44107	91.3868
2.43992	91.2694
2.43877	91.1593
2.43763	91.1425
2.43648	91.2433
2.43534	91.3017
2.43419	91.3591
2.43305	91.4029
2.43191	91.3034
2.43077	91.1609
2.42963	91.2073
2.42849	91.2381
2.42736	91.325
2.42622	91.3862
2.42509	91.3144
2.42395	91.2812
2.42282	91.3049
2.42169	91.2239
2.42056	91.2271
2.41943	91.3123
2.4183	91.311
2.41717	91.2718
2.41605	91.1393
2.41492	91.2628
2.4138	91.4403
2.41267	91.3265
2.41155	91.2805
2.41043	91.226
2.40931	91.3052
2.40819	91.386
2.40707	91.3674
2.40595	91.3884
2.40484	91.3806
2.40372	91.2307
2.40261	91.2532
2.4015	91.4217
2.40039	91.3773
2.39928	91.2471
2.39817	91.2241
2.39706	91.3003
2.39595	91.3649
2.39484	91.342
2.39374	91.3269
2.39263	91.3603
2.39153	91.2892
2.39043	91.2098
2.38932	91.3202
2.38822	91.3287
2.38712	91.2044
2.38603	91.2965
2.38493	91.4589
2.38383	91.4147
2.38274	91.4503
2.38164	91.4819
2.38055	91.3531
2.37946	91.2882
2.37836	91.4061
2.37727	91.4634
2.37618	91.4224
2.3751	91.4098
2.37401	91.4371
2.37292	91.3509
2.37184	91.2297
2.37075	91.3017
2.36967	91.3294
2.36859	91.35
2.3675	91.2606
2.36642	91.2853
2.36534	91.3224
2.36427	91.2918
2.36319	91.2459
2.36211	91.3516
2.36104	91.4728
2.35996	91.424
2.35889	91.4121
2.35781	91.4847
2.35674	91.6065
2.35567	91.5725
2.3546	91.412
2.35353	91.3227
2.35247	91.3964
2.3514	91.4432
2.35033	91.4067
2.34927	91.4154
2.3482	91.4957
2.34714	91.4821
2.34608	91.5217
2.34502	91.5609
2.34396	91.4951
2.3429	91.364
2.34184	91.3842
2.34078	91.5482
2.33973	91.6885
2.33867	91.6165
2.33762	91.5286
2.33656	91.4895
2.33551	91.4569
2.33446	91.4949
2.33341	91.5777
2.33236	91.5913
2.33131	91.4943
2.33026	91.4725
2.32922	91.5286
2.32817	91.5992
2.32712	91.5788
2.32608	91.5629
2.32504	91.5643
2.324	91.5186
2.32295	91.5713
2.32191	91.5701
2.32087	91.5814
2.31984	91.5674
2.3188	91.5507
2.31776	91.4408
2.31673	91.5168
2.31569	91.5873
2.31466	91.5816
2.31362	91.55
2.31259	91.454
2.31156	91.4224
2.31053	91.4244
2.3095	91.483
2.30847	91.4772
2.30745	91.4539
2.30642	91.381
2.3054	91.4468
2.30437	91.4679
2.30335	91.4849
2.30232	91.4885
2.3013	91.4074
2.30028	91.493
2.29926	91.4352
2.29824	91.4545
2.29722	91.5289
2.29621	91.605
2.29519	91.6879
2.29417	91.6402
2.29316	91.5733
2.29215	91.621
2.29113	91.7401
2.29012	91.7856
2.28911	91.7511
2.2881	91.6006
2.28709	91.6369
2.28608	91.6894
2.28507	91.5488
2.28407	91.3851
2.28306	91.4132
2.28206	91.524
2.28105	91.6205
2.28005	91.6509
2.27905	91.6371
2.27805	91.5954
2.27705	91.5432
2.27605	91.5403
2.27505	91.6225
2.27405	91.706
2.27305	91.7661
2.27206	91.7396
2.27106	91.6417
2.27007	91.6748
2.26907	91.6748
2.26808	91.6909
2.26709	91.7289
2.2661	91.6476
2.26511	91.6387
2.26412	91.6779
2.26313	91.7419
2.26214	91.666
2.26116	91.4862
2.26017	91.577
2.25919	91.7877
2.2582	91.7116
2.25722	91.6289
2.25624	91.6707
2.25526	91.6139
2.25428	91.5684
2.2533	91.6148
2.25232	91.5586
2.25134	91.6849
2.25036	91.8203
2.24939	91.8168
2.24841	91.6513
2.24744	91.5165
2.24646	91.6324
2.24549	91.8246
2.24452	91.913
2.24355	91.7852
2.24257	91.6324
2.24161	91.6869
2.24064	91.7886
2.23967	91.7965
2.2387	91.7728
2.23774	91.6615
2.23677	91.5925
2.23581	91.7019
2.23484	91.8157
2.23388	91.7389
2.23292	91.6638
2.23196	91.7926
2.231	91.8457
2.23004	91.7449
2.22908	91.7398
2.22812	91.8348
2.22716	91.8086
2.22621	91.7202
2.22525	91.694
2.2243	91.6868
2.22334	91.7383
2.22239	91.8156
2.22144	91.7836
2.22049	91.7049
2.21953	91.6617
2.21859	91.6507
2.21764	91.8119
2.21669	91.921
2.21574	91.8722
2.21479	91.8463
2.21385	91.7844
2.2129	91.7623
2.21196	91.7944
2.21102	91.891
2.21007	91.863
2.20913	91.7899
2.20819	91.7338
2.20725	91.783
2.20631	91.8948
2.20537	91.8981
2.20444	91.7651
2.2035	91.8842
2.20256	91.9787
2.20163	91.8486
2.20069	91.673
2.19976	91.7218
2.19883	91.93
2.19789	92.0179
2.19696	91.8713
2.19603	91.7102
2.1951	91.6883
2.19417	91.8149
2.19325	91.8989
2.19232	91.928
2.19139	91.9929
2.19047	92.0355
2.18954	92.0361
2.18862	92.0375
2.18769	91.9694
2.18677	91.8305
2.18585	91.8786
2.18493	91.8651
2.18401	91.7402
2.18309	91.7887
2.18217	91.8636
2.18125	91.9088
2.18033	91.8253
2.17942	91.9172
2.1785	91.8423
2.17759	91.8801
2.17667	92.0714
2.17576	91.9885
2.17485	91.9637
2.17393	91.8965
2.17302	91.8085
2.17211	91.9176
2.1712	91.9605
2.17029	91.8155
2.16939	91.6911
2.16848	91.6885
2.16757	91.8527
2.16667	92.0725
2.16576	92.165
2.16486	92.0263
2.16395	91.9494
2.16305	91.8508
2.16215	91.835
2.16125	91.9218
2.16035	91.7744
2.15945	91.6496
2.15855	91.8242
2.15765	92.0407
2.15675	92.0814
2.15586	91.88
2.15496	91.8968
2.15406	92.0769
2.15317	91.9012
2.15228	91.7977
2.15138	91.8585
2.15049	91.8376
2.1496	91.8468
2.14871	91.9118
2.14782	91.9383
2.14693	91.7072
2.14604	91.5814
2.14515	91.8216
2.14427	92.0511
2.14338	92.0212
2.14249	91.8438
2.14161	91.8362
2.14072	92.0745
2.13984	92.0559
2.13896	92.0008
2.13808	91.9776
2.13719	91.935
2.13631	91.8661
2.13543	91.8098
2.13455	91.8695
2.13368	92.0122
2.1328	91.989
2.13192	91.9207
2.13105	91.7983
2.13017	91.885
2.1293	92.0314
2.12842	91.9133
2.12755	91.8084
2.12668	91.9143
2.1258	91.8886
2.12493	91.7693
2.12406	91.9089
2.12319	92.0007
2.12232	92.0135
2.12145	92.0391
2.12059	91.9677
2.11972	91.8737
2.11885	91.8862
2.11799	91.9835
2.11712	92.1033
2.11626	92.0575
2.1154	91.8078
2.11453	91.7452
2.11367	91.9695
2.11281	91.9869
2.11195	91.8466
2.11109	91.8979
2.11023	92.1173
2.10937	92.0783
2.10851	91.9687
2.10766	91.8124
2.1068	91.7307
2.10594	91.7399
2.10509	91.8988
2.10423	92.0111
2.10338	92.0778
2.10253	91.978
2.10168	91.9991
2.10082	92.009
2.09997	91.9427
2.09912	91.8589
2.09827	91.8307
2.09742	91.7361
2.09658	91.6634
2.09573	91.7751
2.09488	92.0432
2.09404	91.9956
2.09319	91.8559
2.09235	91.9321
2.0915	91.8835
2.09066	91.8227
2.08982	91.7686
2.08897	91.8781
2.08813	92.0067
2.08729	92.0354
2.08645	92.1906
2.08561	92.0034
2.08477	91.8436
2.08394	91.7568
2.0831	91.7647
2.08226	91.9265
2.08143	92.0663
2.08059	92.0833
2.07976	92.094
2.07892	92.1214
2.07809	92.1022
2.07726	92.3425
2.07643	92.0337
2.07559	91.6609
2.07476	91.8131
2.07393	91.88
2.0731	91.9983
2.07228	91.8752
2.07145	91.8597
2.07062	91.8318
2.06979	91.7351
2.06897	91.6904
2.06814	91.8458
2.06732	92.0653
2.06649	92.094
2.06567	92.0259
2.06485	92.0396
2.06403	92.0352
2.0632	91.7224
2.06238	91.5228
2.06156	91.7648
2.06074	92.0641
2.05993	92.0092
2.05911	91.9872
2.05829	91.8796
2.05747	91.8773
2.05666	91.8319
2.05584	91.8798
2.05503	91.9672
2.05421	91.9582
2.0534	91.8986
2.05259	91.9643
2.05177	92.0115
2.05096	91.8182
2.05015	91.6477
2.04934	91.7393
2.04853	91.8305
2.04772	92.0424
2.04691	92.1004
2.04611	91.9195
2.0453	91.8192
2.04449	91.9519
2.04369	92.0096
2.04288	91.9518
2.04208	91.9736
2.04127	91.9659
2.04047	91.9586
2.03967	92.012
2.03886	92.1066
2.03806	92.0511
2.03726	91.8972
2.03646	91.9285
2.03566	92.0759
2.03486	92.0634
2.03407	92.0361
2.03327	92.0229
2.03247	91.9562
2.03167	91.8115
2.03088	91.7474
2.03008	91.9487
2.02929	92.1261
2.0285	91.9818
2.0277	92.1117
2.02691	92.2318
2.02612	92.2467
2.02533	92.2013
2.02453	91.9789
2.02374	91.7235
2.02295	91.7986
2.02217	91.9636
2.02138	92.1724
2.02059	92.1887
2.0198	92.0694
2.01902	91.8056
2.01823	91.8885
2.01744	92.0326
2.01666	92.0389
2.01588	92.128
2.01509	92.2083
2.01431	92.0717
2.01353	91.9
2.01275	92.0508
2.01196	92.1323
2.01118	92.0045
2.0104	91.9441
2.00963	92.0393
2.00885	92.2273
2.00807	91.9841
2.00729	91.7547
2.00651	91.823
2.00574	91.81
2.00496	91.7822
2.00419	91.9945
2.00341	92.1246
2.00264	92.0889
2.00187	92.0391
2.00109	91.8252
2.00032	91.9785
