Name: Oolitic Iron Ore
Type: Rock
Class: Sedimentary
Subclass:  Chemical precipitate 
Particle Size: Solid surface
Sample No.: Ward76.txt
Owner: JPL
Wavelength range:  IR
Origin: Ward's Collection of American Rocks.  Sample locality - Clinton, Oneida County, New York.
Collected by:  Ward's Natural Science
Description: A deep red hematite showing well-developed oolitic texture.
Geologic age - Silurian.




Measurement: Hemispherical reflectance
First Column: X
Second Column: Y
X Units: Wavelength (micrometers)
Y Units: Reflectance (percent)
First X Value: 15.3871
Last X Value: 1.9998
Number of X Values: 2257
Additional information: None

15.3871   5.68922
15.3416   5.58723
15.2964   5.50368
15.2514   5.19329
15.2066   4.68315
15.1622   4.19036
15.1180   3.93308
15.0740   3.67850
15.0303   3.31575
14.9869   3.02114
14.9437   3.04976
14.9008   3.01664
14.8581   2.82933
14.8156   2.59697
14.7734   2.34215
14.7314   2.53417
14.6897   2.77373
14.6482   2.58577
14.6069   2.34233
14.5659   2.21922
14.5251   2.10845
14.4845   2.06027
14.4442   2.19317
14.4041   2.15874
14.3642   2.09397
14.3245   1.80840
14.2850   1.68608
14.2458   1.81076
14.2068   1.90625
14.1679   1.85300
14.1293   1.99083
14.0909   2.16490
14.0528   2.21414
14.0148   2.20987
13.9770   2.17282
13.9394   2.22502
13.9021   2.12984
13.8649   2.18765
13.8279   2.37802
13.7911   2.35206
13.7546   2.19773
13.7182   2.18565
13.6820   2.23365
13.6460   2.19033
13.6101   2.11997
13.5745   2.23102
13.5391   2.27904
13.5038   2.39025
13.4687   2.56164
13.4339   2.47460
13.3991   2.45673
13.3646   2.63102
13.3302   2.69812
13.2961   2.61507
13.2621   2.67937
13.2282   2.92315
13.1946   2.99788
13.1611   2.74084
13.1278   2.72017
13.0946   2.88875
13.0616   2.99019
13.0288   3.12486
12.9962   3.31492
12.9637   3.34780
12.9313   3.32251
12.8992   3.43787
12.8672   3.70970
12.8353   3.78505
12.8036   3.84867
12.7721   3.73780
12.7407   3.62416
12.7095   3.48618
12.6784   3.35890
12.6475   3.41286
12.6167   3.45996
12.5861   3.69083
12.5556   3.74322
12.5253   3.62117
12.4951   3.66754
12.4651   3.80598
12.4352   3.72541
12.4054   3.70673
12.3758   3.60628
12.3463   3.29613
12.3170   3.15821
12.2878   3.01104
12.2588   3.07026
12.2299   3.03972
12.2011   3.09720
12.1725   3.30593
12.1439   3.54133
12.1156   3.59599
12.0873   3.48198
12.0592   3.42102
12.0312   3.51254
12.0034   3.62353
11.9757   3.63588
11.9481   3.55998
11.9206   3.51781
11.8933   3.51386
11.8661   3.63024
11.8390   3.78250
11.8120   3.84053
11.7852   3.94696
11.7584   4.05387
11.7318   4.10166
11.7053   4.24628
11.6790   4.43619
11.6527   4.48134
11.6266   4.28952
11.6006   4.17742
11.5747   4.26431
11.5489   4.40481
11.5233   4.56949
11.4977   4.55898
11.4723   4.66186
11.4469   4.85258
11.4217   5.14229
11.3966   5.33023
11.3716   5.41114
11.3468   5.59843
11.3220   5.90502
11.2973   6.03204
11.2728   6.09156
11.2483   6.17023
11.2240   6.14357
11.1997   5.89699
11.1756   5.67930
11.1515   5.46220
11.1276   5.08263
11.1038   4.84139
11.0801   4.83468
11.0564   4.92496
11.0329   4.99419
11.0095   5.04686
10.9862   4.86797
10.9629   4.72583
10.9398   4.80975
10.9168   4.96594
10.8938   5.05548
10.8710   4.98778
10.8483   4.97310
10.8256   4.97308
10.8031   5.03910
10.7806   5.01544
10.7582   4.95719
10.7360   4.99174
10.7138   5.10708
10.6917   5.21024
10.6697   5.22140
10.6478   5.32159
10.6260   5.42265
10.6042   5.30770
10.5826   5.18788
10.5610   5.27151
10.5396   5.32475
10.5182   5.24324
10.4969   5.13674
10.4757   5.19061
10.4546   5.26650
10.4335   5.24967
10.4126   5.26658
10.3917   5.25189
10.3709   5.10609
10.3502   5.03170
10.3296   5.10887
10.3091   5.21420
10.2886   5.19340
10.2683   5.25906
10.2480   5.31951
10.2277   5.40847
10.2076   5.45852
10.1876   5.28623
10.1676   4.98682
10.1477   4.96160
10.1279   5.13074
10.1081   5.14192
10.0885   5.09996
10.0689   5.25643
10.0494   5.25983
10.0299   5.15247
10.0106   5.06841
 9.9913   5.09577
 9.9720   5.02087
 9.9529   4.94035
 9.9338   4.99141
 9.9148   5.12394
 9.8959   5.12901
 9.8771   5.14128
 9.8583   5.22807
 9.8396   5.26914
 9.8210   5.22943
 9.8024   5.22187
 9.7839   5.21217
 9.7655   5.27670
 9.7471   5.41429
 9.7288   5.46139
 9.7106   5.46100
 9.6925   5.64376
 9.6744   5.72709
 9.6564   5.63149
 9.6384   5.52332
 9.6205   5.50361
 9.6027   5.68638
 9.5850   5.84076
 9.5673   5.90028
 9.5497   5.99362
 9.5321   5.94524
 9.5146   5.92207
 9.4972   5.94057
 9.4798   6.04293
 9.4625   6.21712
 9.4453   6.55004
 9.4281   6.83808
 9.4110   7.07872
 9.3940   7.47555
 9.3770   7.70016
 9.3600   7.84076
 9.3432   8.20168
 9.3264   8.41710
 9.3096   8.40758
 9.2930   8.40548
 9.2763   8.45664
 9.2598   8.54393
 9.2432   8.61649
 9.2268   8.74187
 9.2104   8.74255
 9.1941   8.59871
 9.1778   8.63940
 9.1616   8.86988
 9.1454   9.06741
 9.1293   8.86143
 9.1133   8.81075
 9.0973   8.84786
 9.0814   8.84762
 9.0655   8.77791
 9.0497   8.75764
 9.0339   8.93646
 9.0182   8.95369
 9.0025   9.02302
 8.9870   9.23199
 8.9714   9.12509
 8.9559   9.03987
 8.9405   8.98162
 8.9251   8.89403
 8.9097   9.07087
 8.8945   9.18548
 8.8792   9.17263
 8.8641   9.07557
 8.8489   9.00445
 8.8338   8.98079
 8.8188   9.10359
 8.8039   9.15442
 8.7889   8.93486
 8.7741   8.82912
 8.7592   9.06220
 8.7445   9.06711
 8.7297   8.94268
 8.7151   9.01232
 8.7005   9.05328
 8.6859   8.89397
 8.6714   8.64739
 8.6569   8.48040
 8.6425   8.26900
 8.6281   8.09791
 8.6137   8.30574
 8.5994   8.67210
 8.5852   8.91093
 8.5710   9.19547
 8.5569   9.38491
 8.5428   9.39545
 8.5287   9.45550
 8.5147   9.56353
 8.5008   9.71658
 8.4869   9.83847
 8.4730  10.03960
 8.4592  10.23580
 8.4454  10.30830
 8.4316  10.33840
 8.4180  10.37950
 8.4043  10.40860
 8.3907  10.36510
 8.3772  10.43200
 8.3637  10.63240
 8.3502  10.85710
 8.3368  11.15120
 8.3234  11.29700
 8.3100  11.13110
 8.2967  11.17510
 8.2835  11.29310
 8.2703  11.42990
 8.2571  11.59380
 8.2440  11.70040
 8.2309  11.66650
 8.2179  11.65480
 8.2049  11.81860
 8.1919  12.05500
 8.1790  12.05160
 8.1661  11.99910
 8.1532  11.93650
 8.1404  11.77490
 8.1277  11.67650
 8.1150  11.57410
 8.1023  11.34750
 8.0897  11.22380
 8.0770  11.12530
 8.0645  11.11510
 8.0520  11.02140
 8.0395  10.81380
 8.0270  10.61080
 8.0146  10.50780
 8.0023  10.42140
 7.9899  10.31950
 7.9776  10.25560
 7.9654  10.20860
 7.9532  10.12100
 7.9410  10.08850
 7.9288   9.97200
 7.9167   9.82151
 7.9047   9.73172
 7.8926   9.56984
 7.8807   9.47541
 7.8687   9.54717
 7.8568   9.49622
 7.8449   9.41365
 7.8330   9.36029
 7.8212   9.33112
 7.8094   9.35401
 7.7977   9.24023
 7.7860   9.24253
 7.7743   9.33458
 7.7627   9.28175
 7.7511   9.25023
 7.7395   9.32756
 7.7280   9.37291
 7.7165   9.33717
 7.7050   9.29322
 7.6936   9.23537
 7.6822   9.30374
 7.6708   9.35196
 7.6595   9.23155
 7.6482   9.08310
 7.6369   8.89236
 7.6257   8.75370
 7.6145   8.70502
 7.6033   8.63749
 7.5922   8.63324
 7.5811   8.64914
 7.5700   8.63335
 7.5590   8.58220
 7.5480   8.67599
 7.5370   8.79758
 7.5261   8.82483
 7.5152   8.81038
 7.5043   8.83257
 7.4935   8.83666
 7.4826   8.83537
 7.4718   8.82210
 7.4611   8.88655
 7.4504   8.97079
 7.4397   8.95758
 7.4290   8.94953
 7.4184   8.94861
 7.4078   8.99968
 7.3972   9.04296
 7.3867   8.95442
 7.3762   8.90757
 7.3657   8.94979
 7.3553   8.91794
 7.3449   8.93463
 7.3345   8.92656
 7.3241   8.82502
 7.3138   8.71261
 7.3035   8.74717
 7.2932   8.85073
 7.2830   8.84784
 7.2727   8.84770
 7.2626   8.85013
 7.2524   8.81573
 7.2423   8.77342
 7.2322   8.81225
 7.2221   8.88091
 7.2120   8.98289
 7.2020   9.03572
 7.1921   9.09186
 7.1821   9.12516
 7.1722   9.14939
 7.1623   9.13904
 7.1524   9.19144
 7.1425   9.30661
 7.1327   9.44437
 7.1229   9.61933
 7.1131   9.79384
 7.1034   9.91915
 7.0937  10.04450
 7.0840  10.05720
 7.0743  10.14490
 7.0647  10.16060
 7.0551  10.26730
 7.0455  10.33760
 7.0359  10.20780
 7.0264  10.12940
 7.0169  10.14040
 7.0074  10.18940
 6.9979  10.27940
 6.9885  10.27940
 6.9791  10.20990
 6.9697  10.28970
 6.9604  10.32100
 6.9510  10.25950
 6.9417  10.32220
 6.9324  10.33230
 6.9232  10.31470
 6.9140  10.32870
 6.9047  10.36330
 6.8956  10.43720
 6.8864  10.40190
 6.8773  10.34640
 6.8682  10.57920
 6.8591  10.64620
 6.8500  10.57830
 6.8410  10.66470
 6.8320  10.74110
 6.8230  10.75180
 6.8140  10.76740
 6.8051  10.86680
 6.7962  11.03160
 6.7873  10.99070
 6.7784  10.90570
 6.7695  10.90420
 6.7607  10.84470
 6.7519  10.87580
 6.7431  10.97590
 6.7344  11.02890
 6.7256  11.10050
 6.7169  11.19830
 6.7082  11.25370
 6.6996  11.28910
 6.6909  11.32820
 6.6823  11.47210
 6.6737  11.49780
 6.6651  11.48250
 6.6566  11.56770
 6.6480  11.76770
 6.6395  11.94770
 6.6310  11.94330
 6.6226  11.92700
 6.6141  11.86230
 6.6057  11.86880
 6.5973  11.89240
 6.5889  11.86200
 6.5805  12.01770
 6.5722  12.17130
 6.5639  12.06720
 6.5556  11.96820
 6.5473  11.89960
 6.5390  11.94040
 6.5308  12.00260
 6.5226  12.07710
 6.5144  12.10040
 6.5062  12.33280
 6.4981  12.63800
 6.4900  12.54340
 6.4818  12.34420
 6.4737  12.37620
 6.4657  12.41220
 6.4576  12.36010
 6.4496  12.30900
 6.4416  12.38130
 6.4336  12.41810
 6.4256  12.46840
 6.4177  12.61120
 6.4097  12.47970
 6.4018  12.16910
 6.3939  11.98960
 6.3860  11.85120
 6.3782  11.61650
 6.3704  11.37990
 6.3625  11.08010
 6.3547  10.73960
 6.3470  10.51030
 6.3392  10.18750
 6.3315   9.79453
 6.3237   9.57267
 6.3160   9.30710
 6.3083   9.12092
 6.3007   9.01678
 6.2930   8.88208
 6.2854   8.68400
 6.2778   8.59538
 6.2702   8.53095
 6.2626   8.46371
 6.2551   8.38261
 6.2476   8.23294
 6.2400   8.08829
 6.2325   7.96449
 6.2251   7.74907
 6.2176   7.53981
 6.2101   7.45828
 6.2027   7.40086
 6.1953   7.40607
 6.1879   7.48428
 6.1805   7.49669
 6.1732   7.47424
 6.1658   7.43731
 6.1585   7.48529
 6.1512   7.56193
 6.1439   7.57869
 6.1367   7.46841
 6.1294   7.33469
 6.1222   7.40406
 6.1149   7.50472
 6.1077   7.50159
 6.1006   7.53507
 6.0934   7.52027
 6.0862   7.43611
 6.0791   7.49250
 6.0720   7.55266
 6.0649   7.52703
 6.0578   7.58709
 6.0507   7.62612
 6.0437   7.51029
 6.0366   7.49065
 6.0296   7.52140
 6.0226   7.47968
 6.0156   7.40848
 6.0087   7.37967
 6.0017   7.36685
 5.9948   7.38008
 5.9878   7.45726
 5.9809   7.51977
 5.9740   7.53019
 5.9672   7.53442
 5.9603   7.50204
 5.9535   7.48459
 5.9466   7.45838
 5.9398   7.63503
 5.9330   7.61365
 5.9262   7.45945
 5.9195   7.60837
 5.9127   7.81360
 5.9060   7.85225
 5.8993   8.00331
 5.8926   8.04403
 5.8859   8.18291
 5.8792   8.29394
 5.8726   8.21775
 5.8659   8.18988
 5.8593   8.25172
 5.8527   8.37757
 5.8461   8.46466
 5.8395   8.52964
 5.8329   8.54832
 5.8264   8.68037
 5.8198   8.71453
 5.8133   8.67946
 5.8068   8.71925
 5.8003   8.77223
 5.7938   8.75317
 5.7874   8.79257
 5.7809   8.85619
 5.7745   9.02051
 5.7680   9.12432
 5.7616   9.05320
 5.7552   9.04815
 5.7489   9.03644
 5.7425   9.03613
 5.7361   9.16236
 5.7298   9.14724
 5.7235   9.15635
 5.7172   9.20936
 5.7109   9.17252
 5.7046   9.19581
 5.6983   9.17538
 5.6921   9.10622
 5.6858   9.07689
 5.6796   9.17880
 5.6734   9.25334
 5.6672   9.17593
 5.6610   9.19386
 5.6548   9.09926
 5.6487   9.08919
 5.6425   9.14154
 5.6364   9.06630
 5.6303   9.00745
 5.6242   9.01972
 5.6181   8.99626
 5.6120   8.93196
 5.6059   8.86818
 5.5999   8.87131
 5.5938   8.88932
 5.5878   8.86312
 5.5818   8.86699
 5.5758   8.86655
 5.5698   8.78862
 5.5638   8.80729
 5.5578   8.79330
 5.5519   8.77582
 5.5460   8.73463
 5.5400   8.75455
 5.5341   8.90853
 5.5282   9.02501
 5.5223   8.98541
 5.5164   8.90497
 5.5106   8.94967
 5.5047   9.03069
 5.4989   9.03434
 5.4931   9.03197
 5.4873   9.06224
 5.4815   9.18597
 5.4757   9.29665
 5.4699   9.36664
 5.4641   9.40508
 5.4584   9.45546
 5.4527   9.46679
 5.4469   9.46528
 5.4412   9.48993
 5.4355   9.50285
 5.4298   9.51157
 5.4241   9.50006
 5.4185   9.45290
 5.4128   9.48028
 5.4072   9.45445
 5.4015   9.40319
 5.3959   9.33507
 5.3903   9.29928
 5.3847   9.32292
 5.3791   9.29809
 5.3735   9.27328
 5.3680   9.24531
 5.3624   9.22016
 5.3569   9.25567
 5.3514   9.32472
 5.3458   9.33133
 5.3403   9.33696
 5.3348   9.33033
 5.3294   9.31911
 5.3239   9.29604
 5.3184   9.28603
 5.3130   9.30161
 5.3075   9.27479
 5.3021   9.28199
 5.2967   9.41271
 5.2913   9.48903
 5.2859   9.44203
 5.2805   9.44925
 5.2751   9.48767
 5.2698   9.52300
 5.2644   9.52912
 5.2591   9.43468
 5.2538   9.43774
 5.2485   9.53127
 5.2431   9.63369
 5.2378   9.72571
 5.2326   9.79599
 5.2273   9.86615
 5.2220   9.90729
 5.2168   9.90260
 5.2115   9.90153
 5.2063   9.85818
 5.2011   9.86609
 5.1959   9.92730
 5.1907   9.99436
 5.1855   9.99451
 5.1803   9.98036
 5.1751   9.94248
 5.1700   9.98233
 5.1648  10.06100
 5.1597   9.95744
 5.1545   9.86055
 5.1494   9.94299
 5.1443   9.98122
 5.1392   9.90089
 5.1341   9.95348
 5.1291   9.97631
 5.1240   9.95603
 5.1189   9.96251
 5.1139   9.99641
 5.1088   9.96525
 5.1038   9.89581
 5.0988   9.88692
 5.0938   9.87823
 5.0888   9.92131
 5.0838   9.96620
 5.0788   9.88806
 5.0738   9.87171
 5.0689   9.92668
 5.0639   9.93705
 5.0590   9.91539
 5.0541   9.88624
 5.0491   9.76193
 5.0442   9.73466
 5.0393   9.77604
 5.0344   9.80114
 5.0296   9.78819
 5.0247   9.87962
 5.0198   9.97676
 5.0150   9.94694
 5.0101   9.91994
 5.0053   9.92501
 5.0004   9.94830
 4.9956   9.90805
 4.9908   9.93445
 4.9860   9.96574
 4.9812   9.99782
 4.9765  10.00230
 4.9717   9.97817
 4.9669  10.04640
 4.9622  10.05890
 4.9574  10.01010
 4.9527  10.04280
 4.9480  10.16160
 4.9432  10.18790
 4.9385  10.20790
 4.9338  10.20340
 4.9291  10.18950
 4.9245  10.23320
 4.9198  10.23360
 4.9151  10.26030
 4.9105  10.37440
 4.9058  10.43900
 4.9012  10.45340
 4.8966  10.53210
 4.8919  10.57800
 4.8873  10.60600
 4.8827  10.69500
 4.8781  10.76110
 4.8736  10.74960
 4.8690  10.69020
 4.8644  10.66440
 4.8599  10.70590
 4.8553  10.81200
 4.8508  10.87890
 4.8462  10.84880
 4.8417  10.83680
 4.8372  10.84010
 4.8327  10.85900
 4.8282  10.81870
 4.8237  10.73990
 4.8192  10.81410
 4.8147  10.88580
 4.8103  10.78130
 4.8058  10.83630
 4.8014  10.93970
 4.7969  10.90280
 4.7925  10.83440
 4.7881  10.84970
 4.7836  10.83670
 4.7792  10.89780
 4.7748  11.03410
 4.7704  10.92950
 4.7660  10.80210
 4.7617  10.86690
 4.7573  10.88830
 4.7530  10.94200
 4.7486  11.04820
 4.7443  11.03300
 4.7399  11.00360
 4.7356  10.94930
 4.7313  10.92400
 4.7270  10.96810
 4.7226  10.99080
 4.7184  10.89360
 4.7141  10.91360
 4.7098  10.94320
 4.7055  11.01640
 4.7012  11.08640
 4.6970  11.02470
 4.6927  10.95570
 4.6885  10.85540
 4.6842  10.84420
 4.6800  10.86450
 4.6758  10.92470
 4.6716  10.96040
 4.6674  10.87640
 4.6632  10.90230
 4.6590  10.94360
 4.6548  10.97680
 4.6506  10.94900
 4.6465  10.94890
 4.6423  10.94780
 4.6382  10.95000
 4.6340  10.98170
 4.6299  11.03980
 4.6258  10.95860
 4.6216  11.01150
 4.6175  11.03310
 4.6134  10.99710
 4.6093  11.08430
 4.6052  10.99020
 4.6011  10.90960
 4.5971  11.02140
 4.5930  11.18890
 4.5889  11.25990
 4.5849  11.17730
 4.5808  11.11310
 4.5768  11.09710
 4.5727  11.12410
 4.5687  11.12190
 4.5647  11.14680
 4.5607  11.23180
 4.5567  11.26460
 4.5526  11.26610
 4.5487  11.21990
 4.5447  11.18740
 4.5407  11.13140
 4.5367  11.16800
 4.5328  11.27640
 4.5288  11.32190
 4.5248  11.31830
 4.5209  11.28230
 4.5170  11.21010
 4.5130  11.16530
 4.5091  11.15810
 4.5052  11.18970
 4.5013  11.29260
 4.4974  11.41090
 4.4935  11.31680
 4.4896  11.18340
 4.4857  11.17510
 4.4818  11.16440
 4.4779  11.25730
 4.4741  11.27500
 4.4702  11.26630
 4.4664  11.26880
 4.4625  11.23720
 4.4587  11.19630
 4.4549  11.18330
 4.4510  11.21870
 4.4472  11.17150
 4.4434  11.22160
 4.4396  11.29090
 4.4358  11.27290
 4.4320  11.31390
 4.4282  11.36490
 4.4245  11.36990
 4.4207  11.34350
 4.4169  11.36710
 4.4132  11.35260
 4.4094  11.34320
 4.4057  11.31780
 4.4019  11.45030
 4.3982  11.49790
 4.3945  11.42700
 4.3907  11.48540
 4.3870  11.56760
 4.3833  11.49270
 4.3796  11.37820
 4.3759  11.45210
 4.3722  11.57320
 4.3685  11.60760
 4.3649  11.46870
 4.3612  11.40120
 4.3575  11.32670
 4.3539  11.31930
 4.3502  11.34290
 4.3466  11.40540
 4.3429  11.43620
 4.3393  11.33110
 4.3357  11.27510
 4.3320  11.40460
 4.3284  11.52860
 4.3248  11.41990
 4.3212  11.32010
 4.3176  11.25200
 4.3140  11.12570
 4.3105  10.99520
 4.3069  10.82880
 4.3033  10.70950
 4.2997  10.80040
 4.2962  10.94340
 4.2926  10.93950
 4.2890  10.89380
 4.2855  10.75760
 4.2820  10.70250
 4.2784  10.76360
 4.2749  10.82690
 4.2714  10.87920
 4.2679  10.95020
 4.2644  11.06300
 4.2609  11.19830
 4.2574  11.33340
 4.2539  11.18720
 4.2504  10.94360
 4.2469  10.81840
 4.2434  10.71490
 4.2400  10.57300
 4.2365  10.59070
 4.2330  10.77000
 4.2296  10.79290
 4.2261  10.73290
 4.2227  10.82210
 4.2193  10.85850
 4.2158  10.91620
 4.2124  11.07110
 4.2090  11.26680
 4.2056  11.32740
 4.2022  11.30000
 4.1988  11.41820
 4.1954  11.65510
 4.1920  11.73380
 4.1886  11.59280
 4.1852  11.51910
 4.1818  11.56260
 4.1785  11.60450
 4.1751  11.62290
 4.1717  11.69100
 4.1684  11.59670
 4.1650  11.55960
 4.1617  11.61650
 4.1584  11.58290
 4.1550  11.47690
 4.1517  11.45010
 4.1484  11.57790
 4.1451  11.63320
 4.1418  11.48790
 4.1384  11.48490
 4.1351  11.58210
 4.1319  11.55110
 4.1286  11.57580
 4.1253  11.64210
 4.1220  11.66020
 4.1187  11.51270
 4.1155  11.48390
 4.1122  11.60310
 4.1089  11.64370
 4.1057  11.62470
 4.1024  11.73880
 4.0992  11.68190
 4.0959  11.47970
 4.0927  11.55020
 4.0895  11.63030
 4.0863  11.49370
 4.0830  11.44080
 4.0798  11.56080
 4.0766  11.60460
 4.0734  11.66250
 4.0702  11.63820
 4.0670  11.53720
 4.0639  11.50460
 4.0607  11.44440
 4.0575  11.49380
 4.0543  11.51630
 4.0511  11.43610
 4.0480  11.44450
 4.0448  11.33190
 4.0417  11.27750
 4.0385  11.35520
 4.0354  11.38480
 4.0323  11.30310
 4.0291  11.24540
 4.0260  11.15350
 4.0229  11.02120
 4.0197  11.01430
 4.0166  11.11580
 4.0135  11.24750
 4.0104  11.16350
 4.0073  11.15880
 4.0042  11.14150
 4.0011  11.04180
 3.9981  10.86220
 3.9950  10.75180
 3.9919  10.75370
 3.9888  10.76540
 3.9857  10.63430
 3.9827  10.62030
 3.9796  10.68060
 3.9766  10.58460
 3.9735  10.49710
 3.9705  10.53720
 3.9675  10.62850
 3.9644  10.60700
 3.9614  10.59080
 3.9584  10.81140
 3.9554  10.97770
 3.9523  10.84820
 3.9493  10.70780
 3.9463  10.65210
 3.9433  10.72840
 3.9403  10.87680
 3.9373  10.92350
 3.9343  10.91790
 3.9314  10.86250
 3.9284  10.91070
 3.9254  10.96340
 3.9224  10.94570
 3.9195  10.84850
 3.9165  10.75390
 3.9136  10.83190
 3.9106  10.93520
 3.9077  10.95760
 3.9047  10.92820
 3.9018  10.84870
 3.8988  10.87450
 3.8959  10.97830
 3.8930  11.04100
 3.8901  11.09600
 3.8872  11.02920
 3.8842  10.94520
 3.8813  10.92300
 3.8784  10.93330
 3.8755  11.15060
 3.8726  11.24220
 3.8697  11.09070
 3.8669  11.16430
 3.8640  11.21140
 3.8611  11.08170
 3.8582  11.06470
 3.8554  11.12830
 3.8525  11.19320
 3.8496  11.20700
 3.8468  11.18540
 3.8439  10.99290
 3.8411  10.95270
 3.8382  11.22700
 3.8354  11.37410
 3.8326  11.31210
 3.8297  11.18650
 3.8269  11.21520
 3.8241  11.25530
 3.8213  11.20070
 3.8185  11.26900
 3.8157  11.18820
 3.8128  11.09200
 3.8100  11.24100
 3.8072  11.33340
 3.8045  11.15180
 3.8017  11.11500
 3.7989  11.14810
 3.7961  11.19240
 3.7933  11.16900
 3.7906  11.14750
 3.7878  11.29860
 3.7850  11.33840
 3.7822  11.36560
 3.7795  11.44990
 3.7767  11.52250
 3.7740  11.43590
 3.7713  11.38220
 3.7685  11.51140
 3.7658  11.61720
 3.7630  11.64710
 3.7603  11.60660
 3.7576  11.57150
 3.7549  11.59260
 3.7521  11.64340
 3.7494  11.71640
 3.7467  11.65190
 3.7440  11.56980
 3.7413  11.60520
 3.7386  11.63380
 3.7359  11.70200
 3.7332  11.74130
 3.7306  11.73490
 3.7279  11.69460
 3.7252  11.76070
 3.7225  11.84860
 3.7199  11.73710
 3.7172  11.67240
 3.7145  11.62990
 3.7119  11.70910
 3.7092  11.65180
 3.7066  11.58650
 3.7039  11.67380
 3.7013  11.58100
 3.6986  11.53670
 3.6960  11.66060
 3.6934  11.74020
 3.6907  11.71060
 3.6881  11.66570
 3.6855  11.77880
 3.6829  11.77690
 3.6803  11.71980
 3.6776  11.73830
 3.6750  11.70900
 3.6724  11.74910
 3.6698  11.77670
 3.6672  11.73490
 3.6646  11.78360
 3.6620  11.75050
 3.6595  11.70190
 3.6569  11.70560
 3.6543  11.79310
 3.6517  11.78350
 3.6492  11.72200
 3.6466  11.59330
 3.6440  11.55380
 3.6415  11.63080
 3.6389  11.62270
 3.6364  11.67700
 3.6338  11.69130
 3.6313  11.63080
 3.6287  11.64820
 3.6262  11.70650
 3.6237  11.57060
 3.6211  11.53390
 3.6186  11.67890
 3.6161  11.60860
 3.6136  11.53100
 3.6111  11.63700
 3.6085  11.62080
 3.6060  11.58190
 3.6035  11.62630
 3.6010  11.65930
 3.5985  11.58930
 3.5960  11.57200
 3.5935  11.68050
 3.5910  11.70660
 3.5886  11.79480
 3.5861  11.84700
 3.5836  11.58900
 3.5811  11.41380
 3.5787  11.44600
 3.5762  11.51950
 3.5737  11.44350
 3.5713  11.45600
 3.5688  11.53420
 3.5663  11.67890
 3.5639  11.70010
 3.5614  11.54970
 3.5590  11.50160
 3.5566  11.48100
 3.5541  11.41560
 3.5517  11.36970
 3.5493  11.41720
 3.5468  11.56780
 3.5444  11.55770
 3.5420  11.38960
 3.5396  11.29800
 3.5372  11.32710
 3.5347  11.36530
 3.5323  11.41480
 3.5299  11.33870
 3.5275  11.17480
 3.5251  11.15810
 3.5227  11.23270
 3.5203  11.41830
 3.5180  11.30630
 3.5156  11.07110
 3.5132  11.08730
 3.5108  11.14290
 3.5084  11.03530
 3.5061  10.80140
 3.5037  10.73410
 3.5013  10.83730
 3.4990  10.72100
 3.4966  10.67200
 3.4943  10.79010
 3.4919  10.98830
 3.4895  10.88790
 3.4872  10.56380
 3.4849  10.74150
 3.4825  10.81350
 3.4802  10.78910
 3.4778  10.95750
 3.4755  10.93940
 3.4732  10.76930
 3.4709  10.79770
 3.4685  10.86510
 3.4662  10.87830
 3.4639  10.61010
 3.4616  10.45250
 3.4593  10.63640
 3.4570  10.69540
 3.4547  10.72980
 3.4524  10.73160
 3.4501  10.64000
 3.4478  10.61660
 3.4455  10.57250
 3.4432  10.72480
 3.4409  10.74720
 3.4386  10.73510
 3.4364  10.69270
 3.4341  10.63510
 3.4318  10.69990
 3.4295  10.87720
 3.4273  10.93080
 3.4250  10.64430
 3.4228  10.49640
 3.4205  10.61490
 3.4182  10.79710
 3.4160  10.77890
 3.4137  10.61420
 3.4115  10.63060
 3.4093  10.79300
 3.4070  10.96780
 3.4048  10.89830
 3.4025  10.63670
 3.4003  10.73310
 3.3981  10.79490
 3.3958  10.65750
 3.3936  10.69150
 3.3914  10.83570
 3.3892  10.70170
 3.3870  10.44240
 3.3848  10.58410
 3.3826  10.79720
 3.3804  10.80940
 3.3782  10.93500
 3.3760  10.91940
 3.3738  10.80940
 3.3716  10.91290
 3.3694  10.82120
 3.3672  10.48500
 3.3650  10.29040
 3.3628  10.44290
 3.3606  10.58720
 3.3585  10.82840
 3.3563  10.77480
 3.3541  10.60340
 3.3520  10.66460
 3.3498  10.63280
 3.3476  10.51020
 3.3455  10.57010
 3.3433  10.73990
 3.3411  10.66390
 3.3390  10.60440
 3.3369  10.54720
 3.3347  10.46380
 3.3326  10.56560
 3.3304  10.76480
 3.3283  10.62080
 3.3262  10.61590
 3.3240  10.78790
 3.3219  10.81680
 3.3198  10.83730
 3.3176  10.74840
 3.3155  10.63750
 3.3134  10.58770
 3.3113  10.59910
 3.3092  10.64140
 3.3071  10.44800
 3.3049  10.37340
 3.3028  10.76060
 3.3007  10.83260
 3.2986  10.88820
 3.2965  10.76310
 3.2944  10.60420
 3.2924  10.72190
 3.2903  10.85540
 3.2882  10.69320
 3.2861  10.68940
 3.2840  10.85190
 3.2819  10.92210
 3.2799  10.72080
 3.2778  10.62030
 3.2757  10.75270
 3.2736  10.78650
 3.2716  10.94510
 3.2695  10.95130
 3.2675  10.77370
 3.2654  10.61680
 3.2634  10.53710
 3.2613  10.62690
 3.2593  10.80080
 3.2572  10.92340
 3.2552  11.00260
 3.2531  10.94410
 3.2511  10.89420
 3.2490  10.78210
 3.2470  10.56440
 3.2450  10.54030
 3.2429  10.58410
 3.2409  10.53760
 3.2389  10.69700
 3.2369  10.83600
 3.2348  10.64610
 3.2328  10.62720
 3.2308  10.48630
 3.2288  10.25200
 3.2268  10.43100
 3.2248  10.62740
 3.2228  10.53060
 3.2208  10.69290
 3.2188  10.70550
 3.2168  10.58600
 3.2148  10.43030
 3.2128  10.57370
 3.2108  10.54540
 3.2088  10.22390
 3.2068  10.12650
 3.2049  10.25270
 3.2029  10.62400
 3.2009  10.73360
 3.1989  10.45540
 3.1970  10.26390
 3.1950  10.30480
 3.1930  10.47590
 3.1911  10.61760
 3.1891  10.42050
 3.1871  10.28830
 3.1852  10.48410
 3.1832  10.56270
 3.1813  10.55510
 3.1793  10.49250
 3.1774  10.36940
 3.1754  10.20040
 3.1735  10.04070
 3.1715   9.98861
 3.1696   9.97780
 3.1677  10.07670
 3.1657  10.33510
 3.1638  10.46550
 3.1619  10.31600
 3.1599  10.04920
 3.1580   9.77440
 3.1561   9.68450
 3.1542   9.89120
 3.1523  10.07200
 3.1503  10.10730
 3.1484  10.11070
 3.1465  10.18850
 3.1446  10.29530
 3.1427  10.19970
 3.1408   9.94875
 3.1389   9.97350
 3.1370  10.03650
 3.1351   9.87730
 3.1332   9.65475
 3.1313   9.60188
 3.1294   9.92352
 3.1275  10.11310
 3.1257   9.89797
 3.1238   9.80615
 3.1219   9.87373
 3.1200   9.97832
 3.1181   9.95684
 3.1163   9.82014
 3.1144   9.51222
 3.1125   9.37414
 3.1107   9.45447
 3.1088   9.69654
 3.1069   9.93393
 3.1051   9.67268
 3.1032   9.60087
 3.1014   9.73730
 3.0995   9.84904
 3.0976   9.91258
 3.0958   9.61679
 3.0940   9.08917
 3.0921   9.28049
 3.0903   9.39262
 3.0884   9.53688
 3.0866   9.74075
 3.0848   9.85709
 3.0829   9.53630
 3.0811   9.28998
 3.0793   9.53400
 3.0774   9.55557
 3.0756   9.31378
 3.0738   9.08465
 3.0720   8.95951
 3.0701   9.36093
 3.0683   9.42315
 3.0665   9.10145
 3.0647   9.16306
 3.0629   9.35170
 3.0611   9.45323
 3.0593   9.48922
 3.0575   9.30464
 3.0557   9.18270
 3.0539   9.37156
 3.0521   9.36217
 3.0503   9.04108
 3.0485   9.15719
 3.0467   9.52352
 3.0449   9.34347
 3.0431   9.08389
 3.0413   9.05369
 3.0396   9.10599
 3.0378   9.07626
 3.0360   9.08798
 3.0342   8.94887
 3.0324   8.84061
 3.0307   9.11239
 3.0289   9.24853
 3.0271   9.12193
 3.0254   9.25605
 3.0236   9.10554
 3.0218   8.61254
 3.0201   8.61583
 3.0183   8.84112
 3.0166   8.68313
 3.0148   8.60962
 3.0130   8.65915
 3.0113   9.08397
 3.0096   9.38102
 3.0078   9.21150
 3.0061   8.90925
 3.0043   8.86850
 3.0026   8.73821
 3.0008   8.59986
 2.9991   8.72943
 2.9974   8.63484
 2.9956   8.45636
 2.9939   8.80338
 2.9922   8.69178
 2.9905   8.66659
 2.9887   8.95418
 2.9870   8.98012
 2.9853   8.96452
 2.9836   8.82347
 2.9819   8.63704
 2.9802   9.09086
 2.9784   9.13492
 2.9767   8.67676
 2.9750   8.23859
 2.9733   8.14692
 2.9716   8.74880
 2.9699   9.16510
 2.9682   8.84942
 2.9665   8.54411
 2.9648   8.62275
 2.9631   8.50174
 2.9614   8.43625
 2.9597   8.57208
 2.9581   8.69702
 2.9564   8.86624
 2.9547   8.77139
 2.9530   8.64874
 2.9513   8.67307
 2.9496   8.55436
 2.9480   8.38420
 2.9463   8.16775
 2.9446   8.06443
 2.9429   8.18990
 2.9413   8.42462
 2.9396   8.32051
 2.9379   8.19397
 2.9363   8.09914
 2.9346   8.13573
 2.9330   8.38724
 2.9313   8.61989
 2.9296   8.19241
 2.9280   7.78380
 2.9263   8.11631
 2.9247   8.71930
 2.9230   8.83474
 2.9214   8.53956
 2.9197   8.56390
 2.9181   8.63889
 2.9165   8.55348
 2.9148   8.84854
 2.9132   8.95270
 2.9116   8.67075
 2.9099   8.44107
 2.9083   8.15276
 2.9067   8.19297
 2.9050   8.56107
 2.9034   8.53586
 2.9018   8.46419
 2.9002   8.58176
 2.8985   8.77838
 2.8969   8.43070
 2.8953   8.35675
 2.8937   8.77956
 2.8921   9.10563
 2.8905   8.69469
 2.8888   8.62110
 2.8872   8.87667
 2.8856   8.87485
 2.8840   8.89949
 2.8824   8.50975
 2.8808   8.18540
 2.8792   8.27405
 2.8776   8.27950
 2.8760   8.62350
 2.8744   8.95591
 2.8728   9.07800
 2.8712   9.11287
 2.8697   8.90306
 2.8681   8.75431
 2.8665   8.93974
 2.8649   8.96845
 2.8633   8.53850
 2.8617   8.70274
 2.8602   8.81265
 2.8586   8.75340
 2.8570   8.72942
 2.8554   8.74283
 2.8539   9.05403
 2.8523   9.14972
 2.8507   9.16686
 2.8492   8.71846
 2.8476   8.59123
 2.8460   8.58621
 2.8445   8.32165
 2.8429   8.49718
 2.8413   8.84072
 2.8398   8.66191
 2.8382   8.73809
 2.8367   8.99618
 2.8351   9.01546
 2.8336   9.11118
 2.8320   9.19712
 2.8305   9.11304
 2.8289   8.88222
 2.8274   8.70630
 2.8259   8.48492
 2.8243   8.51378
 2.8228   8.17724
 2.8213   8.11163
 2.8197   8.25077
 2.8182   8.36277
 2.8167   8.47409
 2.8151   8.63064
 2.8136   9.01979
 2.8121   9.11260
 2.8106   8.48134
 2.8090   8.21391
 2.8075   8.42995
 2.8060   8.54641
 2.8045   8.93562
 2.8030   9.69964
 2.8014   9.53171
 2.7999   9.47867
 2.7984   9.16868
 2.7969   8.50308
 2.7954   8.50642
 2.7939   8.72528
 2.7924   8.79746
 2.7909   9.07849
 2.7894  10.18450
 2.7879  10.14750
 2.7864   9.91514
 2.7849   9.56007
 2.7834   9.11495
 2.7819   9.31723
 2.7804   9.50727
 2.7789   9.24333
 2.7774   8.86702
 2.7759   9.27679
 2.7745   9.78717
 2.7730   9.90526
 2.7715  10.00400
 2.7700  10.34110
 2.7685  10.17620
 2.7671  10.00150
 2.7656  10.00330
 2.7641  10.28740
 2.7626  10.27250
 2.7612   9.58477
 2.7597   9.71550
 2.7582   9.83016
 2.7568   9.63850
 2.7553   9.96101
 2.7538  10.07790
 2.7524   9.74607
 2.7509  10.01840
 2.7494  10.36840
 2.7480  10.53660
 2.7465  10.67200
 2.7451  10.62360
 2.7436  10.41510
 2.7422  11.03160
 2.7407  11.61450
 2.7393  11.17040
 2.7378  10.80820
 2.7364  10.80340
 2.7350  10.84940
 2.7335  10.65010
 2.7321  10.83180
 2.7306  10.87680
 2.7292  10.80630
 2.7278  11.04980
 2.7263  11.51990
 2.7249  12.27320
 2.7235  12.19180
 2.7220  11.47540
 2.7206  11.57830
 2.7192  11.75660
 2.7178  11.87910
 2.7163  12.06490
 2.7149  12.03300
 2.7135  11.88630
 2.7121  11.92640
 2.7106  11.93320
 2.7092  11.94150
 2.7078  11.80980
 2.7064  11.79880
 2.7050  11.94050
 2.7036  12.29450
 2.7022  12.29740
 2.7008  12.09780
 2.6994  12.02520
 2.6980  11.94970
 2.6965  12.29920
 2.6951  12.54370
 2.6938  12.41500
 2.6923  12.38810
 2.6910  12.67070
 2.6896  12.63290
 2.6882  12.24910
 2.6868  11.81680
 2.6854  11.76770
 2.6840  11.98390
 2.6826  12.18920
 2.6812  12.46540
 2.6798  12.47470
 2.6784  12.34600
 2.6771  12.63870
 2.6757  12.50870
 2.6743  12.09700
 2.6729  12.06740
 2.6715  12.28740
 2.6702  12.34560
 2.6688  12.29240
 2.6674  12.35150
 2.6660  12.60990
 2.6647  12.71340
 2.6633  12.42510
 2.6619  12.41050
 2.6606  12.32820
 2.6592  12.09990
 2.6578  12.04450
 2.6565  12.19960
 2.6551  12.38860
 2.6538  12.46960
 2.6524  12.55810
 2.6511  12.29630
 2.6497  12.07280
 2.6484  12.25310
 2.6470  12.25290
 2.6456  12.01240
 2.6443  12.09320
 2.6429  12.30520
 2.6416  12.64750
 2.6403  12.70630
 2.6389  12.49950
 2.6376  12.59730
 2.6362  12.53110
 2.6349  12.54390
 2.6336  12.55860
 2.6322  12.43700
 2.6309  12.66410
 2.6296  12.88280
 2.6282  12.72480
 2.6269  12.29100
 2.6256  12.01210
 2.6242  12.22540
 2.6229  12.37430
 2.6216  12.41150
 2.6203  12.55170
 2.6189  12.51340
 2.6176  12.58650
 2.6163  12.47840
 2.6150  12.35820
 2.6136  12.05140
 2.6123  12.04380
 2.6110  12.35240
 2.6097  12.26430
 2.6084  12.44650
 2.6071  12.62180
 2.6058  12.64900
 2.6044  12.38190
 2.6031  12.16530
 2.6018  12.23190
 2.6005  12.48570
 2.5992  12.44330
 2.5979  12.27890
 2.5966  12.47030
 2.5953  13.15090
 2.5940  12.93490
 2.5927  12.42080
 2.5914  12.43510
 2.5901  12.58250
 2.5888  12.61770
 2.5876  12.50480
 2.5863  12.24950
 2.5850  12.05670
 2.5837  12.14150
 2.5824  12.62240
 2.5811  12.53930
 2.5798  12.21740
 2.5785  12.30120
 2.5773  12.13560
 2.5760  11.99470
 2.5747  12.58080
 2.5734  13.13730
 2.5722  12.41940
 2.5709  11.97340
 2.5696  11.89090
 2.5683  12.01380
 2.5671  12.06500
 2.5658  12.14380
 2.5645  12.17620
 2.5633  12.31070
 2.5620  12.45350
 2.5607  12.47130
 2.5595  11.97320
 2.5582  11.96960
 2.5569  12.05510
 2.5557  11.71920
 2.5544  12.03270
 2.5532  12.44860
 2.5519  12.42080
 2.5507  12.67880
 2.5494  12.72930
 2.5481  12.53670
 2.5469  12.43950
 2.5456  12.76900
 2.5444  12.51610
 2.5431  12.31730
 2.5419  12.64880
 2.5406  12.35840
 2.5394  12.48170
 2.5382  12.59180
 2.5369  12.38580
 2.5357  12.08310
 2.5344  12.64580
 2.5332  12.51440
 2.5320  12.39640
 2.5307  12.22080
 2.5295  11.63470
 2.5283  11.45210
 2.5270  11.54200
 2.5258  11.87840
 2.5246  12.36900
 2.5233  12.33570
 2.5221  12.14140
 2.5209  12.09670
 2.5197  12.20200
 2.5184  12.26120
 2.5172  12.58020
 2.5160  12.71800
 2.5148  12.66930
 2.5136  12.39430
 2.5123  12.02120
 2.5111  11.59620
 2.5099  11.65770
 2.5087  12.45930
 2.5075  12.86400
 2.5063  12.56920
 2.5051  12.26250
 2.5038  12.25530
 2.5026  12.38460
 2.5014  12.41680
 2.5002  12.33700
 2.4990  12.31600
 2.4978  12.57360
 2.4966  12.38740
 2.4954  12.26200
 2.4942  12.28430
 2.4930  11.88190
 2.4918  11.96990
 2.4906  12.20010
 2.4894  12.32610
 2.4882  11.89530
 2.4870  11.73640
 2.4858  12.44450
 2.4846  12.65990
 2.4835  12.41670
 2.4823  12.68870
 2.4811  12.36590
 2.4799  11.92620
 2.4787  11.94900
 2.4775  12.03930
 2.4764  12.53170
 2.4752  12.62110
 2.4740  12.47500
 2.4728  12.59890
 2.4716  12.69420
 2.4705  12.30680
 2.4693  11.59810
 2.4681  11.56920
 2.4669  12.14930
 2.4657  12.28720
 2.4646  12.52890
 2.4634  12.64980
 2.4622  12.28480
 2.4611  12.41580
 2.4599  12.60260
 2.4587  12.26730
 2.4576  12.27770
 2.4564  12.50900
 2.4552  12.75410
 2.4541  12.76680
 2.4529  12.84130
 2.4518  12.75500
 2.4506  12.34630
 2.4494  12.36080
 2.4483  12.48190
 2.4471  11.89620
 2.4460  11.51440
 2.4448  11.86350
 2.4437  12.42330
 2.4425  12.44010
 2.4414  12.40650
 2.4402  11.96880
 2.4391  11.73330
 2.4379  12.22550
 2.4368  12.48430
 2.4356  12.20900
 2.4345  12.27420
 2.4333  12.66200
 2.4322  12.81660
 2.4311  12.61120
 2.4299  12.81050
 2.4288  12.17190
 2.4276  11.90330
 2.4265  12.48000
 2.4254  12.75420
 2.4242  12.71800
 2.4231  12.42850
 2.4220  12.30150
 2.4209  12.79920
 2.4197  12.89310
 2.4186  12.53840
 2.4175  12.48180
 2.4163  12.49930
 2.4152  12.40990
 2.4141  12.62830
 2.4130  12.45460
 2.4118  11.82780
 2.4107  12.13630
 2.4096  12.94680
 2.4085  12.83200
 2.4074  12.43310
 2.4063  12.36040
 2.4051  12.47340
 2.4040  12.55240
 2.4029  12.55450
 2.4018  12.12200
 2.4007  11.93480
 2.3996  12.31420
 2.3985  12.46840
 2.3973  12.63540
 2.3962  12.82420
 2.3951  12.61150
 2.3940  12.49230
 2.3929  12.28790
 2.3918  12.24430
 2.3907  12.59010
 2.3896  12.18160
 2.3885  11.76130
 2.3874  12.24900
 2.3863  12.28060
 2.3852  11.83270
 2.3841  12.17510
 2.3830  12.76290
 2.3819  12.48460
 2.3808  12.00530
 2.3798  11.88610
 2.3786  12.36260
 2.3776  12.46110
 2.3765  12.64890
 2.3754  12.70330
 2.3743  12.98770
 2.3732  12.86430
 2.3721  12.19390
 2.3710  12.06080
 2.3700  12.34350
 2.3689  12.45550
 2.3678  12.14770
 2.3667  11.90300
 2.3656  11.90450
 2.3645  12.10920
 2.3635  12.50490
 2.3624  12.10060
 2.3613  11.96500
 2.3603  12.61950
 2.3592  12.84670
 2.3581  12.81900
 2.3570  12.52910
 2.3560  12.27580
 2.3549  12.25490
 2.3538  12.19740
 2.3527  11.84600
 2.3517  11.67610
 2.3506  11.73950
 2.3495  11.94620
 2.3485  12.02730
 2.3474  12.63260
 2.3464  12.50690
 2.3453  12.17620
 2.3442  12.11490
 2.3432  12.38890
 2.3421  12.30310
 2.3411  12.31280
 2.3400  12.51860
 2.3390  12.55370
 2.3379  12.73410
 2.3369  12.24410
 2.3358  12.16460
 2.3347  12.43310
 2.3337  12.51490
 2.3326  11.82700
 2.3316  11.95380
 2.3306  12.41320
 2.3295  12.13650
 2.3285  12.08190
 2.3274  12.54750
 2.3264  12.44460
 2.3253  12.37760
 2.3243  12.43070
 2.3232  12.37410
 2.3222  12.61650
 2.3212  12.65690
 2.3201  12.52150
 2.3191  12.19970
 2.3180  12.40030
 2.3170  12.73990
 2.3160  12.59030
 2.3149  12.30970
 2.3139  12.43140
 2.3129  12.47790
 2.3118  12.32130
 2.3108  11.78190
 2.3098  11.95980
 2.3088  12.30100
 2.3077  12.18540
 2.3067  12.14220
 2.3057  12.43330
 2.3047  12.10910
 2.3036  12.04410
 2.3026  11.93900
 2.3016  12.06070
 2.3006  12.48310
 2.2995  12.34320
 2.2985  12.11810
 2.2975  12.44290
 2.2965  12.70130
 2.2955  12.72320
 2.2944  12.44350
 2.2934  12.62120
 2.2924  12.63120
 2.2914  12.41100
 2.2904  12.50350
 2.2894  12.38600
 2.2884  12.35540
 2.2874  12.39160
 2.2864  12.05200
 2.2854  12.31670
 2.2843  12.23580
 2.2833  11.68870
 2.2823  11.80790
 2.2813  12.10460
 2.2803  12.55300
 2.2793  12.92430
 2.2783  12.84280
 2.2773  12.39130
 2.2763  12.19970
 2.2753  12.15640
 2.2743  12.33350
 2.2733  12.48720
 2.2723  12.70420
 2.2713  12.76240
 2.2703  12.30320
 2.2694  12.01920
 2.2684  11.73740
 2.2674  11.70090
 2.2664  12.39340
 2.2654  12.94460
 2.2644  12.85100
 2.2634  12.69930
 2.2624  12.39240
 2.2614  11.96480
 2.2605  11.88420
 2.2595  12.48680
 2.2585  12.54380
 2.2575  12.11230
 2.2565  12.92330
 2.2555  13.02990
 2.2546  12.12530
 2.2536  12.53060
 2.2526  13.39130
 2.2516  13.18220
 2.2506  12.46030
 2.2497  12.25400
 2.2487  12.52270
 2.2477  13.12010
 2.2467  12.64210
 2.2458  12.23830
 2.2448  12.19280
 2.2438  12.30750
 2.2428  12.43800
 2.2419  12.52450
 2.2409  12.74170
 2.2399  12.79530
 2.2390  12.25700
 2.2380  12.16820
 2.2370  12.52680
 2.2361  12.59250
 2.2351  12.55260
 2.2342  12.36740
 2.2332  12.77830
 2.2322  13.20920
 2.2313  12.96240
 2.2303  12.63020
 2.2294  12.36200
 2.2284  12.18250
 2.2274  11.78380
 2.2265  12.12870
 2.2255  13.31470
 2.2246  13.14670
 2.2236  12.78310
 2.2227  13.16860
 2.2217  12.80350
 2.2208  11.96390
 2.2198  11.85000
 2.2189  12.38560
 2.2179  12.41320
 2.2170  11.50720
 2.2160  11.41910
 2.2151  11.91100
 2.2141  12.22110
 2.2132  12.28900
 2.2122  11.75480
 2.2113  11.40790
 2.2103  12.24690
 2.2094  13.04590
 2.2085  12.87200
 2.2075  12.25220
 2.2066  12.02340
 2.2056  12.38190
 2.2047  12.57050
 2.2038  12.74870
 2.2028  12.18700
 2.2019  12.17620
 2.2010  12.83110
 2.2000  12.81090
 2.1991  12.51710
 2.1982  12.52080
 2.1972  12.60350
 2.1963  12.61030
 2.1954  13.17040
 2.1944  12.95740
 2.1935  12.12940
 2.1926  12.21970
 2.1917  12.43250
 2.1907  12.07550
 2.1898  12.45430
 2.1889  13.21290
 2.1880  12.89160
 2.1870  12.03800
 2.1861  11.56920
 2.1852  12.07260
 2.1843  12.46960
 2.1833  12.60360
 2.1824  12.74950
 2.1815  12.01840
 2.1806  11.59920
 2.1797  12.13540
 2.1788  12.34080
 2.1778  12.38810
 2.1769  13.05020
 2.1760  13.51910
 2.1751  13.17260
 2.1742  12.58990
 2.1733  12.21660
 2.1724  12.75760
 2.1715  12.87930
 2.1706  12.12690
 2.1696  11.88240
 2.1687  12.18350
 2.1678  12.64300
 2.1669  13.27600
 2.1660  13.71870
 2.1651  13.22390
 2.1642  12.84270
 2.1633  12.70600
 2.1624  12.44380
 2.1615  12.24860
 2.1606  11.82620
 2.1597  12.19750
 2.1588  13.08200
 2.1579  13.14860
 2.1570  12.41280
 2.1561  12.01050
 2.1552  12.08700
 2.1543  11.87660
 2.1534  11.59220
 2.1525  12.35120
 2.1517  12.25590
 2.1507  12.80220
 2.1499  12.87550
 2.1490  11.70540
 2.1481  11.60490
 2.1472  12.46970
 2.1463  13.08400
 2.1454  12.90070
 2.1445  12.47820
 2.1436  11.98000
 2.1428  11.87780
 2.1419  12.21780
 2.1410  12.03430
 2.1401  12.48750
 2.1392  12.48250
 2.1383  11.90670
 2.1375  11.79620
 2.1366  12.09160
 2.1357  11.89570
 2.1348  12.11140
 2.1339  12.09060
 2.1331  12.07790
 2.1322  12.92560
 2.1313  13.51640
 2.1304  12.84050
 2.1296  12.27220
 2.1287  12.52730
 2.1278  12.69280
 2.1269  12.93500
 2.1261  12.64160
 2.1252  12.42430
 2.1243  12.23260
 2.1235  11.18460
 2.1226  12.40650
 2.1217  13.14120
 2.1208  12.83970
 2.1200  11.79950
 2.1191  11.53770
 2.1183  12.49310
 2.1174  12.30190
 2.1165  12.06720
 2.1157  11.98140
 2.1148  11.80310
 2.1139  12.36400
 2.1131  12.35750
 2.1122  11.90300
 2.1113  11.77010
 2.1105  12.00800
 2.1096  12.73420
 2.1088  12.30790
 2.1079  12.00850
 2.1071  11.65950
 2.1062  12.09520
 2.1054  12.48440
 2.1045  12.79220
 2.1036  12.77760
 2.1028  12.45120
 2.1019  12.29160
 2.1011  12.46100
 2.1002  12.81720
 2.0994  12.55410
 2.0985  12.12390
 2.0977  11.81390
 2.0968  12.51590
 2.0960  12.74340
 2.0951  11.81640
 2.0943  12.07480
 2.0934  13.46380
 2.0926  12.68330
 2.0918  12.24830
 2.0909  13.34220
 2.0901  12.95430
 2.0892  12.82690
 2.0884  13.19990
 2.0875  12.39470
 2.0867  11.73130
 2.0859  12.26530
 2.0850  12.18500
 2.0842  11.50230
 2.0833  11.65270
 2.0825  11.69080
 2.0817  12.07560
 2.0808  11.90470
 2.0800  10.68940
 2.0792  11.20820
 2.0783  12.06670
 2.0775  11.69200
 2.0767  11.19400
 2.0759  12.63130
 2.0750  13.75480
 2.0742  13.02870
 2.0734  12.72130
 2.0725  12.96300
 2.0717  12.54980
 2.0709  12.57530
 2.0701  13.09270
 2.0692  13.31080
 2.0684  12.54740
 2.0676  11.51620
 2.0667  12.07660
 2.0659  13.11750
 2.0651  13.89860
 2.0643  13.19010
 2.0635  11.23350
 2.0626  11.29770
 2.0618  12.18000
 2.0610  13.61190
 2.0602  13.21350
 2.0594  11.66610
 2.0585  11.99940
 2.0577  12.16380
 2.0569  11.06540
 2.0561  11.28700
 2.0553  13.24670
 2.0545  14.06700
 2.0537  14.44810
 2.0528  12.62900
 2.0520  10.06200
 2.0512   9.83618
 2.0504  11.86010
 2.0496  15.26600
 2.0488  15.85020
 2.0480  12.58490
 2.0472  11.16750
 2.0464  11.55280
 2.0456  11.04550
 2.0447  13.42750
 2.0439  14.81260
 2.0431  13.61030
 2.0423  12.70930
 2.0415  12.82930
 2.0407  13.07210
 2.0399  13.52540
 2.0391  12.04300
 2.0383  11.19100
 2.0375  11.69770
 2.0367  11.05110
 2.0359  11.61470
 2.0351  12.07910
 2.0343  13.69820
 2.0335  13.55000
 2.0327  11.93730
 2.0319  12.38220
 2.0311  12.20820
 2.0303  11.82260
 2.0295  13.13660
 2.0287  11.98570
 2.0280  11.16710
 2.0272  11.92370
 2.0264  11.84280
 2.0256  13.29960
 2.0248  11.71600
 2.0240   9.24021
 2.0232   9.19120
 2.0224  12.19480
 2.0216  13.20290
 2.0208  11.84430
 2.0200  11.29660
 2.0193  10.68440
 2.0185  11.54340
 2.0177  12.02020
 2.0169  13.31090
 2.0161  14.31220
 2.0153  13.91560
 2.0146  13.20300
 2.0138  11.83450
 2.0130  11.37200
 2.0122  11.72680
 2.0114  11.65010
 2.0107  11.84940
 2.0099  11.72990
 2.0091  11.57840
 2.0083  13.18950
 2.0075  13.87770
 2.0068  12.57640
 2.0060  12.74840
 2.0052  12.63830
 2.0044  12.39830
 2.0037  11.32430
 2.0029  11.69850
 2.0021  12.09960
 2.0013  12.10420
 2.0006  12.29590
 1.9998  12.69110
