Name: Chalcopyrite CuFeS_2
Type: Mineral
Class: Sulfides
Subclass: 
Particle Size: 45-125um
Sample No.: S-4A
Owner: JPL
Wavelength range: IR
Origin: Canada, Quebec, Rouyn District
Collected by JPL
Description: 





Measurement: Hemispherical reflectance
First Column: X
Second Column: Y
X Units:  Wavelength (micrometers)
Y Units:  Reflectance (percent)
First X Value: 15.3853
Last X Value: 2.00032
Number of X Values: 2256
Additional information: s04aa.txt
 
15.3853	21.147
15.3397	21.6128
15.2945	21.9974
15.2495	22.1822
15.2048	22.2806
15.1603	22.7278
15.1161	23.2348
15.0722	23.6184
15.0285	24.1016
14.9851	24.3481
14.9419	24.1754
14.8989	24.093
14.8563	24.292
14.8138	24.4326
14.7716	24.4789
14.7296	24.589
14.6879	24.6668
14.6464	24.557
14.6052	24.5281
14.5641	24.6883
14.5233	24.7993
14.4828	24.8107
14.4424	24.9305
14.4023	24.8861
14.3624	24.7907
14.3227	24.9282
14.2833	25.0508
14.244	25.025
14.205	24.8978
14.1662	24.9766
14.1276	25.0868
14.0892	25.226
14.051	25.2485
14.0131	24.9966
13.9753	24.9005
13.9377	25.0127
13.9004	24.9341
13.8632	24.7928
13.8262	24.7494
13.7895	24.6867
13.7529	24.5261
13.7165	24.3997
13.6803	24.3234
13.6443	24.12
13.6085	24.1259
13.5729	24.3076
13.5374	24.1979
13.5022	24.1665
13.4671	24.2456
13.4322	24.2193
13.3975	24.4474
13.363	24.5292
13.3286	24.4014
13.2944	24.542
13.2604	24.9126
13.2266	25.1226
13.193	25.2245
13.1595	25.3478
13.1262	25.5904
13.093	25.9912
13.06	26.2646
13.0272	26.4547
12.9946	26.625
12.9621	26.9575
12.9298	27.3794
12.8976	27.7493
12.8656	28.2072
12.8337	28.7926
12.8021	29.1416
12.7705	29.3339
12.7391	29.5605
12.7079	29.8544
12.6769	30.0618
12.6459	30.3877
12.6152	30.8661
12.5845	31.2876
12.5541	31.6096
12.5238	31.8575
12.4936	32.0935
12.4635	32.2719
12.4337	32.4593
12.4039	32.4786
12.3743	32.4616
12.3448	32.5359
12.3155	32.5696
12.2863	32.5718
12.2573	32.6645
12.2284	32.9218
12.1996	33.2704
12.171	33.4701
12.1425	33.5892
12.1141	33.6804
12.0859	33.7922
12.0578	34.0001
12.0298	34.2132
12.0019	34.4647
11.9742	34.7315
11.9466	34.9634
11.9192	35.3036
11.8918	35.6004
11.8646	35.7905
11.8375	36.0415
11.8106	36.2367
11.7837	36.4152
11.757	36.7145
11.7304	37.083
11.7039	37.3765
11.6776	37.5702
11.6513	37.6965
11.6252	37.9068
11.5992	38.1888
11.5733	38.3194
11.5475	38.4513
11.5219	38.6521
11.4963	38.75
11.4709	38.8708
11.4455	39.0392
11.4203	39.126
11.3952	39.0195
11.3702	39.0368
11.3454	39.046
11.3206	38.8909
11.2959	38.8993
11.2714	38.8752
11.2469	38.707
11.2226	38.5891
11.1983	38.5169
11.1742	38.7146
11.1502	39.1172
11.1263	39.4687
11.1024	39.7212
11.0787	39.93
11.0551	40.0542
11.0316	40.1309
11.0081	40.1971
10.9848	40.2064
10.9616	40.1643
10.9385	40.1714
10.9154	40.0785
10.8925	40.0651
10.8697	40.1039
10.8469	39.9565
10.8243	39.7318
10.8017	39.5685
10.7793	39.5687
10.7569	39.6089
10.7346	39.5657
10.7125	39.5061
10.6904	39.3244
10.6684	39.0547
10.6465	38.8801
10.6247	38.6374
10.6029	38.4284
10.5813	38.2107
10.5597	38.0429
10.5383	38.0575
10.5169	37.9366
10.4956	37.7765
10.4744	37.8369
10.4533	37.8451
10.4323	37.6439
10.4113	37.6422
10.3904	37.7223
10.3697	37.6729
10.349	37.6422
10.3284	37.741
10.3078	37.8482
10.2874	37.9694
10.267	38.1866
10.2467	38.4309
10.2265	38.5967
10.2064	38.79
10.1863	38.9187
10.1663	38.9641
10.1464	39.0383
10.1266	39.1687
10.1069	39.2186
10.0872	39.204
10.0676	39.2665
10.0481	39.3686
10.0287	39.5211
10.0093	39.5039
9.99005	39.3509
9.97084	39.1213
9.95169	38.9646
9.93263	38.99
9.91364	38.9288
9.89472	38.6639
9.87587	38.5399
9.8571	38.5184
9.83839	38.4428
9.81976	38.3632
9.80119	38.2615
9.78271	38.1546
9.76428	38.0451
9.74592	38.0166
9.72764	38.1112
9.70943	38.1145
9.69128	38.1325
9.6732	38.0995
9.65518	38.0733
9.63724	38.062
9.61935	38.1095
9.60155	38.1586
9.5838	38.1889
9.56611	38.3161
9.5485	38.4299
9.53094	38.5147
9.51345	38.5651
9.49604	38.6659
9.47867	38.9744
9.46137	39.2059
9.44414	39.3701
9.42697	39.7399
9.40986	40.2327
9.39281	40.7556
9.37583	41.112
9.35891	41.5056
9.34204	41.883
9.32524	42.0391
9.3085	42.1867
9.29182	42.272
9.27519	42.2845
9.25863	42.1396
9.24213	42.2296
9.22568	42.3494
9.2093	42.3722
9.19297	42.5036
9.17669	42.5499
9.16048	42.4737
9.14433	42.3533
9.12823	42.2552
9.11218	42.2226
9.0962	42.2739
9.08027	42.421
9.06439	42.5107
9.04858	42.6552
9.03281	42.7695
9.0171	42.6921
9.00145	42.5582
8.98585	42.5895
8.9703	42.6993
8.9548	42.683
8.93937	42.6809
8.92398	42.6592
8.90865	42.6488
8.89337	42.7632
8.87814	42.7186
8.86296	42.7132
8.84784	42.8652
8.83277	42.9171
8.81774	42.8288
8.80277	42.6947
8.78786	42.6558
8.77298	42.6611
8.75816	42.6878
8.7434	42.7656
8.72868	42.7828
8.714	42.8273
8.69938	42.9295
8.68481	42.9425
8.67029	42.7013
8.65581	42.272
8.64139	41.9229
8.62701	41.7791
8.61268	41.9567
8.5984	42.5059
8.58416	43.0424
8.56997	43.4466
8.55583	43.9083
8.54174	44.3018
8.52769	44.5831
8.51368	44.7459
8.49973	45.0069
8.48582	45.3391
8.47195	45.7407
8.45813	46.0908
8.44436	46.299
8.43062	46.5009
8.41693	46.823
8.4033	47.217
8.3897	47.5991
8.37614	47.804
8.36264	47.9745
8.34917	48.2711
8.33574	48.6936
8.32236	49.0733
8.30903	49.3972
8.29573	49.7981
8.28248	50.0919
8.26927	50.4042
8.2561	50.8051
8.24298	51.1873
8.2299	51.5348
8.21685	51.7278
8.20385	51.8786
8.19089	52.0308
8.17797	52.2612
8.16509	52.5983
8.15225	52.661
8.13946	52.6515
8.1267	52.6324
8.11398	52.5259
8.10131	52.4647
8.08867	52.5059
8.07606	52.4262
8.0635	52.3283
8.05099	52.2788
8.0385	52.282
8.02606	52.257
8.01366	52.0942
8.00129	51.7623
7.98896	51.0232
7.97667	50.4222
7.96442	51.0055
7.9522	51.7992
7.94002	52.1083
7.92788	52.1067
7.91578	51.9886
7.90371	51.9347
7.89168	51.879
7.87969	51.7487
7.86773	51.6842
7.85581	51.6557
7.84392	51.5463
7.83207	51.4406
7.82026	51.4075
7.80849	51.42
7.79674	51.4206
7.78503	51.4378
7.77337	51.5083
7.76173	51.514
7.75012	51.5022
7.73856	51.5685
7.72703	51.6581
7.71553	51.6143
7.70406	51.6594
7.69263	51.6832
7.68123	51.7007
7.66987	51.7334
7.65855	51.7249
7.64725	51.7749
7.63598	51.8349
7.62475	51.8377
7.61356	51.8789
7.60239	51.9686
7.59126	52.1233
7.58017	52.3134
7.5691	52.4441
7.55806	52.5575
7.54707	52.6456
7.5361	52.6535
7.52516	52.6446
7.51425	52.6911
7.50338	52.7871
7.49253	52.856
7.48172	52.9676
7.47094	53.1052
7.46019	53.1121
7.44947	53.0206
7.43879	53.0411
7.42813	53.0535
7.4175	53.1943
7.4069	53.3454
7.39634	53.3292
7.3858	53.3649
7.37529	53.3733
7.36482	53.4067
7.35437	53.5868
7.34396	53.7454
7.33357	53.6422
7.32321	53.2623
7.31288	53.1309
7.30258	53.1707
7.29231	53.3518
7.28207	53.662
7.27185	53.7272
7.26167	53.5779
7.25152	53.6328
7.24139	53.7556
7.23129	54.031
7.22122	54.3281
7.21117	54.871
7.20116	54.9411
7.19117	54.6899
7.18121	54.8723
7.17128	55.3517
7.16137	55.2452
7.1515	55.284
7.14164	55.2893
7.13182	55.1316
7.12203	55.3785
7.11225	55.3946
7.10251	55.1619
7.0928	55.1276
7.08311	55.0771
7.07344	55.037
7.06381	55.2074
7.0542	55.8978
7.04461	56.3088
7.03506	55.513
7.02552	55.1743
7.01601	55.095
7.00653	55.0237
6.99708	55.2542
6.98765	55.1484
6.97824	54.9469
6.96886	55.4982
6.95951	56.1645
6.95018	55.2647
6.94087	54.6917
6.9316	54.59
6.92234	54.5551
6.91311	54.7075
6.90391	54.7964
6.89473	54.3578
6.88557	54.1696
6.87644	54.464
6.86733	55.8896
6.85824	55.7199
6.84918	54.0869
6.84015	53.4014
6.83114	53.7668
6.82215	53.7378
6.81319	53.1979
6.80424	53.4224
6.79532	54.6369
6.78643	55.1521
6.77756	54.5254
6.76871	53.9697
6.75989	53.6177
6.75109	53.6362
6.74231	53.4994
6.73355	53.5353
6.72482	53.9248
6.71611	54.2635
6.70742	54.0883
6.69875	53.4671
6.69011	53.881
6.68149	54.6616
6.67289	54.4856
6.66431	54.0696
6.65576	53.8969
6.64722	55.0791
6.63871	56.9054
6.63022	56.0588
6.62175	54.5242
6.61331	54.0641
6.60488	53.9023
6.59648	54.2484
6.5881	54.3005
6.57974	54.6772
6.5714	55.1024
6.56308	54.063
6.55478	53.7659
6.54651	53.5435
6.53825	53.2487
6.53001	53.5192
6.5218	54.3905
6.51361	54.2881
6.50544	54.9146
6.49729	57.0634
6.48915	57.5248
6.48104	56.5226
6.47295	55.8697
6.46488	55.2914
6.45683	55.2456
6.4488	55.3362
6.44079	55.4959
6.4328	55.9758
6.42482	56.6302
6.41687	58.4816
6.40894	57.6322
6.40103	55.0747
6.39314	54.2749
6.38526	53.8855
6.37741	53.8783
6.36957	53.8642
6.36176	52.8188
6.35396	52.5627
6.34618	53.3408
6.33843	52.5335
6.33069	51.2292
6.32297	50.7621
6.31527	50.389
6.30758	50.0262
6.29992	49.5742
6.29227	49.2552
6.28465	48.9248
6.27704	48.6399
6.26945	48.295
6.26188	47.9261
6.25432	47.5918
6.24679	47.3244
6.23927	47.0278
6.23177	46.7034
6.22429	46.4778
6.21683	46.2725
6.20938	45.9636
6.20195	45.6906
6.19454	45.8497
6.18715	46.5893
6.17978	46.0544
6.17242	45.2107
6.16508	45.545
6.15776	45.7917
6.15045	45.4131
6.14317	45.3604
6.1359	45.219
6.12864	45.1334
6.12141	45.8597
6.11419	46.9285
6.10699	46.2655
6.0998	45.4865
6.09263	45.4043
6.08549	45.6387
6.07835	46.6057
6.07123	47.0811
6.06413	46.42
6.05705	47.2469
6.04998	49.4284
6.04293	48.1244
6.0359	46.4266
6.02888	46.1964
6.02187	46.4552
6.01489	47.0311
6.00792	46.9239
6.00096	46.818
5.99403	47.5477
5.98711	47.8409
5.9802	47.3837
5.97331	47.7995
5.96644	47.9787
5.95958	47.2983
5.95274	47.4177
5.94591	48.1161
5.9391	49.8007
5.9323	49.5298
5.92552	48.4203
5.91876	48.4575
5.91201	48.7065
5.90528	49.4056
5.89856	51.0818
5.89186	51.4373
5.88517	52.4213
5.8785	53.0244
5.87184	51.6815
5.8652	51.9746
5.85857	52.187
5.85196	52.2004
5.84536	52.4441
5.83878	53.0758
5.83221	54.0883
5.82566	55.3326
5.81912	55.5983
5.81259	54.7805
5.80608	54.691
5.79959	55.0517
5.79311	55.3242
5.78665	55.8322
5.78019	56.443
5.77376	57.4815
5.76734	58.9951
5.76093	58.3209
5.75453	57.7158
5.74815	58.375
5.74179	58.3212
5.73543	58.2961
5.7291	58.4561
5.72277	58.9019
5.71646	59.3665
5.71017	59.6521
5.70389	59.0523
5.69762	58.8162
5.69136	58.9476
5.68513	58.6764
5.6789	58.8157
5.67268	58.5703
5.66648	57.8712
5.6603	57.8115
5.65413	57.7799
5.64797	57.8058
5.64182	57.9543
5.63569	56.9071
5.62957	56.0692
5.62347	55.8246
5.61737	55.8051
5.61129	55.6514
5.60522	55.5989
5.59917	55.5539
5.59313	55.3661
5.5871	55.6298
5.58109	56.2482
5.57509	56.1064
5.5691	55.6272
5.56312	55.7157
5.55716	55.9943
5.55121	56.1461
5.54528	56.0477
5.53935	56.103
5.53344	56.2542
5.52754	56.5786
5.52166	56.8003
5.51578	56.8949
5.50992	57.0216
5.50407	57.3433
5.49823	57.5715
5.49241	57.7976
5.4866	58.0933
5.4808	58.5576
5.47501	58.6968
5.46923	58.9654
5.46347	59.1571
5.45772	58.8115
5.45198	58.6488
5.44625	58.5976
5.44054	58.4332
5.43484	58.1856
5.42914	58.1742
5.42347	58.4919
5.4178	57.7975
5.41214	56.9025
5.4065	56.3195
5.40087	55.7842
5.39525	55.3907
5.38964	54.9886
5.38404	54.7128
5.37846	54.4489
5.37288	54.1772
5.36732	54.004
5.36177	53.9904
5.35623	54.228
5.35071	54.4212
5.34519	54.0927
5.33968	53.8411
5.33419	53.9214
5.32871	53.9282
5.32324	53.9404
5.31778	54.0339
5.31233	54.1392
5.30689	54.1966
5.30147	54.2772
5.29605	54.5302
5.29065	54.7692
5.28525	54.7524
5.27987	54.9172
5.2745	55.1194
5.26914	55.2675
5.26379	55.4211
5.25845	55.6941
5.25312	56.0046
5.24781	56.4018
5.2425	56.8318
5.23721	57.2598
5.23192	57.5777
5.22665	57.9104
5.22138	58.3041
5.21613	58.8836
5.21089	59.1526
5.20566	59.2015
5.20044	59.3756
5.19522	59.2669
5.19002	59.2232
5.18483	59.2288
5.17965	59.1747
5.17448	59.0466
5.16933	58.977
5.16418	58.9768
5.15904	58.9481
5.15391	58.9229
5.14879	59.0296
5.14368	58.9253
5.13859	58.7239
5.1335	58.6606
5.12842	58.6688
5.12335	58.737
5.1183	58.6733
5.11325	58.592
5.10821	58.5624
5.10318	58.478
5.09817	58.3333
5.09316	58.2002
5.08816	58.1141
5.08317	58.0311
5.07819	57.7862
5.07322	57.5956
5.06826	57.4911
5.06331	57.4216
5.05837	57.3602
5.05344	57.3191
5.04852	57.2719
5.04361	57.2248
5.03871	57.2803
5.03382	57.2973
5.02894	57.2944
5.02406	57.309
5.0192	57.3064
5.01435	57.2541
5.0095	57.2012
5.00467	57.2048
4.99984	57.2755
4.99502	57.378
4.99021	57.4888
4.98542	57.6595
4.98063	57.8905
4.97585	58.1401
4.97108	58.3694
4.96632	58.6631
4.96156	59.0445
4.95682	59.3574
4.95209	59.5619
4.94736	59.7224
4.94264	59.8785
4.93794	59.9817
4.93324	60.0813
4.92855	60.2662
4.92387	60.4525
4.9192	60.8032
4.91453	61.2704
4.90988	61.7191
4.90524	62.2665
4.9006	62.9033
4.89597	63.4517
4.89135	63.948
4.88674	64.42
4.88214	64.8278
4.87755	65.1929
4.87296	65.4993
4.86839	65.7002
4.86382	65.9167
4.85926	66.1773
4.85471	66.4458
4.85017	66.636
4.84564	66.793
4.84111	66.8876
4.8366	66.9232
4.83209	66.9974
4.82759	67.1804
4.8231	67.303
4.81862	67.3392
4.81415	67.3769
4.80968	67.419
4.80522	67.4362
4.80077	67.5435
4.79633	67.6133
4.7919	67.6828
4.78747	67.7731
4.78306	67.8008
4.77865	67.7745
4.77425	67.7992
4.76986	67.9127
4.76547	67.9558
4.7611	67.8984
4.75673	67.849
4.75237	67.8916
4.74802	67.9711
4.74367	67.9988
4.73934	68.05
4.73501	68.0553
4.73069	68.0516
4.72638	67.9987
4.72207	67.9525
4.71777	67.9092
4.71348	67.8741
4.7092	67.7648
4.70493	67.7226
4.70066	67.63
4.69641	67.5419
4.69216	67.4654
4.68791	67.3515
4.68368	67.2671
4.67945	67.3134
4.67523	67.3518
4.67102	67.4194
4.66682	67.5164
4.66262	67.6444
4.65843	67.7822
4.65425	67.8999
4.65007	67.989
4.64591	68.0685
4.64175	68.1355
4.6376	68.2137
4.63345	68.2418
4.62932	68.3236
4.62519	68.3965
4.62106	68.4472
4.61695	68.4811
4.61284	68.511
4.60874	68.572
4.60465	68.661
4.60056	68.6238
4.59648	68.6246
4.59241	68.679
4.58835	68.7043
4.58429	68.7426
4.58024	68.7553
4.5762	68.6956
4.57216	68.6577
4.56814	68.6518
4.56411	68.629
4.5601	68.6064
4.55609	68.6229
4.55209	68.6431
4.5481	68.6066
4.54411	68.5736
4.54013	68.4985
4.53616	68.3594
4.5322	68.2515
4.52824	68.0953
4.52429	67.9638
4.52034	67.8224
4.51641	67.6908
4.51247	67.5493
4.50855	67.3852
4.50463	67.2515
4.50072	67.2223
4.49682	67.1682
4.49292	67.0279
4.48903	66.9088
4.48515	66.8457
4.48127	66.8172
4.4774	66.817
4.47354	66.7967
4.46968	66.7763
4.46584	66.7374
4.46199	66.716
4.45815	66.8019
4.45432	66.9415
4.4505	67.0078
4.44668	67.0613
4.44287	67.1031
4.43907	67.1408
4.43527	67.2232
4.43148	67.3222
4.4277	67.3531
4.42392	67.4317
4.42015	67.5127
4.41638	67.5521
4.41262	67.5598
4.40887	67.6582
4.40513	67.7837
4.40139	67.8303
4.39765	67.8711
4.39393	67.8926
4.39021	67.9141
4.38649	68.0919
4.38278	68.229
4.37908	68.2539
4.37539	68.3575
4.3717	68.4786
4.36801	68.5722
4.36434	68.6957
4.36067	68.7334
4.357	68.7431
4.35335	68.7295
4.34969	68.7406
4.34605	68.7789
4.34241	68.7901
4.33877	68.7169
4.33514	68.6669
4.33152	68.6772
4.32791	68.6012
4.3243	68.4599
4.32069	68.2867
4.3171	68.1732
4.31351	68.0717
4.30992	67.8482
4.30634	67.5894
4.30277	67.2414
4.2992	66.8094
4.29564	66.4979
4.29208	66.1326
4.28853	65.6123
4.28499	64.9278
4.28145	63.9944
4.27792	62.6855
4.27439	60.7587
4.27087	58.7677
4.26735	57.9422
4.26384	58.9974
4.26034	61.0851
4.25684	63.116
4.25335	64.6486
4.24986	65.7026
4.24638	66.3821
4.24291	66.7857
4.23944	67.0338
4.23598	67.265
4.23252	67.5082
4.22906	67.8032
4.22562	68.0285
4.22218	68.2167
4.21874	68.4178
4.21531	68.5962
4.21189	68.8102
4.20847	69.0331
4.20506	69.1638
4.20165	69.2569
4.19825	69.3044
4.19485	69.3712
4.19146	69.4102
4.18807	69.4409
4.18469	69.4338
4.18132	69.4891
4.17795	69.5838
4.17458	69.6859
4.17123	69.7324
4.16787	69.8403
4.16453	69.8948
4.16118	69.7982
4.15785	69.7866
4.15451	69.8623
4.15119	69.884
4.14787	69.8754
4.14455	69.8727
4.14124	69.929
4.13794	69.9566
4.13464	69.9686
4.13134	70.0118
4.12805	70.0546
4.12477	70.0414
4.12149	70.0755
4.11822	70.1423
4.11495	70.2202
4.11168	70.2391
4.10843	70.2473
4.10517	70.2442
4.10192	70.2495
4.09868	70.2652
4.09545	70.2761
4.09221	70.3181
4.08899	70.3696
4.08576	70.3425
4.08255	70.3572
4.07933	70.43
4.07613	70.5247
4.07292	70.5079
4.06973	70.4139
4.06654	70.3458
4.06335	70.3422
4.06017	70.3745
4.05699	70.3991
4.05382	70.4447
4.05065	70.4515
4.04749	70.4244
4.04433	70.5263
4.04118	70.6053
4.03803	70.5259
4.03489	70.4165
4.03175	70.4032
4.02862	70.4786
4.02549	70.5149
4.02237	70.4978
4.01925	70.476
4.01614	70.4567
4.01303	70.48
4.00993	70.5302
4.00683	70.5567
4.00373	70.4963
4.00064	70.4713
3.99756	70.5502
3.99448	70.5925
3.9914	70.5309
3.98833	70.5006
3.98527	70.5374
3.98221	70.6081
3.97915	70.6644
3.9761	70.6304
3.97305	70.6003
3.97001	70.6979
3.96697	70.7351
3.96394	70.7342
3.96091	70.7707
3.95789	70.7944
3.95487	70.7699
3.95186	70.7736
3.94885	70.76
3.94584	70.7575
3.94284	70.8156
3.93984	70.903
3.93685	70.972
3.93386	70.9245
3.93088	70.8903
3.9279	70.9481
3.92493	70.9466
3.92196	70.9287
3.919	70.9504
3.91604	70.9128
3.91308	70.8912
3.91013	70.9858
3.90718	70.9987
3.90424	70.9511
3.9013	70.9183
3.89837	70.9312
3.89544	70.9403
3.89252	70.9039
3.8896	70.9005
3.88668	70.903
3.88377	70.92
3.88086	70.9223
3.87796	70.8872
3.87506	70.8391
3.87217	70.7664
3.86928	70.7698
3.86639	70.8152
3.86351	70.8233
3.86064	70.7739
3.85776	70.748
3.8549	70.7026
3.85203	70.7171
3.84917	70.7132
3.84631	70.7238
3.84346	70.7246
3.84062	70.6929
3.83777	70.6754
3.83494	70.7146
3.8321	70.6728
3.82927	70.6718
3.82644	70.693
3.82362	70.6822
3.82081	70.6357
3.81799	70.5968
3.81518	70.5645
3.81238	70.5976
3.80958	70.6239
3.80678	70.6049
3.80399	70.5353
3.8012	70.4838
3.79841	70.463
3.79563	70.439
3.79286	70.4432
3.79008	70.3896
3.78731	70.3547
3.78455	70.3468
3.78179	70.3155
3.77903	70.2256
3.77628	70.1831
3.77353	70.2067
3.77079	70.1732
3.76805	70.107
3.76531	70.0882
3.76258	70.0541
3.75985	69.9503
3.75713	69.8681
3.7544	69.8377
3.75169	69.8296
3.74898	69.7657
3.74627	69.7745
3.74356	69.8145
3.74086	69.7607
3.73816	69.6697
3.73547	69.6149
3.73278	69.5459
3.7301	69.4675
3.72741	69.5111
3.72474	69.4643
3.72206	69.4302
3.71939	69.4284
3.71673	69.4183
3.71406	69.3475
3.71141	69.2581
3.70875	69.3069
3.7061	69.2997
3.70345	69.2184
3.70081	69.129
3.69817	69.0908
3.69553	69.193
3.6929	69.1727
3.69027	69.0497
3.68765	68.9299
3.68503	68.9256
3.68241	68.9289
3.6798	68.8564
3.67719	68.8187
3.67458	68.7855
3.67198	68.6919
3.66938	68.5759
3.66678	68.506
3.66419	68.5207
3.66161	68.5306
3.65902	68.4702
3.65644	68.3894
3.65387	68.324
3.65129	68.2394
3.64872	68.0993
3.64616	68.0988
3.64359	68.1371
3.64103	68.1128
3.63848	68.0644
3.63593	68.024
3.63338	67.9364
3.63084	67.8402
3.6283	67.7769
3.62576	67.704
3.62322	67.6597
3.62069	67.6012
3.61817	67.5017
3.61564	67.446
3.61312	67.3867
3.61061	67.3361
3.6081	67.277
3.60559	67.2467
3.60308	67.1862
3.60058	67.0871
3.59808	66.947
3.59558	66.8028
3.59309	66.7795
3.59061	66.7387
3.58812	66.6976
3.58564	66.6623
3.58316	66.565
3.58069	66.4167
3.57822	66.3128
3.57575	66.2803
3.57328	66.2168
3.57082	66.121
3.56836	66.0403
3.56591	65.9763
3.56346	65.9266
3.56101	65.8956
3.55857	65.772
3.55613	65.614
3.55369	65.5199
3.55126	65.3893
3.54883	65.3004
3.5464	65.2265
3.54397	65.1122
3.54155	65.0038
3.53914	64.8683
3.53672	64.6967
3.53431	64.5238
3.5319	64.3874
3.5295	64.2101
3.5271	63.9945
3.5247	63.7699
3.52231	63.4409
3.51991	63.0226
3.51753	62.5571
3.51514	62.0907
3.51276	61.6211
3.51038	61.0517
3.50801	60.397
3.50563	59.8722
3.50327	59.5724
3.5009	59.5623
3.49854	59.7352
3.49618	59.9944
3.49382	60.2624
3.49147	60.4972
3.48912	60.7046
3.48677	60.7755
3.48443	60.7403
3.48209	60.7119
3.47975	60.6439
3.47742	60.5303
3.47509	60.5832
3.47276	60.6777
3.47044	60.6343
3.46812	60.5643
3.4658	60.5296
3.46348	60.4669
3.46117	60.3346
3.45886	60.1492
3.45656	59.8869
3.45425	59.6582
3.45195	59.4678
3.44966	59.2031
3.44736	58.9404
3.44507	58.6912
3.44279	58.4102
3.4405	58.1139
3.43822	57.8246
3.43594	57.479
3.43367	57.0804
3.43139	56.5486
3.42912	55.8481
3.42686	55.1185
3.42459	54.4569
3.42233	53.8398
3.42007	53.4436
3.41782	53.4324
3.41557	53.6394
3.41332	53.9045
3.41108	54.2961
3.40883	54.7093
3.40659	55.0691
3.40435	55.4901
3.40212	55.8821
3.39989	56.1669
3.39766	56.3513
3.39544	56.5046
3.39322	56.5763
3.391	56.4972
3.38878	56.2978
3.38657	56.0102
3.38436	55.5851
3.38215	55.399
3.37994	55.4288
3.37774	55.4009
3.37554	55.3834
3.37335	55.5146
3.37115	55.7154
3.36896	56.0148
3.36678	56.3948
3.36459	56.8052
3.36241	57.1684
3.36023	57.3326
3.35805	57.2595
3.35588	57.2529
3.35371	57.3354
3.35154	57.3702
3.34938	57.295
3.34721	57.2123
3.34505	57.2205
3.3429	57.1804
3.34074	57.1322
3.33859	57.0769
3.33644	56.9588
3.3343	56.8891
3.33215	56.8244
3.33001	56.6582
3.32788	56.5132
3.32574	56.4282
3.32361	56.3803
3.32148	56.2796
3.31936	56.1814
3.31723	56.0653
3.31511	55.9388
3.31299	55.872
3.31088	55.8114
3.30876	55.6838
3.30665	55.5395
3.30455	55.4165
3.30244	55.2848
3.30034	55.1646
3.29824	55.0371
3.29614	54.8928
3.29405	54.7524
3.29196	54.6852
3.28987	54.6181
3.28778	54.4709
3.2857	54.3272
3.28362	54.2725
3.28154	54.1725
3.27946	53.9462
3.27739	53.8164
3.27532	53.7004
3.27325	53.4961
3.27119	53.3703
3.26913	53.2935
3.26707	53.1369
3.26501	53.0706
3.26295	52.9912
3.2609	52.8642
3.25885	52.6577
3.2568	52.4665
3.25476	52.3562
3.25272	52.2329
3.25068	52.1323
3.24864	52.0506
3.24661	51.9212
3.24458	51.7941
3.24255	51.6684
3.24052	51.4944
3.2385	51.3285
3.23648	51.2045
3.23446	51.084
3.23244	51.0082
3.23043	50.873
3.22841	50.7436
3.2264	50.6582
3.2244	50.5136
3.22239	50.3258
3.22039	50.1762
3.21839	50.0593
3.2164	49.875
3.2144	49.7383
3.21241	49.6751
3.21042	49.5334
3.20844	49.3746
3.20645	49.3064
3.20447	49.1619
3.20249	48.914
3.20051	48.8031
3.19854	48.68
3.19657	48.4969
3.1946	48.4226
3.19263	48.3052
3.19067	48.1153
3.1887	47.9985
3.18674	47.8924
3.18479	47.7285
3.18283	47.6095
3.18088	47.4977
3.17893	47.2925
3.17698	47.1137
3.17504	47.0059
3.17309	46.8502
3.17115	46.6825
3.16921	46.6196
3.16728	46.4723
3.16534	46.2851
3.16341	46.2395
3.16148	46.1522
3.15956	45.9709
3.15763	45.8473
3.15571	45.6813
3.15379	45.5063
3.15187	45.4437
3.14996	45.3856
3.14805	45.2506
3.14614	45.0581
3.14423	44.9191
3.14232	44.8806
3.14042	44.7303
3.13852	44.5584
3.13662	44.5187
3.13472	44.4331
3.13283	44.2853
3.13094	44.1878
3.12905	44.0979
3.12716	43.98
3.12528	43.8492
3.12339	43.7944
3.12151	43.6997
3.11964	43.6211
3.11776	43.4554
3.11589	43.3528
3.11401	43.3016
3.11214	43.1985
3.11028	43.1292
3.10841	43.0344
3.10655	42.9436
3.10469	42.8632
3.10283	42.8168
3.10098	42.7667
3.09912	42.5901
3.09727	42.4809
3.09542	42.4192
3.09358	42.2598
3.09173	42.1686
3.08989	42.3014
3.08805	42.2863
3.08621	42.1398
3.08437	42.0596
3.08254	41.9347
3.08071	41.9397
3.07888	41.8819
3.07705	41.7347
3.07523	41.671
3.0734	41.6943
3.07158	41.6975
3.06977	41.7091
3.06795	41.7761
3.06613	41.7085
3.06432	41.6142
3.06251	41.5713
3.0607	41.5583
3.0589	41.3997
3.0571	41.3618
3.05529	41.4131
3.05349	41.2677
3.0517	41.1891
3.0499	41.3005
3.04811	41.307
3.04632	41.2059
3.04453	41.0939
3.04274	40.9557
3.04096	40.9718
3.03918	41.0271
3.0374	40.9263
3.03562	40.7512
3.03384	40.7169
3.03207	40.8161
3.03029	40.8682
3.02852	40.862
3.02676	40.7608
3.02499	40.6067
3.02323	40.5219
3.02146	40.4705
3.0197	40.3985
3.01795	40.4054
3.01619	40.4784
3.01444	40.3726
3.01269	40.3386
3.01094	40.3001
3.00919	40.2097
3.00744	40.284
3.0057	40.4158
3.00396	40.3757
3.00222	40.2953
3.00048	40.1812
2.99875	40.1549
2.99701	40.082
2.99528	40.0463
2.99355	40.1691
2.99183	40.1771
2.9901	40.036
2.98838	39.9634
2.98666	40.0042
2.98494	40.0075
2.98322	40.0397
2.9815	39.9862
2.97979	39.7467
2.97808	39.5193
2.97637	39.5279
2.97466	39.5933
2.97295	39.5594
2.97125	39.4552
2.96955	39.4147
2.96785	39.4071
2.96615	39.3295
2.96446	39.2167
2.96276	39.1169
2.96107	39.0118
2.95938	39.0189
2.95769	39.131
2.95601	39.2532
2.95432	39.1593
2.95264	39.1214
2.95096	39.3289
2.94928	39.4523
2.9476	39.4916
2.94593	39.5325
2.94425	39.653
2.94258	39.6933
2.94092	39.6033
2.93925	39.6035
2.93758	39.6884
2.93592	39.7359
2.93426	39.7673
2.9326	39.8239
2.93094	39.9126
2.92928	40.018
2.92763	40.0959
2.92598	40.1719
2.92433	40.1801
2.92268	40.2749
2.92103	40.3718
2.91939	40.3872
2.91775	40.4222
2.9161	40.532
2.91447	40.6517
2.91283	40.5932
2.91119	40.5603
2.90956	40.6572
2.90793	40.8117
2.9063	40.8606
2.90467	40.9379
2.90304	41.1337
2.90142	41.2712
2.89979	41.278
2.89817	41.2344
2.89656	41.2642
2.89494	41.3747
2.89332	41.5477
2.89171	41.7077
2.8901	41.8573
2.88849	41.9055
2.88688	41.9019
2.88527	42.0445
2.88367	42.0144
2.88206	41.9396
2.88046	41.9922
2.87886	42.0982
2.87727	42.1272
2.87567	42.1867
2.87408	42.3702
2.87248	42.6937
2.87089	42.8881
2.8693	42.8656
2.86772	42.948
2.86613	43.1945
2.86455	43.349
2.86297	43.3672
2.86139	43.5497
2.85981	43.8698
2.85823	44.0478
2.85666	44.1928
2.85508	44.3434
2.85351	44.3537
2.85194	44.3412
2.85038	44.525
2.84881	44.7197
2.84724	44.8084
2.84568	44.9488
2.84412	45.0677
2.84256	45.2182
2.841	45.4785
2.83945	45.6646
2.83789	45.8391
2.83634	46.0845
2.83479	46.3437
2.83324	46.5329
2.83169	46.5365
2.83015	46.5745
2.82861	46.7379
2.82706	46.9754
2.82552	47.0822
2.82398	47.147
2.82245	47.3312
2.82091	47.5536
2.81938	47.859
2.81784	48.0085
2.81631	48.2293
2.81479	48.508
2.81326	48.5936
2.81173	48.7032
2.81021	48.9085
2.80869	49.1365
2.80716	49.3906
2.80565	49.7776
2.80413	50.391
2.80261	50.6326
2.8011	50.3806
2.79959	50.3587
2.79808	50.5995
2.79657	50.869
2.79506	51.0351
2.79355	51.1654
2.79205	51.3425
2.79055	51.6069
2.78904	52.221
2.78754	52.9376
2.78605	52.9899
2.78455	52.7169
2.78306	53.0707
2.78156	53.4207
2.78007	53.6448
2.77858	53.8548
2.77709	54.1176
2.77561	54.1986
2.77412	54.5241
2.77264	55.2392
2.77116	56.0299
2.76968	56.1969
2.7682	56.2698
2.76672	56.2822
2.76524	56.4697
2.76377	57.0932
2.7623	57.3224
2.76083	57.1398
2.75936	57.3202
2.75789	57.846
2.75642	59.4139
2.75496	60.3999
2.7535	59.6828
2.75203	59.6883
2.75057	59.8657
2.74912	60.076
2.74766	60.3532
2.7462	60.8087
2.74475	61.286
2.7433	62.1149
2.74185	63.5592
2.7404	64.8054
2.73895	64.896
2.7375	64.2521
2.73606	64.8123
2.73462	65.6483
2.73318	65.5346
2.73174	65.8337
2.7303	66.3329
2.72886	66.9109
2.72742	67.8175
2.72599	69.3545
2.72456	70.7816
2.72313	70.6683
2.7217	71.8108
2.72027	73.3296
2.71884	72.5497
2.71742	72.4194
2.71599	72.4919
2.71457	72.9181
2.71315	73.6709
2.71173	75.3907
2.71032	76.2335
2.7089	75.8997
2.70748	75.535
2.70607	75.5443
2.70466	75.9169
2.70325	76.4771
2.70184	77.3504
2.70043	77.605
2.69903	77.5539
2.69762	78.1149
2.69622	79.1645
2.69482	80.3075
2.69342	80.5899
2.69202	79.8067
2.69062	79.7364
2.68923	80.1817
2.68783	80.667
2.68644	81.1088
2.68505	81.2591
2.68366	81.5227
2.68227	81.4108
2.68089	81.5591
2.6795	82.6995
2.67812	83.3058
2.67673	83.7838
2.67535	83.1522
2.67397	82.426
2.6726	82.8398
2.67122	85.0963
2.66984	85.3589
2.66847	84.095
2.6671	85.3086
2.66572	85.6269
2.66435	84.624
2.66299	83.3317
2.66162	83.4177
2.66025	83.6416
2.65889	83.4458
2.65753	82.926
2.65616	83.3865
2.65481	83.4936
2.65345	83.8368
2.65209	84.0161
2.65073	83.4266
2.64938	83.2646
2.64803	83.4651
2.64667	83.8418
2.64532	83.9248
2.64397	83.6551
2.64263	83.8886
2.64128	83.8493
2.63994	83.6697
2.63859	83.4964
2.63725	83.5564
2.63591	83.7875
2.63457	84.3669
2.63323	84.4197
2.6319	84.9595
2.63056	86.1217
2.62923	85.1084
2.62789	84.7864
2.62656	85.4881
2.62523	84.5607
2.6239	84.0194
2.62258	84.2597
2.62125	85.5381
2.61993	85.7588
2.6186	85.1986
2.61728	86.1623
2.61596	85.6622
2.61464	84.5785
2.61332	84.6685
2.61201	84.5554
2.61069	84.7868
2.60938	85.1409
2.60807	85.32
2.60675	86.0284
2.60544	86.7283
2.60414	86.0716
2.60283	85.5238
2.60152	85.253
2.60022	84.826
2.59891	84.502
2.59761	84.9582
2.59631	86.873
2.59501	89.0805
2.59371	87.3405
2.59242	85.2035
2.59112	84.8252
2.58983	85.1468
2.58853	85.553
2.58724	85.8436
2.58595	85.3025
2.58466	85.9693
2.58338	86.1802
2.58209	85.3649
2.5808	85.3122
2.57952	84.8255
2.57824	85.0539
2.57695	85.553
2.57567	85.1758
2.5744	85.4523
2.57312	85.8366
2.57184	85.0396
2.57057	85.2796
2.56929	85.4766
2.56802	84.909
2.56675	84.6736
2.56548	85.1904
2.56421	85.8253
2.56294	86.0323
2.56168	86.1917
2.56041	85.6341
2.55915	85.0022
2.55789	84.796
2.55662	84.7827
2.55536	84.7167
2.5541	84.9093
2.55285	85.3076
2.55159	85.2058
2.55034	84.9839
2.54908	84.8839
2.54783	85.0307
2.54658	84.976
2.54533	84.9588
2.54408	85.1202
2.54283	85.187
2.54159	84.903
2.54034	84.8226
2.5391	84.856
2.53785	84.8279
2.53661	84.9805
2.53537	84.9562
2.53413	84.8566
2.53289	85.0886
2.53166	85.1823
2.53042	85.0658
2.52919	84.9383
2.52795	84.893
2.52672	84.8441
2.52549	84.859
2.52426	84.9204
2.52303	84.8651
2.52181	84.8801
2.52058	84.8389
2.51936	84.7576
2.51813	84.8509
2.51691	84.9705
2.51569	85.0004
2.51447	84.9443
2.51325	85.0197
2.51203	85.0455
2.51082	84.8868
2.5096	84.8967
2.50839	85.0165
2.50717	85.0013
2.50596	85.0641
2.50475	85.122
2.50354	85.1009
2.50233	85.0347
2.50113	85.0299
2.49992	85.137
2.49872	85.1499
2.49751	85.1168
2.49631	85.1056
2.49511	85.2589
2.49391	85.3362
2.49271	85.2525
2.49151	85.2025
2.49031	85.2119
2.48912	85.2482
2.48792	85.2815
2.48673	85.2969
2.48554	85.3579
2.48435	85.3637
2.48316	85.306
2.48197	85.2906
2.48078	85.316
2.4796	85.2845
2.47841	85.3088
2.47723	85.3975
2.47604	85.4195
2.47486	85.4009
2.47368	85.3612
2.4725	85.4379
2.47132	85.472
2.47014	85.4693
2.46897	85.4721
2.46779	85.4833
2.46662	85.442
2.46545	85.4734
2.46427	85.5514
2.4631	85.6022
2.46193	85.584
2.46077	85.5337
2.4596	85.5439
2.45843	85.6483
2.45727	85.7345
2.4561	85.7248
2.45494	85.8449
2.45378	85.9449
2.45262	85.9174
2.45146	85.8812
2.4503	85.8957
2.44914	85.863
2.44799	85.8517
2.44683	85.888
2.44568	85.8696
2.44452	85.8894
2.44337	85.9149
2.44222	85.9411
2.44107	86.0859
2.43992	86.1171
2.43877	86.0009
2.43763	86.0208
2.43648	86.1581
2.43534	86.0911
2.43419	86.0198
2.43305	86.0483
2.43191	86.0907
2.43077	86.1327
2.42963	86.2141
2.42849	86.2418
2.42736	86.275
2.42622	86.298
2.42509	86.2479
2.42395	86.2174
2.42282	86.2868
2.42169	86.3027
2.42056	86.2664
2.41943	86.173
2.4183	86.1696
2.41717	86.1771
2.41605	86.2427
2.41492	86.4239
2.4138	86.4747
2.41267	86.4266
2.41155	86.4801
2.41043	86.4441
2.40931	86.3605
2.40819	86.4067
2.40707	86.5228
2.40595	86.5777
2.40484	86.5294
2.40372	86.3987
2.40261	86.4672
2.4015	86.6537
2.40039	86.5573
2.39928	86.529
2.39817	86.5634
2.39706	86.5739
2.39595	86.7186
2.39484	86.6572
2.39374	86.5492
2.39263	86.5092
2.39153	86.5645
2.39043	86.5334
2.38932	86.5527
2.38822	86.691
2.38712	86.7531
2.38603	86.7277
2.38493	86.689
2.38383	86.7311
2.38274	86.7158
2.38164	86.6879
2.38055	86.7168
2.37946	86.759
2.37836	86.7835
2.37727	86.6865
2.37618	86.6946
2.3751	86.7184
2.37401	86.7228
2.37292	86.7934
2.37184	86.8106
2.37075	86.7563
2.36967	86.8723
2.36859	87.002
2.3675	86.9775
2.36642	86.8546
2.36534	86.7723
2.36427	86.742
2.36319	86.7749
2.36211	86.8424
2.36104	86.9379
2.35996	86.9669
2.35889	86.9293
2.35781	86.9052
2.35674	86.9104
2.35567	86.8565
2.3546	86.8945
2.35353	86.9522
2.35247	86.8725
2.3514	86.8262
2.35033	86.8448
2.34927	86.8532
2.3482	86.8361
2.34714	86.7815
2.34608	86.8233
2.34502	86.9406
2.34396	86.956
2.3429	86.8222
2.34184	86.7655
2.34078	86.7986
2.33973	86.9779
2.33867	87.0143
2.33762	86.9791
2.33656	86.9723
2.33551	87.057
2.33446	87.1454
2.33341	87.0042
2.33236	86.8895
2.33131	86.9038
2.33026	86.8855
2.32922	86.955
2.32817	87.1046
2.32712	87.1927
2.32608	87.0839
2.32504	86.9704
2.324	86.9753
2.32295	87.0255
2.32191	86.9672
2.32087	86.9447
2.31984	86.9891
2.3188	87.0828
2.31776	87.0481
2.31673	86.9923
2.31569	87.0627
2.31466	87.0134
2.31362	86.8867
2.31259	86.8461
2.31156	86.8799
2.31053	86.9869
2.3095	86.9167
2.30847	86.8011
2.30745	86.8697
2.30642	86.8551
2.3054	86.8024
2.30437	86.7602
2.30335	86.7131
2.30232	86.7949
2.3013	87.0027
2.30028	87.0158
2.29926	86.9992
2.29824	87.0452
2.29722	86.9725
2.29621	87.0091
2.29519	87.1087
2.29417	87.1155
2.29316	87.0134
2.29215	87.0251
2.29113	87.0578
2.29012	87.0717
2.28911	87.1255
2.2881	87.086
2.28709	86.9773
2.28608	86.968
2.28507	86.8747
2.28407	86.8581
2.28306	87.0443
2.28206	87.1647
2.28105	87.0999
2.28005	87.1128
2.27905	87.1022
2.27805	87.0751
2.27705	87.1026
2.27605	87.1408
2.27505	87.0815
2.27405	87.1021
2.27305	87.1718
2.27206	87.114
2.27106	86.9872
2.27007	86.9673
2.26907	87.0052
2.26808	87.051
2.26709	87.1555
2.2661	87.1863
2.26511	87.1431
2.26412	87.1453
2.26313	87.1711
2.26214	87.0836
2.26116	87.022
2.26017	87.1443
2.25919	87.345
2.2582	87.3791
2.25722	87.2005
2.25624	87.1217
2.25526	87.1998
2.25428	87.1377
2.2533	87.1215
2.25232	87.1393
2.25134	87.116
2.25036	87.1726
2.24939	87.2824
2.24841	87.2817
2.24744	87.2689
2.24646	87.2381
2.24549	87.2689
2.24452	87.2967
2.24355	87.2913
2.24257	87.396
2.24161	87.358
2.24064	87.3901
2.23967	87.3378
2.2387	87.2545
2.23774	87.3559
2.23677	87.3565
2.23581	87.2817
2.23484	87.2681
2.23388	87.2333
2.23292	87.1879
2.23196	87.2481
2.231	87.4556
2.23004	87.4109
2.22908	87.3728
2.22812	87.319
2.22716	87.2077
2.22621	87.1604
2.22525	87.2448
2.2243	87.3143
2.22334	87.3333
2.22239	87.2399
2.22144	87.2677
2.22049	87.3786
2.21953	87.3502
2.21859	87.2697
2.21764	87.2549
2.21669	87.3767
2.21574	87.491
2.21479	87.4063
2.21385	87.3734
2.2129	87.367
2.21196	87.3211
2.21102	87.3819
2.21007	87.4221
2.20913	87.3775
2.20819	87.3265
2.20725	87.2457
2.20631	87.3179
2.20537	87.4429
2.20444	87.4848
2.2035	87.3429
2.20256	87.2651
2.20163	87.3177
2.20069	87.4237
2.19976	87.4305
2.19883	87.3248
2.19789	87.4641
2.19696	87.5133
2.19603	87.4147
2.1951	87.4048
2.19417	87.3217
2.19325	87.2589
2.19232	87.2355
2.19139	87.2633
2.19047	87.2686
2.18954	87.294
2.18862	87.3456
2.18769	87.4296
2.18677	87.4892
2.18585	87.4818
2.18493	87.2883
2.18401	87.2076
2.18309	87.2988
2.18217	87.2781
2.18125	87.272
2.18033	87.4332
2.17942	87.5181
2.1785	87.4078
2.17759	87.3884
2.17667	87.5091
2.17576	87.5547
2.17485	87.5544
2.17393	87.5038
2.17302	87.4427
2.17211	87.4916
2.1712	87.5018
2.17029	87.5437
2.16939	87.5616
2.16848	87.4363
2.16757	87.4136
2.16667	87.4037
2.16576	87.5486
2.16486	87.7884
2.16395	87.7111
2.16305	87.4275
2.16215	87.354
2.16125	87.3903
2.16035	87.4175
2.15945	87.4735
2.15855	87.5744
2.15765	87.5062
2.15675	87.3107
2.15586	87.221
2.15496	87.3256
2.15406	87.5175
2.15317	87.6237
2.15228	87.5934
2.15138	87.4259
2.15049	87.3354
2.1496	87.3984
2.14871	87.4397
2.14782	87.4602
2.14693	87.4621
2.14604	87.4684
2.14515	87.5786
2.14427	87.6472
2.14338	87.5737
2.14249	87.4989
2.14161	87.5477
2.14072	87.5883
2.13984	87.5293
2.13896	87.3938
2.13808	87.3652
2.13719	87.5354
2.13631	87.5626
2.13543	87.5371
2.13455	87.6065
2.13368	87.5692
2.1328	87.5578
2.13192	87.5627
2.13105	87.5868
2.13017	87.5898
2.1293	87.4338
2.12842	87.3698
2.12755	87.4224
2.12668	87.4295
2.1258	87.5384
2.12493	87.5994
2.12406	87.5625
2.12319	87.4935
2.12232	87.4467
2.12145	87.4132
2.12059	87.428
2.11972	87.378
2.11885	87.4193
2.11799	87.4928
2.11712	87.5257
2.11626	87.5783
2.1154	87.5824
2.11453	87.5742
2.11367	87.5108
2.11281	87.5491
2.11195	87.4352
2.11109	87.2791
2.11023	87.214
2.10937	87.3554
2.10851	87.4822
2.10766	87.3545
2.1068	87.3309
2.10594	87.2593
2.10509	87.0471
2.10423	87.0964
2.10338	87.3678
2.10253	87.551
2.10168	87.4724
2.10082	87.3043
2.09997	87.1336
2.09912	87.0453
2.09827	87.2365
2.09742	87.4141
2.09658	87.1811
2.09573	87.1546
2.09488	87.3613
2.09404	87.4164
2.09319	87.3315
2.09235	87.3352
2.0915	87.4944
2.09066	87.5023
2.08982	87.3369
2.08897	87.1671
2.08813	87.1669
2.08729	87.2295
2.08645	87.2686
2.08561	87.4106
2.08477	87.3085
2.08394	87.0211
2.0831	87.1082
2.08226	87.2282
2.08143	87.2705
2.08059	87.4171
2.07976	87.2886
2.07892	87.1111
2.07809	87.2339
2.07726	87.5243
2.07643	87.6392
2.07559	87.2632
2.07476	87.2248
2.07393	87.314
2.0731	87.2304
2.07228	87.6023
2.07145	87.7016
2.07062	87.6803
2.06979	87.459
2.06897	87.2194
2.06814	86.9672
2.06732	87.2425
2.06649	87.4142
2.06567	87.3215
2.06485	87.2483
2.06403	87.0809
2.0632	86.909
2.06238	87.1633
2.06156	87.3324
2.06074	87.2663
2.05993	87.1254
2.05911	86.9527
2.05829	86.8707
2.05747	87.0538
2.05666	87.1656
2.05584	87.1533
2.05503	87.1649
2.05421	87.1082
2.0534	86.9188
2.05259	87.0319
2.05177	87.2859
2.05096	87.1833
2.05015	86.958
2.04934	86.9426
2.04853	86.9812
2.04772	86.9999
2.04691	86.9416
2.04611	86.953
2.0453	87.1052
2.04449	86.9729
2.04369	86.8587
2.04288	86.9493
2.04208	87.014
2.04127	87.004
2.04047	87.1094
2.03967	87.0648
2.03886	86.92
2.03806	87.0671
2.03726	87.1643
2.03646	87.0305
2.03566	86.8991
2.03486	86.8175
2.03407	86.8726
2.03327	86.9336
2.03247	86.8322
2.03167	86.8377
2.03088	86.8149
2.03008	86.6867
2.02929	86.6925
2.0285	86.7944
2.0277	86.891
2.02691	86.8202
2.02612	86.697
2.02533	86.5703
2.02453	86.6527
2.02374	86.8681
2.02295	86.8649
2.02217	86.5438
2.02138	86.637
2.02059	86.7986
2.0198	86.7919
2.01902	86.7938
2.01823	86.7912
2.01744	86.8344
2.01666	86.8334
2.01588	86.7193
2.01509	86.7306
2.01431	86.5682
2.01353	86.5077
2.01275	86.6587
2.01196	86.7113
2.01118	86.7362
2.0104	86.8604
2.00963	86.8761
2.00885	86.7438
2.00807	86.6185
2.00729	86.5386
2.00651	86.5127
2.00574	86.645
2.00496	86.6488
2.00419	86.5177
2.00341	86.4737
2.00264	86.518
2.00187	86.59
2.00109	86.6229
2.00032	86.4293
