Name: Biotite K(Mg,Fe^2+)_3(Al,Fe^3+)Si_3O_10(OH,F)_2
Type: Mineral
Class: Silicates
Subclass: Phyllosilicates
Particle Size: 125-500um
Sample No.: PS-23A
Owner: JPL
Wavelength range: IR
Origin: 
Collected by JPL
Description: 





Measurement: Hemispherical reflectance
First Column: X
Second Column: Y
X Units:  Wavelength (micrometers)
Y Units:  Reflectance (percent)
First X Value: 15.3853
Last X Value: 2.00032
Number of X Values: 2256
Additional information: ps23aa.txt
 
15.3853	5.56379
15.3397	5.62411
15.2945	5.53717
15.2495	5.50854
15.2048	5.6614
15.1603	6.02393
15.1161	6.16513
15.0722	6.16174
15.0285	6.41664
14.9851	6.57006
14.9419	6.69183
14.8989	7.01799
14.8563	7.15482
14.8138	6.93988
14.7716	7.13097
14.7296	7.53314
14.6879	7.74069
14.6464	7.65482
14.6052	7.71989
14.5641	8.07745
14.5233	8.17828
14.4828	8.12914
14.4424	8.10903
14.4023	8.14967
14.3624	8.43978
14.3227	8.48284
14.2833	8.45773
14.244	8.48029
14.205	8.38353
14.1662	8.19537
14.1276	8.17157
14.0892	8.23695
14.051	8.11854
14.0131	7.88966
13.9753	7.7878
13.9377	7.798
13.9004	7.68258
13.8632	7.72618
13.8262	7.68276
13.7895	7.55407
13.7529	7.5228
13.7165	7.55024
13.6803	7.49914
13.6443	7.48053
13.6085	7.62529
13.5729	7.74039
13.5374	7.95695
13.5022	8.24758
13.4671	8.52512
13.4322	8.92072
13.3975	9.2893
13.363	9.6197
13.3286	9.89617
13.2944	10.1555
13.2604	10.5032
13.2266	10.9601
13.193	11.2072
13.1595	11.3413
13.1262	11.8018
13.093	12.1988
13.06	12.3979
13.0272	12.7513
12.9946	13.2169
12.9621	13.6217
12.9298	14.0191
12.8976	14.5511
12.8656	15.008
12.8337	15.3069
12.8021	15.6259
12.7705	16.0714
12.7391	16.6538
12.7079	17.2106
12.6769	17.6843
12.6459	18.1253
12.6152	18.5734
12.5845	19.119
12.5541	19.8598
12.5238	20.5993
12.4936	21.2599
12.4635	22.0564
12.4337	22.8542
12.4039	23.7128
12.3743	24.4296
12.3448	25.1756
12.3155	25.9773
12.2863	26.7492
12.2573	27.5469
12.2284	28.2737
12.1996	28.9125
12.171	29.318
12.1425	29.7046
12.1141	30.2113
12.0859	30.6333
12.0578	30.8235
12.0298	30.879
12.0019	30.8364
11.9742	30.8056
11.9466	30.749
11.9192	30.6306
11.8918	30.4571
11.8646	30.2997
11.8375	30.2054
11.8106	30.0501
11.7837	29.8835
11.757	29.7301
11.7304	29.4768
11.7039	29.2908
11.6776	29.2052
11.6513	29.1243
11.6252	29.0007
11.5992	28.8338
11.5733	28.7175
11.5475	28.6397
11.5219	28.4862
11.4963	28.4363
11.4709	28.492
11.4455	28.4369
11.4203	28.3572
11.3952	28.3348
11.3702	28.2476
11.3454	28.1589
11.3206	28.0255
11.2959	27.8426
11.2714	27.7395
11.2469	27.6923
11.2226	27.5265
11.1983	27.412
11.1742	27.2851
11.1502	27.1529
11.1263	27.1519
11.1024	27.1216
11.0787	26.97
11.0551	26.8955
11.0316	26.898
11.0081	26.9033
10.9848	26.8643
10.9616	26.7205
10.9385	26.7779
10.9154	26.8331
10.8925	26.8604
10.8697	26.8159
10.8469	26.8255
10.8243	26.83
10.8017	26.8701
10.7793	26.8683
10.7569	26.8394
10.7346	26.7233
10.7125	26.7498
10.6904	26.8062
10.6684	26.6832
10.6465	26.5877
10.6247	26.5622
10.6029	26.5334
10.5813	26.4788
10.5597	26.2627
10.5383	26.1539
10.5169	26.1725
10.4956	26.1455
10.4744	26.1311
10.4533	26.2118
10.4323	26.2507
10.4113	26.3479
10.3904	26.5951
10.3697	26.8344
10.349	27.1338
10.3284	27.4185
10.3078	27.6806
10.2874	27.9214
10.267	28.0583
10.2467	28.3608
10.2265	28.729
10.2064	28.9784
10.1863	29.386
10.1663	29.9768
10.1464	30.6406
10.1266	31.291
10.1069	32.2242
10.0872	33.3879
10.0676	34.553
10.0481	35.7749
10.0287	37.072
10.0093	38.5235
9.99005	40.0636
9.97084	41.7131
9.95169	43.4145
9.93263	44.9585
9.91364	46.5081
9.89472	47.8164
9.87587	48.7261
9.8571	49.2064
9.83839	49.3367
9.81976	49.2695
9.80119	48.8946
9.78271	48.2009
9.76428	47.4229
9.74592	46.4844
9.72764	45.2512
9.70943	44.0644
9.69128	42.7994
9.6732	41.4791
9.65518	40.1174
9.63724	38.8394
9.61935	37.6052
9.60155	36.3597
9.5838	35.3025
9.56611	34.2899
9.5485	33.4137
9.53094	32.6152
9.51345	31.8338
9.49604	31.0482
9.47867	30.3153
9.46137	29.6933
9.44414	29.1392
9.42697	28.6413
9.40986	28.1437
9.39281	27.8138
9.37583	27.4329
9.35891	26.9358
9.34204	26.487
9.32524	26.0905
9.3085	25.688
9.29182	25.2475
9.27519	24.7417
9.25863	24.2496
9.24213	23.7837
9.22568	23.0782
9.2093	22.1726
9.19297	21.2637
9.17669	20.58
9.16048	19.8559
9.14433	18.9191
9.12823	17.8935
9.11218	17.0167
9.0962	16.213
9.08027	15.4143
9.06439	14.6466
9.04858	13.906
9.03281	13.3412
9.0171	12.7668
9.00145	12.0942
8.98585	11.3694
8.9703	10.6006
8.9548	9.9077
8.93937	9.40987
8.92398	8.70122
8.90865	7.971
8.89337	7.43043
8.87814	6.79029
8.86296	6.01015
8.84784	5.24135
8.83277	4.53879
8.81774	3.89955
8.80277	3.39965
8.78786	3.01878
8.77298	2.54959
8.75816	2.03487
8.7434	1.64641
8.72868	1.38981
8.714	1.12339
8.69938	0.96383
8.68481	0.932188
8.67029	0.893177
8.65581	0.72339
8.64139	0.690704
8.62701	0.662766
8.61268	0.679297
8.5984	0.94894
8.58416	1.31524
8.56997	1.55079
8.55583	1.9129
8.54174	2.29406
8.52769	2.54087
8.51368	2.79019
8.49973	3.18236
8.48582	3.57889
8.47195	3.98739
8.45813	4.30948
8.44436	4.65461
8.43062	5.15148
8.41693	5.70916
8.4033	6.21138
8.3897	6.6349
8.37614	7.14259
8.36264	7.61892
8.34917	8.07711
8.33574	8.54956
8.32236	9.01554
8.30903	9.65479
8.29573	10.1448
8.28248	10.6469
8.26927	11.0987
8.2561	11.6304
8.24298	12.1417
8.2299	12.6353
8.21685	13.1225
8.20385	13.4756
8.19089	13.9832
8.17797	14.4418
8.16509	14.7719
8.15225	15.2778
8.13946	15.7964
8.1267	16.1019
8.11398	16.3886
8.10131	16.7882
8.08867	17.1817
8.07606	17.5871
8.0635	17.9725
8.05099	18.3513
8.0385	18.7864
8.02606	19.1034
8.01366	19.3429
8.00129	19.6893
7.98896	20.0126
7.97667	20.2355
7.96442	20.4778
7.9522	20.9634
7.94002	21.4189
7.92788	21.7361
7.91578	21.9823
7.90371	22.25
7.89168	22.5258
7.87969	22.7571
7.86773	23.0264
7.85581	23.2925
7.84392	23.5765
7.83207	23.8206
7.82026	24.029
7.80849	24.2113
7.79674	24.5042
7.78503	24.8247
7.77337	25.0619
7.76173	25.2356
7.75012	25.3902
7.73856	25.5658
7.72703	25.8386
7.71553	26.0468
7.70406	26.2376
7.69263	26.4904
7.68123	26.7808
7.66987	26.975
7.65855	27.1333
7.64725	27.3071
7.63598	27.5098
7.62475	27.7932
7.61356	28.0431
7.60239	28.2501
7.59126	28.4238
7.58017	28.6719
7.5691	28.9168
7.55806	29.0825
7.54707	29.2657
7.5361	29.4654
7.52516	29.7469
7.51425	29.958
7.50338	30.1446
7.49253	30.3717
7.48172	30.5931
7.47094	30.7933
7.46019	30.978
7.44947	31.1836
7.43879	31.4175
7.42813	31.6452
7.4175	31.8136
7.4069	31.9744
7.39634	32.191
7.3858	32.4719
7.37529	32.7303
7.36482	32.927
7.35437	33.1538
7.34396	33.397
7.33357	33.5814
7.32321	33.7875
7.31288	34.0552
7.30258	34.2733
7.29231	34.4714
7.28207	34.6908
7.27185	34.8853
7.26167	35.0729
7.25152	35.3705
7.24139	35.623
7.23129	35.8718
7.22122	36.0682
7.21117	36.4107
7.20116	36.653
7.19117	36.7529
7.18121	37.0493
7.17128	37.4707
7.16137	37.6299
7.1515	37.8246
7.14164	38.0343
7.13182	38.2314
7.12203	38.4497
7.11225	38.6245
7.10251	38.8245
7.0928	39.0094
7.08311	39.192
7.07344	39.3709
7.06381	39.59
7.0542	40.0082
7.04461	40.3636
7.03506	40.3408
7.02552	40.4591
7.01601	40.6152
7.00653	40.7555
6.99708	41.0613
6.98765	41.1954
6.97824	41.2776
6.96886	41.6538
6.95951	42.1197
6.95018	42.0305
6.94087	41.9647
6.9316	42.1168
6.92234	42.2994
6.91311	42.5482
6.90391	42.7418
6.89473	42.73
6.88557	42.8289
6.87644	43.1716
6.86733	43.9123
6.85824	43.9712
6.84918	43.4912
6.84015	43.3737
6.83114	43.6427
6.82215	43.8441
6.81319	43.8079
6.80424	43.8583
6.79532	44.2666
6.78643	44.5199
6.77756	44.3772
6.76871	44.2945
6.75989	44.2669
6.75109	44.3732
6.74231	44.4792
6.73355	44.6394
6.72482	44.8617
6.71611	45.0465
6.70742	45.0317
6.69875	44.8816
6.69011	45.0608
6.68149	45.3285
6.67289	45.2247
6.66431	45.1056
6.65576	45.105
6.64722	45.5813
6.63871	46.2691
6.63022	46.0069
6.62175	45.4923
6.61331	45.4505
6.60488	45.3884
6.59648	45.5009
6.5881	45.5735
6.57974	45.7971
6.5714	46.0355
6.56308	45.6757
6.55478	45.4882
6.54651	45.345
6.53825	45.2213
6.53001	45.2562
6.5218	45.4256
6.51361	45.1923
6.50544	45.2758
6.49729	45.9977
6.48915	46.0055
6.48104	45.4013
6.47295	45.0285
6.46488	44.7125
6.45683	44.6185
6.4488	44.6567
6.44079	44.6417
6.4328	44.6918
6.42482	44.8118
6.41687	45.4405
6.40894	45.1342
6.40103	44.1129
6.39314	43.7105
6.38526	43.5795
6.37741	43.6564
6.36957	43.6334
6.36176	43.2186
6.35396	43.1782
6.34618	43.4963
6.33843	43.1061
6.33069	42.5943
6.32297	42.4269
6.31527	42.2556
6.30758	42.1511
6.29992	42.0265
6.29227	41.8815
6.28465	41.7515
6.27704	41.6265
6.26945	41.5457
6.26188	41.3133
6.25432	41.1155
6.24679	40.9903
6.23927	40.8372
6.23177	40.6433
6.22429	40.442
6.21683	40.3138
6.20938	40.1595
6.20195	39.9826
6.19454	40.0327
6.18715	40.3205
6.17978	40.0319
6.17242	39.5585
6.16508	39.5196
6.15776	39.5117
6.15045	39.4458
6.14317	39.4669
6.1359	39.4011
6.12864	39.3383
6.12141	39.6573
6.11419	40.1233
6.10699	39.8806
6.0998	39.6498
6.09263	39.7168
6.08549	39.911
6.07835	40.3748
6.07123	40.6096
6.06413	40.3673
6.05705	40.7268
6.04998	41.7178
6.04293	41.4028
6.0359	40.7531
6.02888	40.6121
6.02187	40.7398
6.01489	41.0802
6.00792	41.0579
6.00096	40.9775
5.99403	41.2794
5.98711	41.4662
5.9802	41.3603
5.97331	41.4769
5.96644	41.5915
5.95958	41.4271
5.95274	41.4604
5.94591	41.6103
5.9391	42.2442
5.9323	42.1021
5.92552	41.6008
5.91876	41.5088
5.91201	41.4253
5.90528	41.553
5.89856	42.0734
5.89186	41.9775
5.88517	42.1309
5.8785	42.2466
5.87184	41.6253
5.8652	41.5441
5.85857	41.5259
5.85196	41.4561
5.84536	41.3874
5.83878	41.4976
5.83221	41.7837
5.82566	42.2201
5.81912	42.2409
5.81259	41.8145
5.80608	41.7536
5.79959	41.8129
5.79311	41.8678
5.78665	42.0252
5.78019	42.0941
5.77376	42.3953
5.76734	42.9759
5.76093	42.7341
5.75453	42.5027
5.74815	42.6906
5.74179	42.6482
5.73543	42.6384
5.7291	42.6806
5.72277	42.8382
5.71646	43.0679
5.71017	43.2674
5.70389	43.1447
5.69762	43.1937
5.69136	43.3272
5.68513	43.3465
5.6789	43.5315
5.67268	43.6112
5.66648	43.5901
5.6603	43.8332
5.65413	44.0937
5.64797	44.3435
5.64182	44.6653
5.63569	44.5262
5.62957	44.3622
5.62347	44.4404
5.61737	44.5477
5.61129	44.6823
5.60522	44.8339
5.59917	44.9445
5.59313	45.0281
5.5871	45.2742
5.58109	45.6225
5.57509	45.5998
5.5691	45.447
5.56312	45.5935
5.55716	45.7333
5.55121	45.8063
5.54528	45.8103
5.53935	45.9343
5.53344	46.0778
5.52754	46.2267
5.52166	46.3663
5.51578	46.4591
5.50992	46.518
5.50407	46.7084
5.49823	46.9054
5.49241	47.0465
5.4866	47.1844
5.4808	47.453
5.47501	47.5783
5.46923	47.7531
5.46347	48.0253
5.45772	48.1015
5.45198	48.2444
5.44625	48.5208
5.44054	48.7205
5.43484	48.9017
5.42914	49.2082
5.42347	49.698
5.4178	49.8556
5.41214	49.8969
5.4065	50.0513
5.40087	50.2112
5.39525	50.4798
5.38964	50.7687
5.38404	51.0533
5.37846	51.2736
5.37288	51.4675
5.36732	51.6693
5.36177	51.8822
5.35623	52.1731
5.35071	52.4535
5.34519	52.5624
5.33968	52.64
5.33419	52.7662
5.32871	52.9497
5.32324	53.1765
5.31778	53.3686
5.31233	53.5301
5.30689	53.6485
5.30147	53.7693
5.29605	53.9843
5.29065	54.1199
5.28525	54.1017
5.27987	54.173
5.2745	54.2458
5.26914	54.3026
5.26379	54.3732
5.25845	54.4581
5.25312	54.55
5.24781	54.6074
5.2425	54.6198
5.23721	54.7433
5.23192	54.8122
5.22665	54.7905
5.22138	54.8391
5.21613	54.9394
5.21089	54.9352
5.20566	54.8864
5.20044	54.8766
5.19522	54.8354
5.19002	54.8461
5.18483	54.8419
5.17965	54.8285
5.17448	54.8157
5.16933	54.7729
5.16418	54.7143
5.15904	54.6883
5.15391	54.7051
5.14879	54.7051
5.14368	54.6849
5.13859	54.6189
5.1335	54.5484
5.12842	54.4883
5.12335	54.4398
5.1183	54.432
5.11325	54.4139
5.10821	54.3241
5.10318	54.2839
5.09817	54.2516
5.09316	54.1269
5.08816	54.0268
5.08317	54.0181
5.07819	53.9796
5.07322	53.9516
5.06826	53.9393
5.06331	53.9545
5.05837	53.9693
5.05344	53.913
5.04852	53.8891
5.04361	53.942
5.03871	53.9826
5.03382	54.0173
5.02894	53.9859
5.02406	54.0109
5.0192	54.1161
5.01435	54.1208
5.0095	54.0516
5.00467	54.0621
4.99984	54.0974
4.99502	54.1295
4.99021	54.1549
4.98542	54.1455
4.98063	54.1508
4.97585	54.2519
4.97108	54.2561
4.96632	54.1753
4.96156	54.1758
4.95682	54.2052
4.95209	54.1891
4.94736	54.1137
4.94264	54.0595
4.93794	54.0739
4.93324	54.07
4.92855	54.0811
4.92387	54.0855
4.9192	54.0013
4.91453	53.9933
4.90988	54.0217
4.90524	53.9802
4.9006	54.0276
4.89597	54.1201
4.89135	54.1148
4.88674	54.094
4.88214	54.1412
4.87755	54.1939
4.87296	54.2318
4.86839	54.3053
4.86382	54.3851
4.85926	54.3901
4.85471	54.4332
4.85017	54.5054
4.84564	54.5355
4.84111	54.6307
4.8366	54.742
4.83209	54.7916
4.82759	54.9132
4.8231	54.9981
4.81862	55.1091
4.81415	55.1879
4.80968	55.3266
4.80522	55.4551
4.80077	55.5511
4.79633	55.6547
4.7919	55.7664
4.78747	55.8427
4.78306	55.9736
4.77865	56.0877
4.77425	56.2056
4.76986	56.3689
4.76547	56.5447
4.7611	56.657
4.75673	56.8021
4.75237	56.9682
4.74802	57.004
4.74367	57.0472
4.73934	57.1651
4.73501	57.2975
4.73069	57.43
4.72638	57.5468
4.72207	57.6387
4.71777	57.7393
4.71348	57.886
4.7092	58.015
4.70493	58.0686
4.70066	58.1183
4.69641	58.2885
4.69216	58.4355
4.68791	58.4515
4.68368	58.4908
4.67945	58.582
4.67523	58.6808
4.67102	58.7748
4.66682	58.9079
4.66262	59.0287
4.65843	59.0825
4.65425	59.1801
4.65007	59.3549
4.64591	59.4383
4.64175	59.5304
4.6376	59.6047
4.63345	59.634
4.62932	59.7533
4.62519	59.8958
4.62106	60.0111
4.61695	60.1103
4.61284	60.2289
4.60874	60.3258
4.60465	60.4593
4.60056	60.5845
4.59648	60.6096
4.59241	60.6662
4.58835	60.7536
4.58429	60.8426
4.58024	60.9016
4.5762	60.9668
4.57216	61.0609
4.56814	61.1294
4.56411	61.2018
4.5601	61.3085
4.55609	61.4024
4.55209	61.4425
4.5481	61.5244
4.54411	61.6441
4.54013	61.6452
4.53616	61.6377
4.5322	61.697
4.52824	61.766
4.52429	61.8542
4.52034	61.8689
4.51641	61.8939
4.51247	61.9585
4.50855	61.961
4.50463	61.9834
4.50072	62.0763
4.49682	62.0837
4.49292	62.1195
4.48903	62.0896
4.48515	62.0688
4.48127	62.1622
4.4774	62.1786
4.47354	62.197
4.46968	62.2622
4.46584	62.2864
4.46199	62.2824
4.45815	62.2504
4.45432	62.2448
4.4505	62.2839
4.44668	62.3051
4.44287	62.3193
4.43907	62.3188
4.43527	62.3467
4.43148	62.4456
4.4277	62.453
4.42392	62.4939
4.42015	62.5475
4.41638	62.5536
4.41262	62.5772
4.40887	62.6052
4.40513	62.546
4.40139	62.5467
4.39765	62.6191
4.39393	62.6547
4.39021	62.6605
4.38649	62.6336
4.38278	62.6096
4.37908	62.6616
4.37539	62.7203
4.3717	62.715
4.36801	62.7159
4.36434	62.771
4.36067	62.7992
4.357	62.8077
4.35335	62.7663
4.34969	62.7735
4.34605	62.7946
4.34241	62.8437
4.33877	62.8646
4.33514	62.8836
4.33152	62.8591
4.32791	62.8151
4.3243	62.8578
4.32069	62.8877
4.3171	62.8898
4.31351	62.8674
4.30992	62.8195
4.30634	62.8553
4.30277	62.8433
4.2992	62.7904
4.29564	62.7828
4.29208	62.8277
4.28853	62.8719
4.28499	62.9102
4.28145	62.9273
4.27792	62.8308
4.27439	62.8243
4.27087	62.8474
4.26735	62.8507
4.26384	62.9476
4.26034	63.0297
4.25684	63.0923
4.25335	63.0628
4.24986	62.9425
4.24638	62.9182
4.24291	62.8596
4.23944	62.8098
4.23598	62.8572
4.23252	62.8755
4.22906	62.929
4.22562	63.0144
4.22218	63.0476
4.21874	63.091
4.21531	63.1459
4.21189	63.224
4.20847	63.323
4.20506	63.4208
4.20165	63.4628
4.19825	63.4821
4.19485	63.4751
4.19146	63.3861
4.18807	63.3955
4.18469	63.475
4.18132	63.52
4.17795	63.5103
4.17458	63.4926
4.17123	63.5105
4.16787	63.5382
4.16453	63.5496
4.16118	63.6389
4.15785	63.6878
4.15451	63.6519
4.15119	63.6117
4.14787	63.6541
4.14455	63.7397
4.14124	63.7336
4.13794	63.7506
4.13464	63.761
4.13134	63.744
4.12805	63.726
4.12477	63.6986
4.12149	63.7277
4.11822	63.7595
4.11495	63.7723
4.11168	63.8411
4.10843	63.8611
4.10517	63.7942
4.10192	63.7389
4.09868	63.7697
4.09545	63.8727
4.09221	63.8838
4.08899	63.8457
4.08576	63.8428
4.08255	63.8798
4.07933	63.8878
4.07613	63.8605
4.07292	63.9241
4.06973	64.0525
4.06654	64.067
4.06335	64.0629
4.06017	64.0495
4.05699	63.9926
4.05382	64.0026
4.05065	64.0592
4.04749	64.124
4.04433	64.1679
4.04118	64.1432
4.03803	64.1479
4.03489	64.1269
4.03175	64.1195
4.02862	64.1645
4.02549	64.1868
4.02237	64.2345
4.01925	64.2532
4.01614	64.2476
4.01303	64.2695
4.00993	64.2359
4.00683	64.265
4.00373	64.3079
4.00064	64.3738
3.99756	64.3904
3.99448	64.368
3.9914	64.3867
3.98833	64.4306
3.98527	64.4273
3.98221	64.4244
3.97915	64.4867
3.9761	64.5366
3.97305	64.5697
3.97001	64.5896
3.96697	64.6193
3.96394	64.6489
3.96091	64.6852
3.95789	64.7412
3.95487	64.7486
3.95186	64.7352
3.94885	64.746
3.94584	64.754
3.94284	64.7561
3.93984	64.8506
3.93685	64.9467
3.93386	64.9851
3.93088	64.9632
3.9279	64.9111
3.92493	64.9097
3.92196	64.9345
3.919	64.8996
3.91604	64.8761
3.91308	64.9428
3.91013	65.0621
3.90718	65.1331
3.90424	65.1126
3.9013	65.0843
3.89837	65.1009
3.89544	65.0847
3.89252	65.0529
3.8896	65.0823
3.88668	65.1364
3.88377	65.193
3.88086	65.2056
3.87796	65.2154
3.87506	65.2271
3.87217	65.1992
3.86928	65.1916
3.86639	65.2402
3.86351	65.2988
3.86064	65.2922
3.85776	65.2753
3.8549	65.2414
3.85203	65.2342
3.84917	65.2731
3.84631	65.2872
3.84346	65.312
3.84062	65.364
3.83777	65.3028
3.83494	65.2273
3.8321	65.246
3.82927	65.2875
3.82644	65.3318
3.82362	65.3399
3.82081	65.3827
3.81799	65.3728
3.81518	65.2982
3.81238	65.2936
3.80958	65.3651
3.80678	65.3888
3.80399	65.3382
3.8012	65.2776
3.79841	65.3262
3.79563	65.3299
3.79286	65.2834
3.79008	65.3132
3.78731	65.3505
3.78455	65.3649
3.78179	65.3446
3.77903	65.3588
3.77628	65.3751
3.77353	65.3766
3.77079	65.4323
3.76805	65.4588
3.76531	65.3746
3.76258	65.3946
3.75985	65.4044
3.75713	65.414
3.7544	65.4627
3.75169	65.4319
3.74898	65.4066
3.74627	65.3853
3.74356	65.3685
3.74086	65.3786
3.73816	65.3869
3.73547	65.4428
3.73278	65.5126
3.7301	65.4385
3.72741	65.4031
3.72474	65.3896
3.72206	65.3677
3.71939	65.4412
3.71673	65.4872
3.71406	65.462
3.71141	65.4304
3.70875	65.399
3.7061	65.387
3.70345	65.4652
3.70081	65.4907
3.69817	65.4509
3.69553	65.3824
3.6929	65.3826
3.69027	65.4429
3.68765	65.4586
3.68503	65.4036
3.68241	65.4005
3.6798	65.3692
3.67719	65.341
3.67458	65.3653
3.67198	65.4165
3.66938	65.4555
3.66678	65.4468
3.66419	65.3849
3.66161	65.3924
3.65902	65.4379
3.65644	65.4308
3.65387	65.4783
3.65129	65.5176
3.64872	65.428
3.64616	65.3017
3.64359	65.285
3.64103	65.3512
3.63848	65.4081
3.63593	65.4217
3.63338	65.4538
3.63084	65.4146
3.6283	65.3547
3.62576	65.3517
3.62322	65.4008
3.62069	65.3995
3.61817	65.3753
3.61564	65.3743
3.61312	65.336
3.61061	65.3402
3.6081	65.3206
3.60559	65.3447
3.60308	65.3807
3.60058	65.3563
3.59808	65.2913
3.59558	65.2886
3.59309	65.2843
3.59061	65.2753
3.58812	65.278
3.58564	65.2885
3.58316	65.2156
3.58069	65.2012
3.57822	65.2363
3.57575	65.2398
3.57328	65.2026
3.57082	65.1797
3.56836	65.1933
3.56591	65.1181
3.56346	65.0735
3.56101	65.1018
3.55857	65.141
3.55613	65.1193
3.55369	65.1249
3.55126	65.1463
3.54883	65.088
3.5464	65.0775
3.54397	65.0583
3.54155	64.9991
3.53914	64.9924
3.53672	64.9344
3.53431	64.876
3.5319	64.8078
3.5295	64.6646
3.5271	64.5775
3.5247	64.5122
3.52231	64.41
3.51991	64.2078
3.51753	63.8708
3.51514	63.2725
3.51276	62.3399
3.51038	61.6358
3.50801	61.7225
3.50563	62.2543
3.50327	62.7455
3.5009	63.0977
3.49854	63.396
3.49618	63.6218
3.49382	63.767
3.49147	63.9388
3.48912	64.0734
3.48677	64.1423
3.48443	64.0699
3.48209	64.0379
3.47975	64.0814
3.47742	64.137
3.47509	64.1602
3.47276	64.0432
3.47044	64.0013
3.46812	63.9631
3.4658	63.8989
3.46348	63.8599
3.46117	63.887
3.45886	63.8221
3.45656	63.6704
3.45425	63.7051
3.45195	63.7504
3.44966	63.6447
3.44736	63.492
3.44507	63.3951
3.44279	63.2823
3.4405	63.1257
3.43822	62.9059
3.43594	62.4764
3.43367	61.9084
3.43139	61.2286
3.42912	60.6754
3.42686	60.5826
3.42459	60.8075
3.42233	61.1329
3.42007	61.5115
3.41782	61.8173
3.41557	61.9651
3.41332	62.0984
3.41108	62.3582
3.40883	62.667
3.40659	62.9223
3.40435	63.147
3.40212	63.3398
3.39989	63.3583
3.39766	63.4156
3.39544	63.5901
3.39322	63.6448
3.391	63.6124
3.38878	63.614
3.38657	63.538
3.38436	63.4803
3.38215	63.5179
3.37994	63.5034
3.37774	63.4641
3.37554	63.5463
3.37335	63.6578
3.37115	63.6313
3.36896	63.6452
3.36678	63.7607
3.36459	63.8811
3.36241	63.9245
3.36023	63.8638
3.35805	63.9629
3.35588	64.0177
3.35371	64.0076
3.35154	64.0095
3.34938	64.0586
3.34721	64.0285
3.34505	63.9095
3.3429	63.893
3.34074	63.9699
3.33859	63.9436
3.33644	63.8843
3.3343	63.9278
3.33215	63.9732
3.33001	63.8501
3.32788	63.8057
3.32574	63.9058
3.32361	63.8998
3.32148	63.8145
3.31936	63.8116
3.31723	63.7425
3.31511	63.6552
3.31299	63.6187
3.31088	63.6114
3.30876	63.5797
3.30665	63.5624
3.30455	63.5031
3.30244	63.4699
3.30034	63.3579
3.29824	63.294
3.29614	63.3237
3.29405	63.3552
3.29196	63.28
3.28987	63.2099
3.28778	63.1802
3.2857	63.0888
3.28362	62.9146
3.28154	62.8108
3.27946	62.8572
3.27739	62.907
3.27532	62.8555
3.27325	62.8322
3.27119	62.7426
3.26913	62.6593
3.26707	62.6202
3.26501	62.6295
3.26295	62.6326
3.2609	62.622
3.25885	62.5996
3.2568	62.5018
3.25476	62.3907
3.25272	62.3429
3.25068	62.2428
3.24864	62.2529
3.24661	62.3765
3.24458	62.2765
3.24255	62.1139
3.24052	62.0836
3.2385	62.0385
3.23648	61.9791
3.23446	61.9906
3.23244	62.1162
3.23043	62.1946
3.22841	62.0809
3.2264	61.9798
3.2244	61.9915
3.22239	61.9783
3.22039	62.0155
3.21839	62.03
3.2164	62.0364
3.2144	62.0502
3.21241	62.0766
3.21042	62.0107
3.20844	61.9187
3.20645	61.9033
3.20447	61.9109
3.20249	61.8963
3.20051	61.9373
3.19854	61.9843
3.19657	61.9672
3.1946	61.8658
3.19263	61.9277
3.19067	62.0346
3.1887	62.0046
3.18674	61.899
3.18479	61.8524
3.18283	61.8717
3.18088	61.9241
3.17893	61.8808
3.17698	61.7631
3.17504	61.7246
3.17309	61.707
3.17115	61.732
3.16921	61.7634
3.16728	61.7648
3.16534	61.7011
3.16341	61.6016
3.16148	61.4678
3.15956	61.5167
3.15763	61.5422
3.15571	61.4921
3.15379	61.4511
3.15187	61.4155
3.14996	61.344
3.14805	61.2949
3.14614	61.2684
3.14423	61.2133
3.14232	61.2077
3.14042	61.1735
3.13852	61.1011
3.13662	61.0144
3.13472	60.9472
3.13283	60.9245
3.13094	60.8854
3.12905	60.8015
3.12716	60.8278
3.12528	60.8568
3.12339	60.8115
3.12151	60.8027
3.11964	60.7432
3.11776	60.6688
3.11589	60.7039
3.11401	60.6759
3.11214	60.5896
3.11028	60.5091
3.10841	60.4396
3.10655	60.3783
3.10469	60.4399
3.10283	60.4702
3.10098	60.4229
3.09912	60.4387
3.09727	60.397
3.09542	60.3596
3.09358	60.3411
3.09173	60.3348
3.08989	60.3618
3.08805	60.3088
3.08621	60.2776
3.08437	60.3098
3.08254	60.2596
3.08071	60.2334
3.07888	60.2176
3.07705	60.2052
3.07523	60.1679
3.0734	60.1838
3.07158	60.1917
3.06977	60.1782
3.06795	60.1361
3.06613	60.1476
3.06432	60.0544
3.06251	60.021
3.0607	60.1426
3.0589	60.1403
3.0571	60.0806
3.05529	60.0265
3.05349	60.072
3.0517	60.0706
3.0499	59.9424
3.04811	59.963
3.04632	59.9811
3.04453	59.8903
3.04274	59.8478
3.04096	59.8048
3.03918	59.7321
3.0374	59.8351
3.03562	59.8892
3.03384	59.844
3.03207	59.7334
3.03029	59.6784
3.02852	59.7141
3.02676	59.7157
3.02499	59.7078
3.02323	59.6741
3.02146	59.7188
3.0197	59.7203
3.01795	59.5621
3.01619	59.4572
3.01444	59.3991
3.01269	59.4534
3.01094	59.6041
3.00919	59.5859
3.00744	59.514
3.0057	59.503
3.00396	59.4322
3.00222	59.2466
3.00048	59.2413
2.99875	59.345
2.99701	59.3566
2.99528	59.2008
2.99355	59.1792
2.99183	59.2209
2.9901	59.2781
2.98838	59.201
2.98666	59.1179
2.98494	59.0918
2.98322	59.0096
2.9815	58.9884
2.97979	59.0362
2.97808	58.9345
2.97637	58.7529
2.97466	58.6808
2.97295	58.6728
2.97125	58.6588
2.96955	58.737
2.96785	58.6761
2.96615	58.5767
2.96446	58.5969
2.96276	58.5767
2.96107	58.4571
2.95938	58.359
2.95769	58.3268
2.95601	58.3712
2.95432	58.3854
2.95264	58.2428
2.95096	58.2467
2.94928	58.2784
2.9476	58.2247
2.94593	58.0939
2.94425	58.0732
2.94258	58.0736
2.94092	57.9672
2.93925	57.9354
2.93758	57.9729
2.93592	57.924
2.93426	57.7662
2.9326	57.7818
2.93094	57.7759
2.92928	57.7475
2.92763	57.6744
2.92598	57.5904
2.92433	57.7164
2.92268	57.7388
2.92103	57.5462
2.91939	57.4932
2.91775	57.4929
2.9161	57.4679
2.91447	57.4338
2.91283	57.3408
2.91119	57.2238
2.90956	57.2851
2.90793	57.3191
2.9063	57.3086
2.90467	57.3929
2.90304	57.2495
2.90142	57.0847
2.89979	57.0349
2.89817	56.9907
2.89656	56.9015
2.89494	56.7798
2.89332	56.8647
2.89171	56.9295
2.8901	56.8386
2.88849	56.6955
2.88688	56.5678
2.88527	56.4816
2.88367	56.4119
2.88206	56.2619
2.88046	56.1459
2.87886	55.953
2.87727	55.7843
2.87567	55.6237
2.87408	55.532
2.87248	55.3736
2.87089	55.0987
2.8693	54.8252
2.86772	54.5493
2.86613	54.3579
2.86455	54.0981
2.86297	53.8738
2.86139	53.5636
2.85981	53.2911
2.85823	53.0142
2.85666	52.7483
2.85508	52.3105
2.85351	51.9356
2.85194	51.5531
2.85038	51.1036
2.84881	50.8371
2.84724	50.4963
2.84568	50.0092
2.84412	49.4686
2.84256	49.0049
2.841	48.5955
2.83945	48.0998
2.83789	47.5124
2.83634	47.0057
2.83479	46.476
2.83324	45.8693
2.83169	45.2227
2.83015	44.5626
2.82861	44.0871
2.82706	43.4944
2.82552	42.7039
2.82398	42.0648
2.82245	41.6406
2.82091	41.0013
2.81938	40.3639
2.81784	39.7795
2.81631	39.3311
2.81479	39.0989
2.81326	38.7181
2.81173	38.399
2.81021	38.2136
2.80869	38.1336
2.80716	38.1583
2.80565	38.2992
2.80413	38.5893
2.80261	38.7283
2.8011	38.6051
2.79959	38.4657
2.79808	38.363
2.79657	38.3309
2.79506	38.2436
2.79355	38.1146
2.79205	37.7489
2.79055	37.4203
2.78904	37.2304
2.78754	37.0767
2.78605	36.9437
2.78455	37.0939
2.78306	37.3115
2.78156	37.2607
2.78007	37.5178
2.77858	38.2226
2.77709	38.8872
2.77561	39.3162
2.77412	39.8804
2.77264	40.4416
2.77116	40.9681
2.76968	41.3619
2.7682	41.5685
2.76672	41.7749
2.76524	42.1919
2.76377	42.9048
2.7623	43.5328
2.76083	43.8639
2.75936	44.3529
2.75789	45.0667
2.75642	46.1245
2.75496	46.9394
2.7535	47.1964
2.75203	47.725
2.75057	48.3267
2.74912	48.878
2.74766	49.1709
2.7462	49.2766
2.74475	49.3498
2.7433	49.5192
2.74185	49.8803
2.7404	50.1257
2.73895	49.7491
2.7375	49.1287
2.73606	49.071
2.73462	49.0092
2.73318	48.6679
2.73174	48.4961
2.7303	48.3595
2.72886	48.214
2.72742	48.1131
2.72599	48.2544
2.72456	48.4243
2.72313	48.0888
2.7217	48.0621
2.72027	48.2557
2.71884	47.991
2.71742	47.7996
2.71599	47.7769
2.71457	48.0672
2.71315	48.3409
2.71173	48.9349
2.71032	49.2561
2.7089	49.2929
2.70748	49.4612
2.70607	49.7852
2.70466	50.2729
2.70325	50.8531
2.70184	51.3892
2.70043	51.8778
2.69903	52.3412
2.69762	52.9626
2.69622	53.9149
2.69482	54.8807
2.69342	55.5856
2.69202	55.8266
2.69062	56.3227
2.68923	57.1876
2.68783	58.0349
2.68644	58.7618
2.68505	59.5694
2.68366	60.3754
2.68227	60.9819
2.68089	61.5608
2.6795	62.2742
2.67812	62.5807
2.67673	62.7747
2.67535	62.596
2.67397	62.3292
2.6726	62.5108
2.67122	63.4004
2.66984	63.5005
2.66847	62.8605
2.6671	63.2235
2.66572	63.434
2.66435	62.9352
2.66299	62.2814
2.66162	62.2623
2.66025	62.3066
2.65889	62.2944
2.65753	62.2169
2.65616	62.2849
2.65481	62.247
2.65345	62.3003
2.65209	62.3098
2.65073	62.1191
2.64938	62.024
2.64803	62.077
2.64667	62.2111
2.64532	62.3127
2.64397	62.1501
2.64263	62.0232
2.64128	61.9583
2.63994	61.9341
2.63859	62.067
2.63725	62.1185
2.63591	62.0451
2.63457	62.1561
2.63323	62.2533
2.6319	62.5285
2.63056	62.9413
2.62923	62.6699
2.62789	62.4842
2.62656	62.6884
2.62523	62.4127
2.6239	62.3852
2.62258	62.4925
2.62125	62.9328
2.61993	63.0051
2.6186	62.7238
2.61728	62.9634
2.61596	62.7888
2.61464	62.4045
2.61332	62.4407
2.61201	62.6069
2.61069	62.7587
2.60938	62.8984
2.60807	63.0215
2.60675	63.3004
2.60544	63.558
2.60414	63.2096
2.60283	62.848
2.60152	62.7712
2.60022	62.7125
2.59891	62.6439
2.59761	62.7628
2.59631	63.3797
2.59501	64.2835
2.59371	63.7193
2.59242	62.8224
2.59112	62.6579
2.58983	62.7655
2.58853	62.9098
2.58724	63.0245
2.58595	62.8294
2.58466	62.9796
2.58338	63.0197
2.58209	62.7606
2.5808	62.7858
2.57952	62.6432
2.57824	62.7206
2.57695	62.9073
2.57567	62.898
2.5744	62.9816
2.57312	63.0312
2.57184	62.7044
2.57057	62.8346
2.56929	62.9231
2.56802	62.5873
2.56675	62.4884
2.56548	62.743
2.56421	62.9831
2.56294	63.0017
2.56168	62.9823
2.56041	62.809
2.55915	62.5238
2.55789	62.4713
2.55662	62.4199
2.55536	62.4074
2.5541	62.5801
2.55285	62.7214
2.55159	62.6904
2.55034	62.5769
2.54908	62.4874
2.54783	62.5165
2.54658	62.3905
2.54533	62.2024
2.54408	62.2611
2.54283	62.4084
2.54159	62.3772
2.54034	62.2799
2.5391	62.1543
2.53785	62.2052
2.53661	62.3413
2.53537	62.2689
2.53413	62.2587
2.53289	62.3742
2.53166	62.3197
2.53042	62.073
2.52919	61.9909
2.52795	62.1282
2.52672	62.1552
2.52549	62.0597
2.52426	61.892
2.52303	61.835
2.52181	61.8062
2.52058	61.8005
2.51936	61.9536
2.51813	62.0156
2.51691	61.9049
2.51569	61.9689
2.51447	61.9596
2.51325	61.9221
2.51203	61.8711
2.51082	61.7882
2.5096	61.7673
2.50839	61.7822
2.50717	61.8027
2.50596	61.8157
2.50475	61.7353
2.50354	61.6433
2.50233	61.6354
2.50113	61.7479
2.49992	61.8379
2.49872	61.7506
2.49751	61.6747
2.49631	61.6843
2.49511	61.6289
2.49391	61.541
2.49271	61.5949
2.49151	61.6919
2.49031	61.579
2.48912	61.4886
2.48792	61.4714
2.48673	61.4772
2.48554	61.4568
2.48435	61.4583
2.48316	61.4469
2.48197	61.4886
2.48078	61.4686
2.4796	61.295
2.47841	61.1754
2.47723	61.1525
2.47604	61.1156
2.47486	61.165
2.47368	61.2214
2.4725	61.2099
2.47132	61.2035
2.47014	61.2887
2.46897	61.1983
2.46779	61.1201
2.46662	61.157
2.46545	61.1495
2.46427	60.9606
2.4631	60.9555
2.46193	60.9861
2.46077	60.9023
2.4596	60.7798
2.45843	60.8194
2.45727	60.8748
2.4561	60.8367
2.45494	60.7999
2.45378	60.7526
2.45262	60.7351
2.45146	60.7168
2.4503	60.7115
2.44914	60.735
2.44799	60.7594
2.44683	60.7557
2.44568	60.6372
2.44452	60.6343
2.44337	60.6206
2.44222	60.6091
2.44107	60.5391
2.43992	60.4864
2.43877	60.5333
2.43763	60.4191
2.43648	60.3734
2.43534	60.3714
2.43419	60.3036
2.43305	60.1991
2.43191	60.2812
2.43077	60.3572
2.42963	60.2405
2.42849	60.1323
2.42736	60.0257
2.42622	59.891
2.42509	59.8947
2.42395	59.9811
2.42282	59.9044
2.42169	59.7064
2.42056	59.7163
2.41943	59.703
2.4183	59.5055
2.41717	59.4694
2.41605	59.5385
2.41492	59.4657
2.4138	59.429
2.41267	59.43
2.41155	59.3284
2.41043	59.3251
2.40931	59.2587
2.40819	59.2087
2.40707	59.1878
2.40595	59.079
2.40484	59.0698
2.40372	58.9636
2.40261	58.8721
2.4015	58.9285
2.40039	59.0093
2.39928	58.9027
2.39817	58.8457
2.39706	58.8231
2.39595	58.6599
2.39484	58.5774
2.39374	58.6972
2.39263	58.8644
2.39153	58.9133
2.39043	58.8984
2.38932	58.8088
2.38822	58.7999
2.38712	58.7769
2.38603	58.7589
2.38493	58.7575
2.38383	58.7946
2.38274	58.8349
2.38164	58.854
2.38055	58.8009
2.37946	58.885
2.37836	58.9394
2.37727	58.9243
2.37618	58.9641
2.3751	59.0248
2.37401	58.921
2.37292	58.8784
2.37184	58.933
2.37075	58.8611
2.36967	58.7697
2.36859	58.765
2.3675	58.7868
2.36642	58.8787
2.36534	58.8524
2.36427	58.7361
2.36319	58.7674
2.36211	58.7079
2.36104	58.6341
2.35996	58.5378
2.35889	58.4508
2.35781	58.4901
2.35674	58.4008
2.35567	58.3597
2.3546	58.3585
2.35353	58.2449
2.35247	58.107
2.3514	57.9669
2.35033	57.8936
2.34927	57.9731
2.3482	58.0274
2.34714	57.8867
2.34608	57.8081
2.34502	57.6672
2.34396	57.6072
2.3429	57.6801
2.34184	57.6247
2.34078	57.4234
2.33973	57.4318
2.33867	57.5223
2.33762	57.5172
2.33656	57.5543
2.33551	57.538
2.33446	57.5264
2.33341	57.55
2.33236	57.5401
2.33131	57.6253
2.33026	57.6348
2.32922	57.5544
2.32817	57.6155
2.32712	57.8043
2.32608	57.9216
2.32504	57.9943
2.324	58.0098
2.32295	58.0191
2.32191	58.0801
2.32087	58.1043
2.31984	58.2461
2.3188	58.2763
2.31776	58.0948
2.31673	58.0553
2.31569	58.3083
2.31466	58.4273
2.31362	58.3777
2.31259	58.4484
2.31156	58.6553
2.31053	58.8191
2.3095	58.8214
2.30847	58.8054
2.30745	58.7162
2.30642	58.7328
2.3054	58.8907
2.30437	59.0595
2.30335	59.0611
2.30232	59.0308
2.3013	59.0259
2.30028	59.041
2.29926	59.0729
2.29824	59.1346
2.29722	59.1172
2.29621	59.1378
2.29519	59.1081
2.29417	59.0933
2.29316	59.2265
2.29215	59.328
2.29113	59.3568
2.29012	59.2418
2.28911	59.2743
2.2881	59.3429
2.28709	59.3184
2.28608	59.2639
2.28507	59.3229
2.28407	59.4304
2.28306	59.3108
2.28206	59.1995
2.28105	59.2124
2.28005	59.2449
2.27905	59.2035
2.27805	59.1477
2.27705	59.2512
2.27605	59.2925
2.27505	59.2002
2.27405	59.1278
2.27305	59.0139
2.27206	59.0286
2.27106	59.057
2.27007	58.9603
2.26907	58.9901
2.26808	58.91
2.26709	58.794
2.2661	58.8984
2.26511	58.9526
2.26412	58.8378
2.26313	58.735
2.26214	58.7188
2.26116	58.6488
2.26017	58.6916
2.25919	58.6588
2.2582	58.5149
2.25722	58.514
2.25624	58.3569
2.25526	58.1491
2.25428	58.2312
2.2533	58.2977
2.25232	58.332
2.25134	58.4447
2.25036	58.5648
2.24939	58.5226
2.24841	58.4459
2.24744	58.4621
2.24646	58.4111
2.24549	58.4839
2.24452	58.6419
2.24355	58.7214
2.24257	58.6607
2.24161	58.6162
2.24064	58.733
2.23967	58.6924
2.2387	58.6139
2.23774	58.7259
2.23677	58.8218
2.23581	58.8546
2.23484	58.7926
2.23388	58.9161
2.23292	58.8748
2.23196	58.8681
2.231	58.8776
2.23004	58.9594
2.22908	58.9896
2.22812	58.9022
2.22716	58.7841
2.22621	58.7003
2.22525	58.7616
2.2243	58.8162
2.22334	58.6985
2.22239	58.6936
2.22144	58.8201
2.22049	58.8526
2.21953	58.8013
2.21859	58.7237
2.21764	58.6648
2.21669	58.7741
2.21574	58.781
2.21479	58.6312
2.21385	58.572
2.2129	58.5827
2.21196	58.5876
2.21102	58.5644
2.21007	58.5934
2.20913	58.5177
2.20819	58.4719
2.20725	58.4412
2.20631	58.3936
2.20537	58.3598
2.20444	58.4599
2.2035	58.5061
2.20256	58.4042
2.20163	58.3557
2.20069	58.3291
2.19976	58.3428
2.19883	58.3133
2.19789	58.3364
2.19696	58.4484
2.19603	58.5174
2.1951	58.4023
2.19417	58.3315
2.19325	58.4114
2.19232	58.3066
2.19139	58.0535
2.19047	57.9802
2.18954	58.0235
2.18862	58.0245
2.18769	58.0136
2.18677	58.022
2.18585	58.1344
2.18493	58.2055
2.18401	58.0858
2.18309	58.1028
2.18217	58.0377
2.18125	57.9171
2.18033	57.9124
2.17942	57.9085
2.1785	57.8127
2.17759	57.8383
2.17667	57.8668
2.17576	57.8563
2.17485	57.8369
2.17393	57.7553
2.17302	57.7469
2.17211	57.8358
2.1712	57.8711
2.17029	57.7814
2.16939	57.7838
2.16848	57.7622
2.16757	57.6717
2.16667	57.5714
2.16576	57.4608
2.16486	57.4627
2.16395	57.493
2.16305	57.5293
2.16215	57.562
2.16125	57.7229
2.16035	57.6953
2.15945	57.4448
2.15855	57.3708
2.15765	57.37
2.15675	57.3704
2.15586	57.3437
2.15496	57.3605
2.15406	57.325
2.15317	57.2112
2.15228	57.1879
2.15138	57.0858
2.15049	57.1496
2.1496	57.4421
2.14871	57.4602
2.14782	57.2402
2.14693	57.1045
2.14604	57.1089
2.14515	57.2793
2.14427	57.3498
2.14338	57.15
2.14249	57.0658
2.14161	57.2014
2.14072	57.2917
2.13984	57.2569
2.13896	57.0395
2.13808	56.8382
2.13719	56.7722
2.13631	56.7375
2.13543	56.8018
2.13455	56.7982
2.13368	56.7869
2.1328	56.7564
2.13192	56.7345
2.13105	56.6756
2.13017	56.598
2.1293	56.6699
2.12842	56.7747
2.12755	56.7446
2.12668	56.5375
2.1258	56.627
2.12493	56.7549
2.12406	56.8052
2.12319	56.7353
2.12232	56.7176
2.12145	56.6313
2.12059	56.6517
2.11972	56.4155
2.11885	56.1702
2.11799	56.2207
2.11712	56.3154
2.11626	56.4648
2.1154	56.3936
2.11453	56.2951
2.11367	56.2893
2.11281	56.3248
2.11195	56.2956
2.11109	56.1454
2.11023	56.2499
2.10937	56.2231
2.10851	56.1026
2.10766	56.1754
2.1068	56.1074
2.10594	56.086
2.10509	56.1902
2.10423	56.1907
2.10338	56.0232
2.10253	55.8673
2.10168	55.9635
2.10082	56.0934
2.09997	56.0306
2.09912	56.0041
2.09827	55.9923
2.09742	55.9659
2.09658	56.1874
2.09573	55.994
2.09488	55.7209
2.09404	55.7537
2.09319	55.7834
2.09235	55.7743
2.0915	55.9333
2.09066	56.1892
2.08982	55.9928
2.08897	55.6765
2.08813	55.5295
2.08729	55.6129
2.08645	55.7232
2.08561	55.8066
2.08477	55.765
2.08394	55.7598
2.0831	55.7546
2.08226	55.5987
2.08143	55.4828
2.08059	55.4269
2.07976	55.3997
2.07892	55.2733
2.07809	55.3742
2.07726	55.6095
2.07643	55.7618
2.07559	55.6937
2.07476	55.7664
2.07393	55.8138
2.0731	55.6863
2.07228	55.5384
2.07145	55.2873
2.07062	55.2786
2.06979	55.1098
2.06897	55.1449
2.06814	55.4466
2.06732	55.1211
2.06649	54.8214
2.06567	55.0613
2.06485	55.0858
2.06403	55.1547
2.0632	55.0493
2.06238	54.8969
2.06156	55.1181
2.06074	54.9208
2.05993	54.6365
2.05911	55.1588
2.05829	55.3983
2.05747	55.1388
2.05666	55.0944
2.05584	55.1771
2.05503	55.0162
2.05421	54.8578
2.0534	54.9515
2.05259	54.9581
2.05177	54.647
2.05096	54.5409
2.05015	54.6815
2.04934	54.8646
2.04853	54.8414
2.04772	54.7402
2.04691	54.8984
2.04611	54.9014
2.0453	54.7279
2.04449	54.6281
2.04369	54.7625
2.04288	54.7078
2.04208	54.5528
2.04127	54.6066
2.04047	54.6814
2.03967	54.4843
2.03886	54.3154
2.03806	54.4933
2.03726	54.7498
2.03646	54.6452
2.03566	54.3691
2.03486	54.2829
2.03407	54.275
2.03327	54.3006
2.03247	54.251
2.03167	54.3361
2.03088	54.7243
2.03008	54.741
2.02929	54.6254
2.0285	54.4654
2.0277	54.2123
2.02691	54.1167
2.02612	54.1051
2.02533	54.188
2.02453	54.2114
2.02374	54.1715
2.02295	54.3381
2.02217	54.3423
2.02138	54.1186
2.02059	54.0045
2.0198	54.077
2.01902	54.1736
2.01823	54.0857
2.01744	53.9344
2.01666	53.9519
2.01588	53.9352
2.01509	53.7494
2.01431	53.647
2.01353	53.8453
2.01275	54.0503
2.01196	54.1748
2.01118	54.0785
2.0104	53.7936
2.00963	53.736
2.00885	53.8932
2.00807	53.9476
2.00729	53.9294
2.00651	53.9827
2.00574	53.8124
2.00496	53.7639
2.00419	53.696
2.00341	53.5824
2.00264	53.4564
2.00187	53.5467
2.00109	53.569
2.00032	53.4309
