Name: Gold plate
Type: Manmade materials
Class: Reflectance target
Subclass: 
Particle Size: Solid
Sample No.: 001682
Owner: JPL
Wavelength range: IR
Origin: Labsphere, P.O. Box 70, Shaker Street, North Sutton, NH 03260
(603) 927-4266
Description: Measurement made at top right. Field Gold.
Oct. 29 1997 to Oct. 30 1997.




Measurement: Hemispherical Reflectance
First Column: X
Second Column: Y
X Units: Wavelength (micrometers)
Y Units: Reflectence (percent)
First X Value: 15.3853
Last X Value: 2.00032
Number of X Values: 2256
Additional information: None.
 
15.3853	89.6845
15.3397	89.6021
15.2945	89.7246
15.2495	89.9254
15.2048	89.8631
15.1603	89.613
15.1161	89.5705
15.0722	89.6745
15.0285	89.5977
14.9851	89.4965
14.9419	89.6151
14.8989	89.9038
14.8563	89.9433
14.8138	89.8503
14.7716	89.6182
14.7296	89.6688
14.6879	89.8467
14.6464	89.7675
14.6052	89.6831
14.5641	89.6034
14.5233	89.7079
14.4828	89.7284
14.4424	89.5994
14.4023	89.6084
14.3624	89.6368
14.3227	89.5384
14.2833	89.4929
14.244	89.5422
14.205	89.789
14.1662	89.8814
14.1276	89.8281
14.0892	89.7996
14.051	89.7053
14.0131	89.7453
13.9753	89.6603
13.9377	89.6953
13.9004	89.836
13.8632	89.9335
13.8262	90.1217
13.7895	90.0892
13.7529	90.0234
13.7165	89.982
13.6803	89.9396
13.6443	89.9341
13.6085	90.0265
13.5729	90.1527
13.5374	90.1784
13.5022	90.178
13.4671	90.0867
13.4322	89.9697
13.3975	89.8733
13.363	89.8522
13.3286	89.9995
13.2944	90.0051
13.2604	89.9279
13.2266	89.8313
13.193	89.8919
13.1595	89.9699
13.1262	89.9963
13.093	89.9445
13.06	89.8693
13.0272	89.9391
12.9946	90.0407
12.9621	89.9853
12.9298	89.8078
12.8976	89.7736
12.8656	89.8474
12.8337	89.7933
12.8021	89.6881
12.7705	89.8381
12.7391	89.9229
12.7079	89.8481
12.6769	89.8603
12.6459	89.8086
12.6152	89.7865
12.5845	89.7726
12.5541	89.6938
12.5238	89.7623
12.4936	89.9591
12.4635	90.0241
12.4337	90.0102
12.4039	90.0219
12.3743	90.1499
12.3448	90.3286
12.3155	90.4837
12.2863	90.5894
12.2573	90.5247
12.2284	90.4644
12.1996	90.5495
12.171	90.6464
12.1425	90.6097
12.1141	90.5937
12.0859	90.6559
12.0578	90.642
12.0298	90.7001
12.0019	90.7729
11.9742	90.7315
11.9466	90.6595
11.9192	90.6713
11.8918	90.7126
11.8646	90.6154
11.8375	90.5917
11.8106	90.62
11.7837	90.4925
11.757	90.4292
11.7304	90.5348
11.7039	90.5732
11.6776	90.5776
11.6513	90.552
11.6252	90.5191
11.5992	90.429
11.5733	90.2784
11.5475	90.2016
11.5219	90.2203
11.4963	89.9995
11.4709	89.6764
11.4455	89.5905
11.4203	89.6911
11.3952	89.8941
11.3702	89.9425
11.3454	89.9119
11.3206	89.9531
11.2959	90.0159
11.2714	89.9371
11.2469	89.9206
11.2226	90.0607
11.1983	90.0085
11.1742	89.9024
11.1502	89.8526
11.1263	89.7575
11.1024	89.675
11.0787	89.5924
11.0551	89.5023
11.0316	89.3983
11.0081	89.3022
10.9848	89.2068
10.9616	89.1051
10.9385	89.0628
10.9154	89.0347
10.8925	89.0609
10.8697	89.1259
10.8469	89.0913
10.8243	89.0088
10.8017	89.0376
10.7793	89.0665
10.7569	89.0884
10.7346	89.1156
10.7125	89.0238
10.6904	88.962
10.6684	88.8753
10.6465	88.8559
10.6247	88.8105
10.6029	88.7659
10.5813	88.7375
10.5597	88.803
10.5383	88.7995
10.5169	88.7507
10.4956	88.6602
10.4744	88.4918
10.4533	88.412
10.4323	88.415
10.4113	88.3698
10.3904	88.2651
10.3697	88.2371
10.349	88.1058
10.3284	87.8366
10.3078	87.6662
10.2874	87.5307
10.267	87.5422
10.2467	87.5384
10.2265	87.3324
10.2064	87.113
10.1863	87.0142
10.1663	86.9218
10.1464	86.8588
10.1266	86.7454
10.1069	86.5763
10.0872	86.3927
10.0676	86.2872
10.0481	86.226
10.0287	86.1103
10.0093	85.9708
9.99005	85.8825
9.97084	85.8663
9.95169	85.7163
9.93263	85.537
9.91364	85.4014
9.89472	85.4663
9.87587	85.4824
9.8571	85.3812
9.83839	85.4063
9.81976	85.5099
9.80119	85.4774
9.78271	85.3936
9.76428	85.3234
9.74592	85.2472
9.72764	85.2604
9.70943	85.3037
9.69128	85.2587
9.6732	85.1932
9.65518	85.2551
9.63724	85.3441
9.61935	85.4377
9.60155	85.4653
9.5838	85.5592
9.56611	85.649
9.5485	85.5614
9.53094	85.6019
9.51345	85.7075
9.49604	85.7707
9.47867	85.8807
9.46137	86.0119
9.44414	86.1328
9.42697	86.1904
9.40986	86.2747
9.39281	86.4409
9.37583	86.5267
9.35891	86.5315
9.34204	86.5775
9.32524	86.6989
9.3085	86.7764
9.29182	86.8022
9.27519	86.9398
9.25863	87.0348
9.24213	87.0668
9.22568	87.1398
9.2093	87.2187
9.19297	87.1445
9.17669	87.1127
9.16048	87.2531
9.14433	87.4155
9.12823	87.4665
9.11218	87.4632
9.0962	87.4885
9.08027	87.4361
9.06439	87.4957
9.04858	87.5346
9.03281	87.5155
9.0171	87.5216
9.00145	87.5309
8.98585	87.5893
8.9703	87.626
8.9548	87.6661
8.93937	87.8177
8.92398	87.9528
8.90865	87.9567
8.89337	88.0666
8.87814	88.2329
8.86296	88.2826
8.84784	88.3527
8.83277	88.507
8.81774	88.5044
8.80277	88.5705
8.78786	88.6723
8.77298	88.8165
8.75816	88.9265
8.7434	88.9384
8.72868	88.8885
8.714	88.8933
8.69938	88.9525
8.68481	89.0072
8.67029	89.0195
8.65581	89.0115
8.64139	89.0481
8.62701	89.1651
8.61268	89.219
8.5984	89.2039
8.58416	89.1683
8.56997	89.28
8.55583	89.3665
8.54174	89.4396
8.52769	89.4749
8.51368	89.567
8.49973	89.6572
8.48582	89.6933
8.47195	89.836
8.45813	89.9121
8.44436	89.9417
8.43062	90.0685
8.41693	90.2053
8.4033	90.287
8.3897	90.2714
8.37614	90.3145
8.36264	90.3414
8.34917	90.3273
8.33574	90.3171
8.32236	90.4249
8.30903	90.5412
8.29573	90.6176
8.28248	90.6749
8.26927	90.7563
8.2561	90.7381
8.24298	90.7384
8.2299	90.7395
8.21685	90.7548
8.20385	90.9162
8.19089	90.9478
8.17797	90.9233
8.16509	90.877
8.15225	90.955
8.13946	91.0548
8.1267	90.9929
8.11398	91.016
8.10131	91.1386
8.08867	91.1182
8.07606	91.0504
8.0635	91.046
8.05099	91.0424
8.0385	91.0377
8.02606	91.0267
8.01366	90.9913
8.00129	91.0194
7.98896	91.0697
7.97667	91.0719
7.96442	91.1166
7.9522	91.083
7.94002	91.0201
7.92788	91.0475
7.91578	91.1349
7.90371	91.1999
7.89168	91.1425
7.87969	91.1204
7.86773	91.1789
7.85581	91.2311
7.84392	91.2017
7.83207	91.069
7.82026	91.0531
7.80849	91.1079
7.79674	91.1005
7.78503	91.0779
7.77337	91.0181
7.76173	91.0001
7.75012	91.0183
7.73856	91.0554
7.72703	91.0701
7.71553	91.0564
7.70406	91.0644
7.69263	91.0584
7.68123	91.0271
7.66987	90.9976
7.65855	90.9918
7.64725	90.9442
7.63598	90.9151
7.62475	90.8915
7.61356	90.8213
7.60239	90.7939
7.59126	90.8399
7.58017	90.85
7.5691	90.814
7.55806	90.7547
7.54707	90.7502
7.5361	90.78
7.52516	90.7706
7.51425	90.756
7.50338	90.7817
7.49253	90.7991
7.48172	90.8242
7.47094	90.8076
7.46019	90.7338
7.44947	90.6504
7.43879	90.6697
7.42813	90.7162
7.4175	90.7313
7.4069	90.6797
7.39634	90.637
7.3858	90.6546
7.37529	90.6445
7.36482	90.5671
7.35437	90.589
7.34396	90.6716
7.33357	90.5757
7.32321	90.3879
7.31288	90.3918
7.30258	90.4828
7.29231	90.528
7.28207	90.5656
7.27185	90.551
7.26167	90.4603
7.25152	90.4396
7.24139	90.4082
7.23129	90.3889
7.22122	90.3888
7.21117	90.4506
7.20116	90.4269
7.19117	90.3874
7.18121	90.4224
7.17128	90.5002
7.16137	90.3988
7.1515	90.3456
7.14164	90.3756
7.13182	90.2894
7.12203	90.2653
7.11225	90.2747
7.10251	90.2292
7.0928	90.2314
7.08311	90.2136
7.07344	90.1798
7.06381	90.1869
7.0542	90.408
7.04461	90.5889
7.03506	90.2865
7.02552	90.11
7.01601	90.1322
7.00653	90.1333
6.99708	90.2562
6.98765	90.2681
6.97824	90.1593
6.96886	90.3029
6.95951	90.5689
6.95018	90.2674
6.94087	90.0362
6.9316	90.0188
6.92234	90.1189
6.91311	90.2267
6.90391	90.3023
6.89473	90.1498
6.88557	90.1266
6.87644	90.3576
6.86733	90.9969
6.85824	91.0712
6.84918	90.5243
6.84015	90.2538
6.83114	90.459
6.82215	90.5196
6.81319	90.3587
6.80424	90.491
6.79532	90.8576
6.78643	90.9359
6.77756	90.7698
6.76871	90.6936
6.75989	90.6051
6.75109	90.6432
6.74231	90.6653
6.73355	90.7394
6.72482	90.8817
6.71611	91.0806
6.70742	91.1021
6.69875	90.8338
6.69011	90.9561
6.68149	91.2786
6.67289	91.2229
6.66431	91.0515
6.65576	90.968
6.64722	91.3678
6.63871	92.0262
6.63022	91.7725
6.62175	91.3001
6.61331	91.1861
6.60488	91.1625
6.59648	91.3375
6.5881	91.4534
6.57974	91.6466
6.5714	91.8591
6.56308	91.515
6.55478	91.4297
6.54651	91.3803
6.53825	91.2158
6.53001	91.2469
6.5218	91.4804
6.51361	91.2935
6.50544	91.4173
6.49729	92.1368
6.48915	92.1898
6.48104	91.7019
6.47295	91.4192
6.46488	91.1634
6.45683	91.1392
6.4488	91.1762
6.44079	91.2498
6.4328	91.4405
6.42482	91.7024
6.41687	92.4632
6.40894	92.2507
6.40103	91.3486
6.39314	91.0954
6.38526	91.0593
6.37741	91.2196
6.36957	91.3714
6.36176	91.0968
6.35396	91.0833
6.34618	91.4862
6.33843	91.2846
6.33069	90.8886
6.32297	90.8772
6.31527	90.9158
6.30758	90.8262
6.29992	90.7258
6.29227	90.776
6.28465	90.8288
6.27704	90.8465
6.26945	90.8003
6.26188	90.7583
6.25432	90.7082
6.24679	90.7405
6.23927	90.7609
6.23177	90.7178
6.22429	90.6788
6.21683	90.7235
6.20938	90.6996
6.20195	90.614
6.19454	90.7479
6.18715	91.2003
6.17978	91.0243
6.17242	90.6379
6.16508	90.7901
6.15776	90.921
6.15045	90.7377
6.14317	90.7828
6.1359	90.7759
6.12864	90.6376
6.12141	90.8493
6.11419	91.268
6.10699	91.0598
6.0998	90.7233
6.09263	90.6417
6.08549	90.7091
6.07835	91.061
6.07123	91.2413
6.06413	91.0068
6.05705	91.3847
6.04998	92.1555
6.04293	91.5815
6.0359	90.8979
6.02888	90.8274
6.02187	90.9276
6.01489	91.0934
6.00792	91.0176
6.00096	90.975
5.99403	91.3192
5.98711	91.4289
5.9802	91.178
5.97331	91.3836
5.96644	91.5058
5.95958	91.1703
5.95274	91.1454
5.94591	91.4683
5.9391	92.1619
5.9323	91.9777
5.92552	91.4413
5.91876	91.4723
5.91201	91.4801
5.90528	91.5699
5.89856	92.1027
5.89186	92.1634
5.88517	92.3658
5.8785	92.4311
5.87184	91.8087
5.8652	91.848
5.85857	91.8632
5.85196	91.7146
5.84536	91.6511
5.83878	91.789
5.83221	92.0653
5.82566	92.42
5.81912	92.4162
5.81259	91.9531
5.80608	91.8262
5.79959	91.8587
5.79311	91.7983
5.78665	91.809
5.78019	91.9007
5.77376	92.2402
5.76734	92.728
5.76093	92.3228
5.75453	91.9907
5.74815	92.2113
5.74179	92.1958
5.73543	92.1056
5.7291	92.0803
5.72277	92.2574
5.71646	92.4374
5.71017	92.5256
5.70389	92.3346
5.69762	92.2833
5.69136	92.3878
5.68513	92.3895
5.6789	92.5117
5.67268	92.493
5.66648	92.2759
5.6603	92.3773
5.65413	92.5605
5.64797	92.7067
5.64182	92.8923
5.63569	92.5985
5.62957	92.3826
5.62347	92.3393
5.61737	92.4001
5.61129	92.4447
5.60522	92.4659
5.59917	92.4078
5.59313	92.3773
5.5871	92.4779
5.58109	92.6687
5.57509	92.5644
5.5691	92.3628
5.56312	92.3425
5.55716	92.4133
5.55121	92.5073
5.54528	92.4461
5.53935	92.3986
5.53344	92.4289
5.52754	92.5104
5.52166	92.5824
5.51578	92.556
5.50992	92.4902
5.50407	92.5317
5.49823	92.5576
5.49241	92.5524
5.4866	92.6076
5.4808	92.6898
5.47501	92.6214
5.46923	92.638
5.46347	92.7736
5.45772	92.6341
5.45198	92.5485
5.44625	92.6311
5.44054	92.7117
5.43484	92.6746
5.42914	92.7345
5.42347	92.9422
5.4178	92.8529
5.41214	92.6614
5.4065	92.6237
5.40087	92.5972
5.39525	92.5653
5.38964	92.5536
5.38404	92.563
5.37846	92.5971
5.37288	92.6204
5.36732	92.5829
5.36177	92.6003
5.35623	92.6868
5.35071	92.7593
5.34519	92.7368
5.33968	92.716
5.33419	92.694
5.32871	92.5953
5.32324	92.5342
5.31778	92.5167
5.31233	92.5234
5.30689	92.5688
5.30147	92.6442
5.29605	92.655
5.29065	92.6868
5.28525	92.6309
5.27987	92.6012
5.2745	92.6621
5.26914	92.6994
5.26379	92.6533
5.25845	92.6424
5.25312	92.6594
5.24781	92.6364
5.2425	92.6355
5.23721	92.6935
5.23192	92.6959
5.22665	92.684
5.22138	92.6727
5.21613	92.7599
5.21089	92.8029
5.20566	92.7475
5.20044	92.7265
5.19522	92.7197
5.19002	92.6985
5.18483	92.639
5.17965	92.6588
5.17448	92.6671
5.16933	92.6664
5.16418	92.6638
5.15904	92.6724
5.15391	92.7288
5.14879	92.7545
5.14368	92.7142
5.13859	92.6832
5.1335	92.7231
5.12842	92.7155
5.12335	92.6858
5.1183	92.6517
5.11325	92.6765
5.10821	92.7348
5.10318	92.7504
5.09817	92.7389
5.09316	92.7467
5.08816	92.7132
5.08317	92.6627
5.07819	92.6271
5.07322	92.6606
5.06826	92.6679
5.06331	92.6518
5.05837	92.639
5.05344	92.6627
5.04852	92.7184
5.04361	92.7515
5.03871	92.7548
5.03382	92.7347
5.02894	92.7372
5.02406	92.7625
5.0192	92.7707
5.01435	92.7266
5.0095	92.6951
5.00467	92.7272
4.99984	92.7287
4.99502	92.7096
4.99021	92.7151
4.98542	92.6642
4.98063	92.6641
4.97585	92.7395
4.97108	92.7771
4.96632	92.7193
4.96156	92.6703
4.95682	92.7186
4.95209	92.7407
4.94736	92.687
4.94264	92.6806
4.93794	92.7285
4.93324	92.7401
4.92855	92.7003
4.92387	92.6806
4.9192	92.7094
4.91453	92.6802
4.90988	92.6959
4.90524	92.7034
4.9006	92.6861
4.89597	92.6744
4.89135	92.6757
4.88674	92.7092
4.88214	92.7705
4.87755	92.761
4.87296	92.7298
4.86839	92.742
4.86382	92.7479
4.85926	92.7353
4.85471	92.7698
4.85017	92.8514
4.84564	92.8457
4.84111	92.7717
4.8366	92.6841
4.83209	92.6514
4.82759	92.6891
4.8231	92.7389
4.81862	92.7862
4.81415	92.7757
4.80968	92.7422
4.80522	92.7483
4.80077	92.7353
4.79633	92.6911
4.7919	92.7105
4.78747	92.7257
4.78306	92.7028
4.77865	92.6903
4.77425	92.7289
4.76986	92.7476
4.76547	92.7196
4.7611	92.7188
4.75673	92.7094
4.75237	92.7316
4.74802	92.7704
4.74367	92.766
4.73934	92.785
4.73501	92.7661
4.73069	92.7469
4.72638	92.77
4.72207	92.7609
4.71777	92.7382
4.71348	92.7054
4.7092	92.7055
4.70493	92.7073
4.70066	92.7519
4.69641	92.726
4.69216	92.7107
4.68791	92.7429
4.68368	92.7413
4.67945	92.6755
4.67523	92.6273
4.67102	92.6511
4.66682	92.6737
4.66262	92.6586
4.65843	92.6614
4.65425	92.7141
4.65007	92.7447
4.64591	92.7171
4.64175	92.7103
4.6376	92.7048
4.63345	92.7106
4.62932	92.7392
4.62519	92.7553
4.62106	92.7258
4.61695	92.679
4.61284	92.6651
4.60874	92.7486
4.60465	92.7684
4.60056	92.7369
4.59648	92.6862
4.59241	92.6245
4.58835	92.6602
4.58429	92.7085
4.58024	92.7518
4.5762	92.7792
4.57216	92.7664
4.56814	92.7068
4.56411	92.6966
4.5601	92.6902
4.55609	92.7041
4.55209	92.7198
4.5481	92.6927
4.54411	92.6973
4.54013	92.7476
4.53616	92.7468
4.5322	92.7052
4.52824	92.6908
4.52429	92.7084
4.52034	92.7468
4.51641	92.7839
4.51247	92.7389
4.50855	92.702
4.50463	92.7293
4.50072	92.6961
4.49682	92.6873
4.49292	92.7031
4.48903	92.7112
4.48515	92.7285
4.48127	92.7109
4.4774	92.6957
4.47354	92.697
4.46968	92.6788
4.46584	92.7018
4.46199	92.747
4.45815	92.7049
4.45432	92.6845
4.4505	92.7031
4.44668	92.6773
4.44287	92.6945
4.43907	92.7044
4.43527	92.6809
4.43148	92.6597
4.4277	92.6497
4.42392	92.671
4.42015	92.7301
4.41638	92.7478
4.41262	92.7034
4.40887	92.6786
4.40513	92.6573
4.40139	92.6702
4.39765	92.6874
4.39393	92.7112
4.39021	92.6805
4.38649	92.6926
4.38278	92.6909
4.37908	92.7343
4.37539	92.774
4.3717	92.7418
4.36801	92.6824
4.36434	92.6642
4.36067	92.7419
4.357	92.7486
4.35335	92.6679
4.34969	92.7011
4.34605	92.6836
4.34241	92.6889
4.33877	92.6323
4.33514	92.5909
4.33152	92.6073
4.32791	92.5886
4.3243	92.6149
4.32069	92.6293
4.3171	92.5597
4.31351	92.502
4.30992	92.4618
4.30634	92.4825
4.30277	92.3968
4.2992	92.3017
4.29564	92.2882
4.29208	92.3169
4.28853	92.3202
4.28499	92.2547
4.28145	92.2503
4.27792	92.2488
4.27439	92.2886
4.27087	92.2866
4.26735	92.3304
4.26384	92.429
4.26034	92.4789
4.25684	92.47
4.25335	92.4216
4.24986	92.3548
4.24638	92.2949
4.24291	92.219
4.23944	92.1792
4.23598	92.1319
4.23252	92.0939
4.22906	92.1217
4.22562	92.1391
4.22218	92.2042
4.21874	92.3232
4.21531	92.4343
4.21189	92.4572
4.20847	92.4789
4.20506	92.5559
4.20165	92.5985
4.19825	92.657
4.19485	92.6745
4.19146	92.6297
4.18807	92.5561
4.18469	92.5439
4.18132	92.6108
4.17795	92.5977
4.17458	92.576
4.17123	92.6228
4.16787	92.6664
4.16453	92.6541
4.16118	92.559
4.15785	92.5775
4.15451	92.6094
4.15119	92.5602
4.14787	92.5449
4.14455	92.572
4.14124	92.67
4.13794	92.6541
4.13464	92.5519
4.13134	92.5159
4.12805	92.5097
4.12477	92.4916
4.12149	92.4962
4.11822	92.54
4.11495	92.5547
4.11168	92.5729
4.10843	92.559
4.10517	92.5767
4.10192	92.563
4.09868	92.5431
4.09545	92.5213
4.09221	92.5434
4.08899	92.632
4.08576	92.5288
4.08255	92.4273
4.07933	92.4905
4.07613	92.5464
4.07292	92.5377
4.06973	92.5558
4.06654	92.493
4.06335	92.4735
4.06017	92.5131
4.05699	92.5234
4.05382	92.528
4.05065	92.5087
4.04749	92.4882
4.04433	92.5014
4.04118	92.5455
4.03803	92.5859
4.03489	92.5955
4.03175	92.5236
4.02862	92.4953
4.02549	92.539
4.02237	92.4852
4.01925	92.3732
4.01614	92.3609
4.01303	92.3773
4.00993	92.3686
4.00683	92.3559
4.00373	92.3661
4.00064	92.3826
3.99756	92.3332
3.99448	92.2972
3.9914	92.2813
3.98833	92.2923
3.98527	92.2596
3.98221	92.1777
3.97915	92.2344
3.9761	92.2905
3.97305	92.2452
3.97001	92.1969
3.96697	92.124
3.96394	92.1205
3.96091	92.2004
3.95789	92.332
3.95487	92.3717
3.95186	92.3578
3.94885	92.2718
3.94584	92.2184
3.94284	92.2728
3.93984	92.2686
3.93685	92.2338
3.93386	92.2469
3.93088	92.2833
3.9279	92.3584
3.92493	92.3958
3.92196	92.3071
3.919	92.2685
3.91604	92.3038
3.91308	92.3631
3.91013	92.347
3.90718	92.2743
3.90424	92.3006
3.9013	92.3621
3.89837	92.3735
3.89544	92.2873
3.89252	92.2246
3.8896	92.2451
3.88668	92.2795
3.88377	92.2592
3.88086	92.3136
3.87796	92.3059
3.87506	92.2673
3.87217	92.2995
3.86928	92.3297
3.86639	92.3037
3.86351	92.2213
3.86064	92.2183
3.85776	92.2866
3.8549	92.2841
3.85203	92.3005
3.84917	92.3849
3.84631	92.3624
3.84346	92.2653
3.84062	92.229
3.83777	92.2022
3.83494	92.2668
3.8321	92.2887
3.82927	92.2804
3.82644	92.2963
3.82362	92.2816
3.82081	92.3015
3.81799	92.3338
3.81518	92.2472
3.81238	92.228
3.80958	92.3026
3.80678	92.2862
3.80399	92.2069
3.8012	92.2045
3.79841	92.2465
3.79563	92.298
3.79286	92.294
3.79008	92.2017
3.78731	92.2009
3.78455	92.236
3.78179	92.1785
3.77903	92.1631
3.77628	92.199
3.77353	92.2258
3.77079	92.2801
3.76805	92.3491
3.76531	92.3346
3.76258	92.3101
3.75985	92.2915
3.75713	92.2322
3.7544	92.2427
3.75169	92.2515
3.74898	92.2512
3.74627	92.2612
3.74356	92.1714
3.74086	92.1573
3.73816	92.2408
3.73547	92.1677
3.73278	92.0749
3.7301	92.1517
3.72741	92.2296
3.72474	92.2187
3.72206	92.2068
3.71939	92.1753
3.71673	92.1935
3.71406	92.1665
3.71141	92.1588
3.70875	92.173
3.7061	92.1676
3.70345	92.1703
3.70081	92.1505
3.69817	92.1046
3.69553	92.0394
3.6929	92.0416
3.69027	92.1292
3.68765	92.1591
3.68503	92.1486
3.68241	92.1069
3.6798	92.0721
3.67719	92.0508
3.67458	92.0298
3.67198	92.0227
3.66938	92.042
3.66678	92.0407
3.66419	92.0662
3.66161	92.0822
3.65902	92.0846
3.65644	92.1219
3.65387	92.0904
3.65129	92.029
3.64872	92.0284
3.64616	92.0483
3.64359	92.0487
3.64103	92.0715
3.63848	92.0838
3.63593	92.0564
3.63338	91.9863
3.63084	91.9955
3.6283	92.0687
3.62576	92.078
3.62322	92.0364
3.62069	91.9869
3.61817	91.9737
3.61564	91.9474
3.61312	91.9226
3.61061	92.0193
3.6081	92.0203
3.60559	91.9956
3.60308	92.0384
3.60058	92.0077
3.59808	91.9456
3.59558	91.8916
3.59309	91.894
3.59061	91.9592
3.58812	91.8805
3.58564	91.8429
3.58316	91.8543
3.58069	91.9067
3.57822	91.9505
3.57575	91.9079
3.57328	91.8667
3.57082	91.8789
3.56836	91.9224
3.56591	91.8766
3.56346	91.7516
3.56101	91.6995
3.55857	91.7709
3.55613	91.8305
3.55369	91.8368
3.55126	91.7957
3.54883	91.7582
3.5464	91.7421
3.54397	91.7226
3.54155	91.7094
3.53914	91.6506
3.53672	91.5785
3.53431	91.6341
3.5319	91.6688
3.5295	91.6284
3.5271	91.572
3.5247	91.5316
3.52231	91.4494
3.51991	91.4161
3.51753	91.39
3.51514	91.3118
3.51276	91.1419
3.51038	91.015
3.50801	91.0096
3.50563	91.0768
3.50327	91.1318
3.5009	91.1996
3.49854	91.1625
3.49618	91.1504
3.49382	91.1742
3.49147	91.1479
3.48912	91.1385
3.48677	91.088
3.48443	91.062
3.48209	91.1246
3.47975	91.0973
3.47742	91.0629
3.47509	91.0988
3.47276	91.1395
3.47044	91.1516
3.46812	91.153
3.4658	91.1098
3.46348	91.1253
3.46117	91.1135
3.45886	91.0531
3.45656	91.0427
3.45425	91.072
3.45195	91.0672
3.44966	90.9709
3.44736	90.9075
3.44507	90.8993
3.44279	90.8454
3.4405	90.8132
3.43822	90.8098
3.43594	90.8188
3.43367	90.7618
3.43139	90.68
3.42912	90.5959
3.42686	90.5318
3.42459	90.4941
3.42233	90.4949
3.42007	90.527
3.41782	90.5579
3.41557	90.5947
3.41332	90.6635
3.41108	90.7034
3.40883	90.6504
3.40659	90.66
3.40435	90.7406
3.40212	90.7514
3.39989	90.707
3.39766	90.6948
3.39544	90.7624
3.39322	90.8344
3.391	90.7905
3.38878	90.7523
3.38657	90.8401
3.38436	90.9756
3.38215	90.9766
3.37994	90.9491
3.37774	90.986
3.37554	90.9837
3.37335	90.9903
3.37115	90.9617
3.36896	90.9156
3.36678	90.9529
3.36459	90.9464
3.36241	90.9885
3.36023	91.0639
3.35805	91.1211
3.35588	91.1663
3.35371	91.2601
3.35154	91.3308
3.34938	91.2352
3.34721	91.2298
3.34505	91.2702
3.3429	91.2318
3.34074	91.1938
3.33859	91.258
3.33644	91.2855
3.3343	91.309
3.33215	91.2793
3.33001	91.2084
3.32788	91.2711
3.32574	91.294
3.32361	91.2233
3.32148	91.2712
3.31936	91.3131
3.31723	91.3016
3.31511	91.2842
3.31299	91.259
3.31088	91.2228
3.30876	91.2358
3.30665	91.2519
3.30455	91.2271
3.30244	91.2469
3.30034	91.2856
3.29824	91.2252
3.29614	91.1847
3.29405	91.18
3.29196	91.1478
3.28987	91.0663
3.28778	91.0581
3.2857	91.0919
3.28362	91.1401
3.28154	91.1528
3.27946	91.2042
3.27739	91.1773
3.27532	91.0384
3.27325	91.1009
3.27119	91.1643
3.26913	91.1259
3.26707	91.0655
3.26501	91.0098
3.26295	91.0739
3.2609	91.0862
3.25885	91.0052
3.2568	91.0498
3.25476	91.1234
3.25272	91.0903
3.25068	90.9869
3.24864	91.0591
3.24661	91.0873
3.24458	91.0167
3.24255	90.898
3.24052	90.9129
3.2385	91.0003
3.23648	90.9412
3.23446	90.8801
3.23244	90.9852
3.23043	91.055
3.22841	90.9366
3.2264	90.8995
3.2244	90.8957
3.22239	90.8712
3.22039	90.9014
3.21839	90.9306
3.2164	90.9787
3.2144	90.9349
3.21241	90.8537
3.21042	90.7898
3.20844	90.7708
3.20645	90.8403
3.20447	90.889
3.20249	90.7974
3.20051	90.7589
3.19854	90.8276
3.19657	90.7542
3.1946	90.7055
3.19263	90.6743
3.19067	90.688
3.1887	90.7374
3.18674	90.6834
3.18479	90.6288
3.18283	90.6594
3.18088	90.7188
3.17893	90.676
3.17698	90.5776
3.17504	90.5387
3.17309	90.5966
3.17115	90.5923
3.16921	90.6163
3.16728	90.6216
3.16534	90.5184
3.16341	90.4765
3.16148	90.5592
3.15956	90.5939
3.15763	90.637
3.15571	90.5754
3.15379	90.4511
3.15187	90.4417
3.14996	90.476
3.14805	90.4669
3.14614	90.4492
3.14423	90.4342
3.14232	90.4301
3.14042	90.3791
3.13852	90.4161
3.13662	90.5103
3.13472	90.4543
3.13283	90.4051
3.13094	90.3448
3.12905	90.3072
3.12716	90.354
3.12528	90.2899
3.12339	90.2363
3.12151	90.2086
3.11964	90.2455
3.11776	90.2734
3.11589	90.2707
3.11401	90.2399
3.11214	90.2571
3.11028	90.2189
3.10841	90.2142
3.10655	90.2108
3.10469	90.2125
3.10283	90.1636
3.10098	90.0742
3.09912	90.0458
3.09727	90.0294
3.09542	89.967
3.09358	90.0003
3.09173	90.1029
3.08989	90.0085
3.08805	89.8663
3.08621	89.978
3.08437	90.1205
3.08254	90.093
3.08071	89.9687
3.07888	89.8867
3.07705	89.9226
3.07523	89.939
3.0734	89.9708
3.07158	89.9949
3.06977	89.9708
3.06795	89.9528
3.06613	89.8899
3.06432	89.8968
3.06251	89.9149
3.0607	89.8211
3.0589	89.8374
3.0571	89.8127
3.05529	89.6683
3.05349	89.6025
3.0517	89.7072
3.0499	89.7994
3.04811	89.8075
3.04632	89.7408
3.04453	89.6886
3.04274	89.7115
3.04096	89.7349
3.03918	89.663
3.0374	89.6958
3.03562	89.6948
3.03384	89.5938
3.03207	89.6374
3.03029	89.6709
3.02852	89.6248
3.02676	89.6692
3.02499	89.7218
3.02323	89.6715
3.02146	89.5302
3.0197	89.5793
3.01795	89.703
3.01619	89.7094
3.01444	89.6356
3.01269	89.5085
3.01094	89.5527
3.00919	89.681
3.00744	89.7209
3.0057	89.6929
3.00396	89.5967
3.00222	89.6087
3.00048	89.6215
2.99875	89.5548
2.99701	89.4914
2.99528	89.4912
2.99355	89.5194
2.99183	89.4656
2.9901	89.4235
2.98838	89.4448
2.98666	89.4247
2.98494	89.4258
2.98322	89.4312
2.9815	89.5311
2.97979	89.6364
2.97808	89.6391
2.97637	89.5557
2.97466	89.585
2.97295	89.5681
2.97125	89.518
2.96955	89.5676
2.96785	89.6219
2.96615	89.627
2.96446	89.5997
2.96276	89.6176
2.96107	89.558
2.95938	89.4762
2.95769	89.4951
2.95601	89.5117
2.95432	89.5667
2.95264	89.5992
2.95096	89.6151
2.94928	89.659
2.9476	89.6093
2.94593	89.5739
2.94425	89.6384
2.94258	89.642
2.94092	89.5662
2.93925	89.5132
2.93758	89.5385
2.93592	89.5578
2.93426	89.5909
2.9326	89.5764
2.93094	89.4631
2.92928	89.5449
2.92763	89.7187
2.92598	89.6273
2.92433	89.5907
2.92268	89.6923
2.92103	89.6706
2.91939	89.6054
2.91775	89.6741
2.9161	89.776
2.91447	89.7184
2.91283	89.6116
2.91119	89.5196
2.90956	89.5442
2.90793	89.6463
2.9063	89.7276
2.90467	89.8006
2.90304	89.757
2.90142	89.6601
2.89979	89.6662
2.89817	89.7273
2.89656	89.7333
2.89494	89.6608
2.89332	89.7618
2.89171	89.8333
2.8901	89.7309
2.88849	89.6505
2.88688	89.7695
2.88527	89.8462
2.88367	89.8516
2.88206	89.8606
2.88046	89.906
2.87886	89.9378
2.87727	89.9433
2.87567	90.0063
2.87408	90.0272
2.87248	89.9578
2.87089	89.9317
2.8693	89.8777
2.86772	89.8021
2.86613	89.8361
2.86455	89.8887
2.86297	89.9748
2.86139	90.0612
2.85981	90.0258
2.85823	90.06
2.85666	90.0848
2.85508	90.0949
2.85351	90.1309
2.85194	90.1204
2.85038	90.0316
2.84881	89.9835
2.84724	90.0036
2.84568	90.0282
2.84412	90.0149
2.84256	90.0946
2.841	90.0961
2.83945	90.1149
2.83789	90.3107
2.83634	90.3141
2.83479	90.2659
2.83324	90.3846
2.83169	90.2496
2.83015	90.0708
2.82861	90.1043
2.82706	90.2025
2.82552	90.1823
2.82398	90.0484
2.82245	90.0916
2.82091	90.2362
2.81938	90.2495
2.81784	90.2302
2.81631	90.2501
2.81479	90.2341
2.81326	90.1828
2.81173	90.1963
2.81021	90.2019
2.80869	90.117
2.80716	90.0961
2.80565	90.126
2.80413	90.359
2.80261	90.4202
2.8011	90.366
2.79959	90.3383
2.79808	90.3249
2.79657	90.3839
2.79506	90.3986
2.79355	90.2852
2.79205	90.2696
2.79055	90.2391
2.78904	90.3085
2.78754	90.3709
2.78605	90.2438
2.78455	90.0647
2.78306	90.0802
2.78156	90.0746
2.78007	90.2881
2.77858	90.4239
2.77709	90.0709
2.77561	89.9537
2.77412	90.2949
2.77264	90.2245
2.77116	90.1664
2.76968	90.239
2.7682	90.359
2.76672	90.2913
2.76524	90.1644
2.76377	90.2145
2.7623	89.9086
2.76083	89.6604
2.75936	89.7499
2.75789	90.0576
2.75642	90.6002
2.75496	90.826
2.7535	90.3599
2.75203	90.2036
2.75057	90.242
2.74912	90.3079
2.74766	90.3341
2.7462	90.3817
2.74475	90.3903
2.7433	90.5484
2.74185	90.8797
2.7404	91.1089
2.73895	91.0566
2.7375	90.6558
2.73606	90.6966
2.73462	90.9374
2.73318	90.7799
2.73174	90.5785
2.7303	90.6317
2.72886	90.8421
2.72742	90.9735
2.72599	91.2104
2.72456	91.5575
2.72313	91.4201
2.7217	91.4729
2.72027	91.7189
2.71884	91.3344
2.71742	91.1914
2.71599	91.204
2.71457	91.1961
2.71315	91.2382
2.71173	91.6252
2.71032	91.6518
2.7089	91.3288
2.70748	91.0658
2.70607	90.9833
2.70466	91.0885
2.70325	91.2002
2.70184	91.4363
2.70043	91.4598
2.69903	91.4632
2.69762	91.6872
2.69622	92.0042
2.69482	92.2477
2.69342	92.1465
2.69202	91.8512
2.69062	91.9316
2.68923	91.9952
2.68783	92.0541
2.68644	92.2273
2.68505	92.2969
2.68366	92.391
2.68227	92.3381
2.68089	92.3563
2.6795	92.5285
2.67812	92.5317
2.67673	92.6884
2.67535	92.5329
2.67397	92.2504
2.6726	92.3272
2.67122	92.9907
2.66984	93.0775
2.66847	92.6244
2.6671	92.9955
2.66572	93.201
2.66435	92.8484
2.66299	92.3823
2.66162	92.4709
2.66025	92.4956
2.65889	92.373
2.65753	92.1878
2.65616	92.1931
2.65481	92.1858
2.65345	92.3279
2.65209	92.4084
2.65073	92.2997
2.64938	92.2596
2.64803	92.2826
2.64667	92.3319
2.64532	92.4304
2.64397	92.3034
2.64263	92.2729
2.64128	92.1981
2.63994	92.1593
2.63859	92.2202
2.63725	92.3567
2.63591	92.3312
2.63457	92.3774
2.63323	92.449
2.6319	92.6993
2.63056	93.036
2.62923	92.7239
2.62789	92.5249
2.62656	92.7006
2.62523	92.4365
2.6239	92.2965
2.62258	92.3225
2.62125	92.6241
2.61993	92.7318
2.6186	92.4817
2.61728	92.6675
2.61596	92.6238
2.61464	92.3728
2.61332	92.4435
2.61201	92.3475
2.61069	92.272
2.60938	92.3534
2.60807	92.4891
2.60675	92.7774
2.60544	92.9036
2.60414	92.6703
2.60283	92.5595
2.60152	92.418
2.60022	92.3231
2.59891	92.1502
2.59761	92.2879
2.59631	92.848
2.59501	93.4689
2.59371	93.0662
2.59242	92.3804
2.59112	92.2484
2.58983	92.3693
2.58853	92.4501
2.58724	92.5303
2.58595	92.4162
2.58466	92.6324
2.58338	92.6553
2.58209	92.4434
2.5808	92.4015
2.57952	92.281
2.57824	92.28
2.57695	92.4059
2.57567	92.404
2.5744	92.5218
2.57312	92.5206
2.57184	92.1957
2.57057	92.2398
2.56929	92.2978
2.56802	92.2016
2.56675	92.1754
2.56548	92.396
2.56421	92.5545
2.56294	92.5294
2.56168	92.5709
2.56041	92.5512
2.55915	92.3564
2.55789	92.1724
2.55662	92.0714
2.55536	92.0602
2.5541	92.1966
2.55285	92.2226
2.55159	92.2224
2.55034	92.2266
2.54908	92.2007
2.54783	92.2669
2.54658	92.227
2.54533	92.2022
2.54408	92.2986
2.54283	92.2908
2.54159	92.2537
2.54034	92.1535
2.5391	92.0714
2.53785	92.1204
2.53661	92.1385
2.53537	92.1309
2.53413	92.1353
2.53289	92.2464
2.53166	92.3892
2.53042	92.3554
2.52919	92.2151
2.52795	92.1583
2.52672	92.0963
2.52549	92.1309
2.52426	92.1453
2.52303	92.161
2.52181	92.0871
2.52058	91.9722
2.51936	92.0589
2.51813	92.1647
2.51691	92.1471
2.51569	92.05
2.51447	92.1383
2.51325	92.1811
2.51203	92.0878
2.51082	92.0696
2.5096	92.0985
2.50839	92.123
2.50717	92.1168
2.50596	92.1851
2.50475	92.2138
2.50354	92.1141
2.50233	91.9896
2.50113	92.0454
2.49992	92.0848
2.49872	91.9968
2.49751	92.0134
2.49631	91.9846
2.49511	91.9575
2.49391	91.994
2.49271	92.0408
2.49151	92.0501
2.49031	92.0737
2.48912	92.1075
2.48792	92.1191
2.48673	92.0225
2.48554	91.9881
2.48435	92.0144
2.48316	91.9823
2.48197	92.0183
2.48078	92.0881
2.4796	92.1004
2.47841	92.1477
2.47723	92.1829
2.47604	92.1113
2.47486	92.1383
2.47368	92.1201
2.4725	91.9945
2.47132	91.9363
2.47014	92.0147
2.46897	92.0736
2.46779	92.0913
2.46662	92.0375
2.46545	92.0185
2.46427	91.9847
2.4631	91.9201
2.46193	92.0051
2.46077	92.0657
2.4596	92.0751
2.45843	92.0975
2.45727	92.0805
2.4561	92.1145
2.45494	92.0814
2.45378	92.1596
2.45262	92.1696
2.45146	92.1678
2.4503	92.1482
2.44914	92.0757
2.44799	92.0547
2.44683	92.0211
2.44568	92.0016
2.44452	91.9838
2.44337	91.9718
2.44222	92.0549
2.44107	92.0821
2.43992	92.0783
2.43877	92.0899
2.43763	92.2419
2.43648	92.3367
2.43534	92.099
2.43419	91.9466
2.43305	92.0319
2.43191	92.1045
2.43077	92.0602
2.42963	92.0223
2.42849	92.0146
2.42736	92.1655
2.42622	92.2152
2.42509	92.0794
2.42395	92.0435
2.42282	91.9231
2.42169	91.9098
2.42056	92.0059
2.41943	92.1041
2.4183	92.2247
2.41717	92.206
2.41605	92.1645
2.41492	92.1265
2.4138	92.1457
2.41267	92.1384
2.41155	92.1504
2.41043	92.1703
2.40931	92.1636
2.40819	92.0794
2.40707	92.0551
2.40595	92.099
2.40484	92.0712
2.40372	92.004
2.40261	91.9824
2.4015	91.9738
2.40039	92.0556
2.39928	92.0211
2.39817	91.9767
2.39706	91.9486
2.39595	91.9469
2.39484	92.0759
2.39374	92.1904
2.39263	92.1341
2.39153	91.9327
2.39043	91.9369
2.38932	92.0177
2.38822	92.0258
2.38712	92.0263
2.38603	92.0312
2.38493	92.0662
2.38383	92.0234
2.38274	91.8875
2.38164	91.8474
2.38055	91.9313
2.37946	91.9881
2.37836	92.0113
2.37727	92.0046
2.37618	91.984
2.3751	92.0069
2.37401	92.0333
2.37292	92.0331
2.37184	91.9726
2.37075	91.985
2.36967	92.1435
2.36859	92.1333
2.3675	92.0997
2.36642	91.9591
2.36534	91.9925
2.36427	92.0705
2.36319	92.0278
2.36211	91.9873
2.36104	92.0572
2.35996	92.029
2.35889	91.951
2.35781	91.9331
2.35674	92.0769
2.35567	92.1446
2.3546	92.0328
2.35353	91.9824
2.35247	92.0705
2.3514	92.0799
2.35033	92.1045
2.34927	92.0501
2.3482	91.9323
2.34714	91.9444
2.34608	91.9362
2.34502	91.8717
2.34396	91.9315
2.3429	91.9602
2.34184	91.8745
2.34078	91.8332
2.33973	91.8899
2.33867	92.0487
2.33762	92.1636
2.33656	92.0997
2.33551	92.0179
2.33446	91.9576
2.33341	91.9698
2.33236	92.0169
2.33131	92.0595
2.33026	92.1331
2.32922	92.0779
2.32817	91.9708
2.32712	91.8255
2.32608	91.8601
2.32504	92.0829
2.324	92.0396
2.32295	92.0227
2.32191	92.0089
2.32087	91.9192
2.31984	91.8968
2.3188	91.9192
2.31776	91.9095
2.31673	91.9577
2.31569	91.9646
2.31466	91.8895
2.31362	91.8458
2.31259	91.9608
2.31156	92.0744
2.31053	92.0094
2.3095	91.8754
2.30847	91.8688
2.30745	91.9153
2.30642	91.8756
2.3054	91.9509
2.30437	92.0475
2.30335	91.9533
2.30232	91.7103
2.3013	91.7854
2.30028	91.8577
2.29926	91.8057
2.29824	91.927
2.29722	91.9739
2.29621	91.9797
2.29519	92.0268
2.29417	92.0447
2.29316	92.0673
2.29215	92.0292
2.29113	91.7335
2.29012	91.7016
2.28911	91.8994
2.2881	91.9887
2.28709	91.8761
2.28608	91.9323
2.28507	91.9125
2.28407	91.8528
2.28306	92.0401
2.28206	92.0703
2.28105	91.8768
2.28005	91.8183
2.27905	92.0004
2.27805	91.9174
2.27705	91.7663
2.27605	91.8824
2.27505	91.9814
2.27405	91.9597
2.27305	92.0031
2.27206	91.9784
2.27106	91.8716
2.27007	91.9528
2.26907	91.9899
2.26808	91.9088
2.26709	91.933
2.2661	91.9455
2.26511	91.9107
2.26412	91.9283
2.26313	91.811
2.26214	91.7729
2.26116	91.8176
2.26017	91.9476
2.25919	92.0418
2.2582	91.9375
2.25722	91.8661
2.25624	91.8057
2.25526	91.8877
2.25428	91.9268
2.2533	91.9268
2.25232	92.0254
2.25134	91.9697
2.25036	91.8483
2.24939	91.8893
2.24841	91.9418
2.24744	91.8507
2.24646	91.8335
2.24549	91.9292
2.24452	92.0158
2.24355	92.0151
2.24257	91.9536
2.24161	91.8777
2.24064	91.8646
2.23967	92.0327
2.2387	91.9944
2.23774	91.9414
2.23677	91.9559
2.23581	91.913
2.23484	91.8478
2.23388	91.801
2.23292	91.8156
2.23196	91.8982
2.231	91.9368
2.23004	91.9133
2.22908	91.9539
2.22812	91.931
2.22716	91.8635
2.22621	91.8248
2.22525	91.8764
2.2243	91.8934
2.22334	92.0138
2.22239	92.0976
2.22144	92.1345
2.22049	92.1683
2.21953	91.9902
2.21859	91.8181
2.21764	91.9317
2.21669	92.0692
2.21574	92.0203
2.21479	91.8968
2.21385	91.8975
2.2129	91.9151
2.21196	92.0082
2.21102	91.9856
2.21007	91.8964
2.20913	91.8203
2.20819	91.8898
2.20725	91.9869
2.20631	91.9304
2.20537	91.7649
2.20444	91.7497
2.2035	91.7864
2.20256	91.9394
2.20163	92.0228
2.20069	92.0306
2.19976	91.9548
2.19883	91.9052
2.19789	91.8709
2.19696	91.7769
2.19603	91.9121
2.1951	91.9581
2.19417	92.0067
2.19325	92.0082
2.19232	91.8814
2.19139	91.8803
2.19047	91.9708
2.18954	91.9135
2.18862	91.8535
2.18769	91.828
2.18677	91.8557
2.18585	91.8655
2.18493	91.6865
2.18401	91.7354
2.18309	91.9113
2.18217	91.9264
2.18125	91.8542
2.18033	91.8134
2.17942	91.7816
2.1785	91.75
2.17759	91.7674
2.17667	91.8399
2.17576	91.909
2.17485	91.9307
2.17393	91.8821
2.17302	91.8425
2.17211	91.9001
2.1712	91.9437
2.17029	91.815
2.16939	91.7126
2.16848	91.9069
2.16757	91.9045
2.16667	91.8377
2.16576	91.8458
2.16486	91.9133
2.16395	91.9119
2.16305	91.7964
2.16215	91.8022
2.16125	91.9334
2.16035	91.9583
2.15945	91.92
2.15855	91.8609
2.15765	91.8984
2.15675	91.8955
2.15586	91.9211
2.15496	91.8034
2.15406	91.6565
2.15317	91.6447
2.15228	91.6641
2.15138	91.8401
2.15049	91.852
2.1496	91.8615
2.14871	91.8474
2.14782	91.7552
2.14693	91.8677
2.14604	91.9251
2.14515	91.7579
2.14427	92.0103
2.14338	92.2033
2.14249	92.0943
2.14161	91.9019
2.14072	91.8614
2.13984	91.8429
2.13896	91.6909
2.13808	91.6489
2.13719	91.7114
2.13631	91.8023
2.13543	91.9625
2.13455	91.7946
2.13368	91.9591
2.1328	92.1462
2.13192	91.9732
2.13105	91.8415
2.13017	91.8666
2.1293	91.7643
2.12842	91.6189
2.12755	91.6897
2.12668	91.7068
2.1258	91.6102
2.12493	91.5712
2.12406	91.5426
2.12319	91.5695
2.12232	91.6762
2.12145	91.7635
2.12059	91.9067
2.11972	91.8584
2.11885	91.8807
2.11799	91.7769
2.11712	91.7953
2.11626	92.1393
2.1154	91.9921
2.11453	91.7941
2.11367	91.777
2.11281	91.7248
2.11195	91.6916
2.11109	91.7321
2.11023	91.6544
2.10937	91.8207
2.10851	91.9145
2.10766	91.8073
2.1068	91.7493
2.10594	91.7342
2.10509	91.8568
2.10423	91.9276
2.10338	91.8085
2.10253	91.8306
2.10168	91.7873
2.10082	91.8283
2.09997	91.8765
2.09912	91.7773
2.09827	91.7044
2.09742	91.8067
2.09658	91.7471
2.09573	91.6985
2.09488	91.717
2.09404	91.7382
2.09319	91.7285
2.09235	91.7288
2.0915	91.6505
2.09066	91.5759
2.08982	91.6844
2.08897	91.8711
2.08813	92.1074
2.08729	92.1582
2.08645	92.0172
2.08561	91.8032
2.08477	91.6347
2.08394	91.5213
2.0831	91.5103
2.08226	91.6709
2.08143	91.9281
2.08059	92.0165
2.07976	91.9718
2.07892	91.8469
2.07809	91.612
2.07726	91.4721
2.07643	91.6041
2.07559	91.8963
2.07476	91.804
2.07393	91.7724
2.0731	91.8601
2.07228	91.8504
2.07145	91.6704
2.07062	91.5964
2.06979	91.6236
2.06897	91.6038
2.06814	91.8479
2.06732	91.9879
2.06649	91.7504
2.06567	91.6038
2.06485	91.7219
2.06403	91.7472
2.0632	91.4867
2.06238	91.472
2.06156	91.6233
2.06074	91.7872
2.05993	91.8541
2.05911	91.7205
2.05829	91.6815
2.05747	91.8524
2.05666	91.798
2.05584	91.8004
2.05503	91.8009
2.05421	91.7395
2.0534	91.6726
2.05259	91.6969
2.05177	91.8227
2.05096	91.7075
2.05015	91.5206
2.04934	91.4372
2.04853	91.553
2.04772	91.7058
2.04691	91.7089
2.04611	91.8404
2.0453	92.0639
2.04449	92.1714
2.04369	91.9904
2.04288	91.6486
2.04208	91.5161
2.04127	91.6675
2.04047	91.7016
2.03967	91.8721
2.03886	91.9835
2.03806	91.747
2.03726	91.6681
2.03646	91.6839
2.03566	91.526
2.03486	91.6731
2.03407	91.8099
2.03327	91.842
2.03247	91.7609
2.03167	91.6422
2.03088	91.5808
2.03008	91.4374
2.02929	91.656
2.0285	91.7753
2.0277	91.6288
2.02691	91.5669
2.02612	91.5485
2.02533	91.6058
2.02453	91.7483
2.02374	91.7091
2.02295	91.5651
2.02217	91.5742
2.02138	91.7429
2.02059	91.9643
2.0198	91.9871
2.01902	91.7844
2.01823	91.4652
2.01744	91.4802
2.01666	91.6354
2.01588	91.6916
2.01509	91.855
2.01431	91.8418
2.01353	91.6798
2.01275	91.7199
2.01196	91.6822
2.01118	91.5531
2.0104	91.5849
2.00963	91.8019
2.00885	91.8647
2.00807	91.6495
2.00729	91.5019
2.00651	91.5641
2.00574	91.8293
2.00496	91.9454
2.00419	91.8248
2.00341	91.6117
2.00264	91.6379
2.00187	91.7778
2.00109	91.7207
2.00032	91.7232
