Name: Apatite Ca_5(PO_4)_3F
Type: Mineral
Class: Phosphates
Subclass: 
Particle Size: 0-45um
Sample No.: P-1A
Owner: JPL
Wavelength range: IR
Origin: Canada, Ontario, Lanark County, Perth
Collected by Ward's
Description: 





Measurement: Hemispherical reflectance
First Column: X
Second Column: Y
X Units:  Wavelength (micrometers)
Y Units:  Reflectance (percent)
First X Value: 15.3853
Last X Value: 2.00032
Number of X Values: 2256
Additional information: p01aa.txt
 
15.3853	3.84544
15.3397	3.92757
15.2945	4.09005
15.2495	4.52044
15.2048	4.7515
15.1603	5.13819
15.1161	5.43246
15.0722	5.51481
15.0285	5.82535
14.9851	6.14731
14.9419	6.2214
14.8989	6.17918
14.8563	6.33964
14.8138	6.44676
14.7716	6.61158
14.7296	6.96115
14.6879	7.23322
14.6464	7.25415
14.6052	7.35055
14.5641	7.69289
14.5233	8.09558
14.4828	8.51888
14.4424	8.95612
14.4023	9.08391
14.3624	9.33711
14.3227	9.82765
14.2833	9.99349
14.244	10.1936
14.205	10.3803
14.1662	10.1777
14.1276	9.94755
14.0892	9.33901
14.051	8.42473
14.0131	8.20172
13.9753	8.61455
13.9377	9.05433
13.9004	9.25253
13.8632	9.29839
13.8262	9.29175
13.7895	9.31118
13.7529	9.22954
13.7165	9.03021
13.6803	8.78489
13.6443	8.5231
13.6085	8.09361
13.5729	7.68788
13.5374	7.20685
13.5022	6.81856
13.4671	6.63639
13.4322	6.50833
13.3975	6.40192
13.363	6.45614
13.3286	6.69443
13.2944	7.28946
13.2604	7.89862
13.2266	8.69797
13.193	9.74667
13.1595	10.786
13.1262	11.837
13.093	12.7883
13.06	13.698
13.0272	14.6307
12.9946	15.4084
12.9621	15.9121
12.9298	16.3069
12.8976	16.5667
12.8656	16.9233
12.8337	17.3094
12.8021	17.4584
12.7705	17.4407
12.7391	17.6421
12.7079	17.8889
12.6769	17.8811
12.6459	17.9033
12.6152	18.0466
12.5845	18.2331
12.5541	18.4685
12.5238	18.5796
12.4936	18.721
12.4635	18.9403
12.4337	19.1991
12.4039	19.4584
12.3743	19.7406
12.3448	20.1651
12.3155	20.468
12.2863	20.6425
12.2573	20.7985
12.2284	20.9921
12.1996	21.171
12.171	21.2784
12.1425	21.3421
12.1141	21.3981
12.0859	21.5849
12.0578	21.5557
12.0298	21.5967
12.0019	21.6928
11.9742	21.651
11.9466	21.4727
11.9192	21.4236
11.8918	21.2108
11.8646	20.9438
11.8375	20.4832
11.8106	19.3308
11.7837	18.6336
11.757	18.924
11.7304	19.0433
11.7039	18.9498
11.6776	18.8517
11.6513	18.6673
11.6252	18.3504
11.5992	17.6578
11.5733	16.3932
11.5475	15.7246
11.5219	15.6358
11.4963	15.0079
11.4709	14.2026
11.4455	13.623
11.4203	13.6261
11.3952	13.8063
11.3702	14.131
11.3454	14.5254
11.3206	15.079
11.2959	16.0058
11.2714	16.7702
11.2469	17.0492
11.2226	17.1025
11.1983	17.2093
11.1742	17.2051
11.1502	17.2656
11.1263	17.3453
11.1024	17.3479
11.0787	17.3639
11.0551	17.3214
11.0316	17.1638
11.0081	17.0807
10.9848	16.8666
10.9616	16.6242
10.9385	16.4066
10.9154	16.0821
10.8925	15.8242
10.8697	15.5551
10.8469	15.1085
10.8243	14.6009
10.8017	14.1352
10.7793	13.8023
10.7569	13.5982
10.7346	13.4192
10.7125	13.3735
10.6904	13.2807
10.6684	13.1373
10.6465	13.1042
10.6247	13.0855
10.6029	12.9338
10.5813	12.4699
10.5597	11.9569
10.5383	11.5453
10.5169	11.4255
10.4956	11.1775
10.4744	10.5461
10.4533	9.84788
10.4323	8.8621
10.4113	7.66029
10.3904	6.53063
10.3697	5.64834
10.349	5.53371
10.3284	6.49197
10.3078	7.94745
10.2874	9.31666
10.267	10.3823
10.2467	11.0071
10.2265	11.2001
10.2064	11.2147
10.1863	11.1524
10.1663	11.1488
10.1464	11.2192
10.1266	11.0635
10.1069	10.7767
10.0872	10.615
10.0676	10.373
10.0481	10.0318
10.0287	9.80248
10.0093	9.69288
9.99005	9.57975
9.97084	9.31129
9.95169	9.09949
9.93263	9.05512
9.91364	8.98196
9.89472	8.86675
9.87587	8.77226
9.8571	8.85603
9.83839	8.93466
9.81976	9.08828
9.80119	9.39423
9.78271	9.76572
9.76428	10.2678
9.74592	10.9703
9.72764	11.8778
9.70943	13.1247
9.69128	14.414
9.6732	15.5592
9.65518	16.6416
9.63724	17.5738
9.61935	18.1013
9.60155	18.2099
9.5838	18.1176
9.56611	17.9894
9.5485	18.0047
9.53094	17.8882
9.51345	17.7488
9.49604	17.7486
9.47867	17.745
9.46137	17.8332
9.44414	17.79
9.42697	17.6487
9.40986	17.7253
9.39281	17.9108
9.37583	18.0397
9.35891	17.9088
9.34204	17.7173
9.32524	17.4503
9.3085	17.0837
9.29182	16.5314
9.27519	15.6421
9.25863	14.0949
9.24213	11.836
9.22568	9.67053
9.2093	9.16819
9.19297	10.4051
9.17669	12.1819
9.16048	13.9787
9.14433	15.397
9.12823	16.3436
9.11218	17.0905
9.0962	17.4803
9.08027	17.6802
9.06439	17.8858
9.04858	18.0626
9.03281	18.2052
9.0171	18.3834
9.00145	18.7656
8.98585	19.1597
8.9703	19.6409
8.9548	20.2277
8.93937	20.5905
8.92398	20.4906
8.90865	20.1261
8.89337	19.5344
8.87814	18.7717
8.86296	18.0702
8.84784	17.277
8.83277	16.1771
8.81774	14.8661
8.80277	13.3786
8.78786	12.0138
8.77298	10.8159
8.75816	9.78882
8.7434	8.79181
8.72868	7.88939
8.714	7.20305
8.69938	6.70912
8.68481	6.40431
8.67029	5.87699
8.65581	5.20586
8.64139	4.82945
8.62701	4.51617
8.61268	4.44456
8.5984	4.33355
8.58416	4.20304
8.56997	4.17098
8.55583	4.0789
8.54174	4.06086
8.52769	4.11591
8.51368	4.02657
8.49973	3.7949
8.48582	3.68705
8.47195	3.83502
8.45813	3.96423
8.44436	4.06951
8.43062	4.19605
8.41693	4.32507
8.4033	4.44605
8.3897	4.48383
8.37614	4.48414
8.36264	4.63461
8.34917	4.84031
8.33574	5.02216
8.32236	5.16129
8.30903	5.32277
8.29573	5.57578
8.28248	5.68109
8.26927	5.738
8.2561	5.8947
8.24298	6.05881
8.2299	6.15148
8.21685	6.17688
8.20385	6.55759
8.19089	7.01378
8.17797	7.12879
8.16509	7.21282
8.15225	7.44731
8.13946	7.7378
8.1267	7.99269
8.11398	8.12152
8.10131	8.25134
8.08867	8.39113
8.07606	8.52122
8.0635	8.65568
8.05099	8.78841
8.0385	9.00831
8.02606	9.29415
8.01366	9.47903
8.00129	9.67677
7.98896	9.82453
7.97667	10.0556
7.96442	10.2778
7.9522	10.5064
7.94002	10.7256
7.92788	10.9003
7.91578	11.1351
7.90371	11.4401
7.89168	11.6772
7.87969	11.935
7.86773	12.2215
7.85581	12.4547
7.84392	12.7277
7.83207	13.0455
7.82026	13.3342
7.80849	13.549
7.79674	13.7932
7.78503	14.1372
7.77337	14.4793
7.76173	14.8199
7.75012	15.0539
7.73856	15.2515
7.72703	15.5125
7.71553	15.8317
7.70406	15.9564
7.69263	16.1075
7.68123	16.3098
7.66987	16.4647
7.65855	16.5679
7.64725	16.6377
7.63598	16.7113
7.62475	16.8047
7.61356	16.8769
7.60239	17.0335
7.59126	17.1601
7.58017	17.3791
7.5691	17.5983
7.55806	17.7379
7.54707	17.9029
7.5361	18.0289
7.52516	18.1525
7.51425	18.2955
7.50338	18.5287
7.49253	18.7094
7.48172	18.8218
7.47094	18.9158
7.46019	18.9576
7.44947	18.9605
7.43879	18.9323
7.42813	18.9216
7.4175	19.0057
7.4069	19.0306
7.39634	19.0798
7.3858	19.0996
7.37529	19.0756
7.36482	19.0734
7.35437	19.0082
7.34396	18.9181
7.33357	18.6961
7.32321	18.4127
7.31288	18.2986
7.30258	18.1095
7.29231	17.7964
7.28207	17.6148
7.27185	17.5093
7.26167	17.3156
7.25152	17.0466
7.24139	16.8086
7.23129	16.6173
7.22122	16.4084
7.21117	16.2375
7.20116	15.9313
7.19117	15.552
7.18121	15.2675
7.17128	15.0908
7.16137	14.8818
7.1515	14.5976
7.14164	14.1735
7.13182	13.7968
7.12203	13.6381
7.11225	13.464
7.10251	13.2505
7.0928	12.9195
7.08311	12.5789
7.07344	12.2693
7.06381	11.9668
7.0542	11.7503
7.04461	11.4286
7.03506	10.801
7.02552	10.2738
7.01601	9.82913
7.00653	9.7866
6.99708	10.1087
6.98765	10.6243
6.97824	11.363
6.96886	12.1924
6.95951	12.7863
6.95018	12.8743
6.94087	12.791
6.9316	12.549
6.92234	12.0216
6.91311	11.3185
6.90391	10.496
6.89473	9.61239
6.88557	8.97715
6.87644	9.05334
6.86733	9.92978
6.85824	10.419
6.84918	10.4051
6.84015	10.6566
6.83114	11.0984
6.82215	11.4719
6.81319	11.7767
6.80424	12.282
6.79532	12.9421
6.78643	13.3632
6.77756	13.5699
6.76871	13.9126
6.75989	14.1786
6.75109	14.5308
6.74231	14.8122
6.73355	15.2948
6.72482	15.8456
6.71611	16.3334
6.70742	16.6445
6.69875	16.7638
6.69011	17.1332
6.68149	17.7089
6.67289	18.033
6.66431	18.2899
6.65576	18.6079
6.64722	19.4858
6.63871	20.7185
6.63022	21.0502
6.62175	21.0996
6.61331	21.5631
6.60488	22.1184
6.59648	23.0496
6.5881	23.773
6.57974	24.4756
6.5714	25.2977
6.56308	25.4133
6.55478	25.6851
6.54651	25.9899
6.53825	26.1783
6.53001	26.5614
6.5218	27.278
6.51361	27.4402
6.50544	27.9883
6.49729	29.4893
6.48915	29.9397
6.48104	29.481
6.47295	29.3775
6.46488	29.4053
6.45683	29.853
6.4488	30.5733
6.44079	31.2411
6.4328	32.0802
6.42482	33.0154
6.41687	34.7294
6.40894	34.5195
6.40103	33.1313
6.39314	33.036
6.38526	33.2721
6.37741	33.6335
6.36957	34.002
6.36176	33.5084
6.35396	33.3915
6.34618	33.8852
6.33843	33.4687
6.33069	33.1067
6.32297	33.5765
6.31527	34.0672
6.30758	34.536
6.29992	34.9544
6.29227	35.4549
6.28465	35.9751
6.27704	36.472
6.26945	36.7748
6.26188	36.9688
6.25432	37.1212
6.24679	37.2891
6.23927	37.2409
6.23177	37.1638
6.22429	37.1432
6.21683	37.1987
6.20938	37.1168
6.20195	37.0294
6.19454	37.4424
6.18715	38.4095
6.17978	38.2278
6.17242	37.9181
6.16508	38.4732
6.15776	38.8449
6.15045	38.8203
6.14317	39.1091
6.1359	39.2267
6.12864	39.2847
6.12141	39.997
6.11419	40.9974
6.10699	40.4803
6.0998	39.8122
6.09263	39.735
6.08549	40.0188
6.07835	40.8502
6.07123	41.4081
6.06413	41.1369
6.05705	42.0323
6.04998	44.1083
6.04293	43.3242
6.0359	42.1762
6.02888	42.3637
6.02187	42.9613
6.01489	43.722
6.00792	43.873
6.00096	44.1621
5.99403	45.1951
5.98711	45.7292
5.9802	45.6129
5.97331	46.2272
5.96644	46.7193
5.95958	46.4364
5.95274	46.8227
5.94591	47.693
5.9391	49.2537
5.9323	48.9851
5.92552	47.9673
5.91876	47.9521
5.91201	48.033
5.90528	48.5251
5.89856	49.8168
5.89186	49.8875
5.88517	50.6144
5.8785	51.2219
5.87184	50.1809
5.8652	50.5535
5.85857	50.8186
5.85196	50.8231
5.84536	50.9035
5.83878	51.3246
5.83221	52.1065
5.82566	53.1612
5.81912	53.2199
5.81259	52.0868
5.80608	51.7367
5.79959	51.802
5.79311	51.7051
5.78665	51.8597
5.78019	52.2212
5.77376	53.0544
5.76734	54.3078
5.76093	53.6215
5.75453	53.0827
5.74815	53.7122
5.74179	53.725
5.73543	53.8546
5.7291	54.0874
5.72277	54.5453
5.71646	55.0198
5.71017	55.205
5.70389	54.674
5.69762	54.5304
5.69136	54.6922
5.68513	54.6412
5.6789	55.3075
5.67268	55.7646
5.66648	55.6394
5.6603	56.1421
5.65413	56.5915
5.64797	56.8676
5.64182	57.1291
5.63569	56.2377
5.62957	55.3653
5.62347	54.7236
5.61737	53.9913
5.61129	52.7762
5.60522	51.2128
5.59917	48.9752
5.59313	45.7746
5.5871	42.02
5.58109	38.9565
5.57509	37.3775
5.5691	36.9739
5.56312	37.2018
5.55716	38.8248
5.55121	42.4114
5.54528	46.6851
5.53935	50.3604
5.53344	53.0321
5.52754	54.9641
5.52166	56.2383
5.51578	57.0639
5.50992	57.7203
5.50407	58.4482
5.49823	58.9062
5.49241	59.3867
5.4866	59.9109
5.4808	60.6336
5.47501	60.9436
5.46923	61.3741
5.46347	61.8464
5.45772	61.7337
5.45198	61.7227
5.44625	61.9855
5.44054	62.1573
5.43484	62.2252
5.42914	62.5054
5.42347	63.0593
5.4178	62.6709
5.41214	62.1152
5.4065	61.8156
5.40087	61.4656
5.39525	61.0802
5.38964	60.7408
5.38404	60.4644
5.37846	60.2407
5.37288	60.0453
5.36732	59.7649
5.36177	59.6424
5.35623	59.8751
5.35071	60.0784
5.34519	59.7988
5.33968	59.61
5.33419	59.6391
5.32871	59.6377
5.32324	59.7517
5.31778	59.8413
5.31233	59.9258
5.30689	59.95
5.30147	59.9395
5.29605	60.0976
5.29065	60.2748
5.28525	60.2103
5.27987	60.3681
5.2745	60.572
5.26914	60.6501
5.26379	60.6995
5.25845	60.8478
5.25312	61.0225
5.24781	61.142
5.2425	61.2472
5.23721	61.3682
5.23192	61.2985
5.22665	61.1637
5.22138	61.0832
5.21613	61.135
5.21089	60.8059
5.20566	60.0675
5.20044	59.1765
5.19522	57.9176
5.19002	56.8624
5.18483	56.7166
5.17965	57.4477
5.17448	58.3994
5.16933	59.2007
5.16418	59.8062
5.15904	60.1418
5.15391	60.413
5.14879	60.6284
5.14368	60.4035
5.13859	60.0684
5.1335	59.7927
5.12842	59.4984
5.12335	59.1366
5.1183	58.6485
5.11325	58.0162
5.10821	57.2388
5.10318	56.3937
5.09817	55.5454
5.09316	54.7584
5.08816	53.8601
5.08317	52.8987
5.07819	51.694
5.07322	50.2889
5.06826	48.6151
5.06331	46.6509
5.05837	44.2192
5.05344	41.4032
5.04852	38.1623
5.04361	34.3794
5.03871	30.1961
5.03382	26.1055
5.02894	22.4958
5.02406	19.9405
5.0192	18.6801
5.01435	18.2978
5.0095	18.6705
5.00467	19.3939
4.99984	19.9239
4.99502	20.0355
4.99021	19.6435
4.98542	19.1026
4.98063	18.7719
4.97585	19.1689
4.97108	20.2998
4.96632	21.8006
4.96156	23.3236
4.95682	24.6745
4.95209	25.77
4.94736	26.846
4.94264	27.768
4.93794	28.4395
4.93324	28.9672
4.92855	29.5184
4.92387	30.18
4.9192	30.8027
4.91453	31.2798
4.90988	31.6364
4.90524	31.9371
4.9006	32.1192
4.89597	31.9882
4.89135	31.4425
4.88674	30.6605
4.88214	29.8215
4.87755	29.0397
4.87296	28.7019
4.86839	29.0426
4.86382	29.9432
4.85926	30.8461
4.85471	31.1401
4.85017	30.7859
4.84564	30.1195
4.84111	29.2479
4.8366	28.3808
4.83209	27.6774
4.82759	27.0586
4.8231	26.314
4.81862	25.4225
4.81415	24.4142
4.80968	23.6324
4.80522	23.4497
4.80077	23.8303
4.79633	24.4263
4.7919	25.0526
4.78747	25.7677
4.78306	26.6114
4.77865	27.4571
4.77425	28.3294
4.76986	29.2826
4.76547	30.2902
4.7611	31.2601
4.75673	32.0589
4.75237	32.8152
4.74802	33.6105
4.74367	34.3888
4.73934	34.9068
4.73501	35.1752
4.73069	35.3883
4.72638	35.53
4.72207	35.6316
4.71777	35.6116
4.71348	35.4106
4.7092	35.1714
4.70493	34.9449
4.70066	34.7266
4.69641	34.6694
4.69216	34.7401
4.68791	34.8679
4.68368	34.926
4.67945	34.9194
4.67523	34.8575
4.67102	34.6452
4.66682	34.2748
4.66262	33.8308
4.65843	33.5167
4.65425	33.5454
4.65007	33.6935
4.64591	33.9449
4.64175	34.2336
4.6376	34.3944
4.63345	34.5677
4.62932	34.8279
4.62519	35.331
4.62106	36.1262
4.61695	37.1881
4.61284	38.5547
4.60874	39.9765
4.60465	41.3487
4.60056	42.8592
4.59648	44.3041
4.59241	45.2768
4.58835	45.9051
4.58429	46.3412
4.58024	46.5828
4.5762	46.7447
4.57216	46.9463
4.56814	47.2175
4.56411	47.6267
4.5601	48.3293
4.55609	49.1688
4.55209	50.1
4.5481	50.9874
4.54411	51.674
4.54013	52.3268
4.53616	53.1056
4.5322	54.1247
4.52824	55.4339
4.52429	56.9066
4.52034	58.2985
4.51641	59.5185
4.51247	60.549
4.50855	61.4192
4.50463	62.1611
4.50072	62.7831
4.49682	63.2194
4.49292	63.6589
4.48903	64.1546
4.48515	64.6108
4.48127	65.0306
4.4774	65.4057
4.47354	65.6914
4.46968	65.9777
4.46584	66.3259
4.46199	66.656
4.45815	67.0081
4.45432	67.3223
4.4505	67.5479
4.44668	67.7762
4.44287	68.0614
4.43907	68.3922
4.43527	68.6291
4.43148	68.8414
4.4277	69.0719
4.42392	69.2845
4.42015	69.5256
4.41638	69.7239
4.41262	69.8109
4.40887	69.9888
4.40513	70.1715
4.40139	70.2791
4.39765	70.2978
4.39393	70.3209
4.39021	70.2567
4.38649	70.2177
4.38278	70.2079
4.37908	70.1758
4.37539	70.1633
4.3717	70.249
4.36801	70.3199
4.36434	70.3603
4.36067	70.3148
4.357	70.3308
4.35335	70.4871
4.34969	70.6662
4.34605	70.8829
4.34241	71.1357
4.33877	71.3849
4.33514	71.5974
4.33152	71.8006
4.32791	72.0279
4.3243	72.2864
4.32069	72.5361
4.3171	72.73
4.31351	72.964
4.30992	73.2143
4.30634	73.4265
4.30277	73.5841
4.2992	73.7965
4.29564	74.0359
4.29208	74.1727
4.28853	74.3085
4.28499	74.4974
4.28145	74.7075
4.27792	74.873
4.27439	74.9469
4.27087	75.0132
4.26735	75.0602
4.26384	75.0684
4.26034	75.0278
4.25684	75.0867
4.25335	75.3561
4.24986	75.6438
4.24638	75.8939
4.24291	76.1586
4.23944	76.3997
4.23598	76.5667
4.23252	76.6535
4.22906	76.6767
4.22562	76.6033
4.22218	76.6427
4.21874	76.66
4.21531	76.5538
4.21189	76.4391
4.20847	76.4386
4.20506	76.4528
4.20165	76.4284
4.19825	76.3981
4.19485	76.4069
4.19146	76.4216
4.18807	76.4548
4.18469	76.5336
4.18132	76.5477
4.17795	76.4871
4.17458	76.4552
4.17123	76.5105
4.16787	76.5831
4.16453	76.5613
4.16118	76.5324
4.15785	76.5411
4.15451	76.5842
4.15119	76.5941
4.14787	76.5227
4.14455	76.4242
4.14124	76.3716
4.13794	76.3302
4.13464	76.2352
4.13134	76.0871
4.12805	75.9432
4.12477	75.8467
4.12149	75.7719
4.11822	75.6419
4.11495	75.5267
4.11168	75.4186
4.10843	75.2975
4.10517	75.1928
4.10192	75.0088
4.09868	74.7748
4.09545	74.6077
4.09221	74.4266
4.08899	74.2714
4.08576	73.9972
4.08255	73.7677
4.07933	73.5151
4.07613	73.2805
4.07292	73.0239
4.06973	72.7572
4.06654	72.4634
4.06335	72.181
4.06017	71.7477
4.05699	71.2781
4.05382	70.7514
4.05065	70.0562
4.04749	69.2543
4.04433	68.3541
4.04118	67.3334
4.03803	66.3084
4.03489	65.2609
4.03175	64.2607
4.02862	63.29
4.02549	62.2595
4.02237	61.3347
4.01925	60.5441
4.01614	59.6017
4.01303	58.3646
4.00993	56.7486
4.00683	55.052
4.00373	53.4984
4.00064	52.0296
3.99756	50.6085
3.99448	49.3953
3.9914	48.3615
3.98833	47.4277
3.98527	46.8481
3.98221	46.6148
3.97915	46.6164
3.9761	46.7101
3.97305	46.9771
3.97001	47.3801
3.96697	47.8294
3.96394	48.3923
3.96091	49.1294
3.95789	50.0092
3.95487	51.0658
3.95186	52.3391
3.94885	53.6669
3.94584	54.8899
3.94284	56.259
3.93984	57.645
3.93685	58.5216
3.93386	58.8671
3.93088	58.9678
3.9279	59.1871
3.92493	59.5561
3.92196	59.8804
3.919	60.1318
3.91604	60.3375
3.91308	60.5016
3.91013	60.6266
3.90718	60.7436
3.90424	60.8543
3.9013	60.9496
3.89837	61.0433
3.89544	61.1437
3.89252	61.2352
3.8896	61.3296
3.88668	61.388
3.88377	61.4278
3.88086	61.4661
3.87796	61.5981
3.87506	61.7211
3.87217	61.7161
3.86928	61.6235
3.86639	61.7425
3.86351	61.8714
3.86064	61.8766
3.85776	61.9214
3.8549	62.0242
3.85203	62.1655
3.84917	62.2851
3.84631	62.4431
3.84346	62.6801
3.84062	63.0195
3.83777	63.3603
3.83494	63.8967
3.8321	64.6173
3.82927	65.2703
3.82644	65.8688
3.82362	66.5026
3.82081	67.1479
3.81799	67.7558
3.81518	68.3349
3.81238	68.9734
3.80958	69.5851
3.80678	70.2371
3.80399	70.9758
3.8012	71.678
3.79841	72.3484
3.79563	73.0193
3.79286	73.569
3.79008	73.9699
3.78731	74.3109
3.78455	74.513
3.78179	74.6462
3.77903	74.7842
3.77628	74.8639
3.77353	74.901
3.77079	74.9278
3.76805	74.9768
3.76531	74.9962
3.76258	74.9917
3.75985	75.0003
3.75713	75.0047
3.7544	75.007
3.75169	75.039
3.74898	75.0103
3.74627	74.9672
3.74356	74.9373
3.74086	74.9322
3.73816	74.908
3.73547	74.9031
3.73278	74.9104
3.7301	74.9644
3.72741	75.0003
3.72474	74.9813
3.72206	74.9285
3.71939	74.9607
3.71673	74.9913
3.71406	74.9503
3.71141	74.9375
3.70875	74.9131
3.7061	74.9027
3.70345	74.8401
3.70081	74.7335
3.69817	74.6991
3.69553	74.7641
3.6929	74.7594
3.69027	74.7456
3.68765	74.7479
3.68503	74.7149
3.68241	74.6637
3.6798	74.625
3.67719	74.5983
3.67458	74.6022
3.67198	74.4989
3.66938	74.4779
3.66678	74.4774
3.66419	74.409
3.66161	74.3995
3.65902	74.3454
3.65644	74.2444
3.65387	74.2304
3.65129	74.2309
3.64872	74.1995
3.64616	74.1778
3.64359	74.181
3.64103	74.1389
3.63848	74.0744
3.63593	74.0709
3.63338	73.9961
3.63084	73.9103
3.6283	73.9346
3.62576	73.8665
3.62322	73.7848
3.62069	73.7427
3.61817	73.6837
3.61564	73.7012
3.61312	73.6192
3.61061	73.4589
3.6081	73.4337
3.60559	73.3593
3.60308	73.2449
3.60058	73.1563
3.59808	72.9757
3.59558	72.8657
3.59309	72.7756
3.59061	72.6088
3.58812	72.3945
3.58564	72.2586
3.58316	72.153
3.58069	71.9006
3.57822	71.5473
3.57575	71.2165
3.57328	71.054
3.57082	71.0726
3.56836	71.0581
3.56591	71.0425
3.56346	70.9896
3.56101	70.9441
3.55857	70.8695
3.55613	70.7525
3.55369	70.571
3.55126	70.3215
3.54883	70.0858
3.5464	69.869
3.54397	69.4883
3.54155	69.1054
3.53914	68.7637
3.53672	68.3328
3.53431	67.7674
3.5319	67.0373
3.5295	66.2336
3.5271	65.2112
3.5247	64.0676
3.52231	62.8706
3.51991	61.6846
3.51753	60.6785
3.51514	59.8077
3.51276	59.0573
3.51038	58.4539
3.50801	57.928
3.50563	57.4007
3.50327	56.9525
3.5009	56.5264
3.49854	56.0057
3.49618	55.5534
3.49382	55.1666
3.49147	54.7546
3.48912	54.3804
3.48677	53.9081
3.48443	53.4367
3.48209	53.0722
3.47975	52.7747
3.47742	52.6688
3.47509	52.972
3.47276	53.6841
3.47044	54.8228
3.46812	56.0461
3.4658	57.1199
3.46348	58.0155
3.46117	58.6633
3.45886	59.034
3.45656	59.1852
3.45425	59.3425
3.45195	59.4917
3.44966	59.5813
3.44736	59.6055
3.44507	59.5947
3.44279	59.5878
3.4405	59.6067
3.43822	59.5909
3.43594	59.5011
3.43367	59.489
3.43139	59.4168
3.42912	59.2725
3.42686	59.136
3.42459	58.9971
3.42233	58.7401
3.42007	58.5552
3.41782	58.4704
3.41557	58.4037
3.41332	58.3653
3.41108	58.3536
3.40883	58.3673
3.40659	58.3322
3.40435	58.2839
3.40212	58.2419
3.39989	58.2072
3.39766	58.2326
3.39544	58.1391
3.39322	57.9651
3.391	57.7912
3.38878	57.704
3.38657	57.6695
3.38436	57.5608
3.38215	57.386
3.37994	57.1535
3.37774	56.9908
3.37554	57.0392
3.37335	57.1054
3.37115	57.0588
3.36896	56.9907
3.36678	56.9585
3.36459	56.7879
3.36241	56.5552
3.36023	56.3134
3.35805	56.0187
3.35588	55.7048
3.35371	55.4937
3.35154	55.4531
3.34938	55.7313
3.34721	56.4516
3.34505	57.6596
3.3429	59.1992
3.34074	60.8464
3.33859	62.272
3.33644	63.2884
3.3343	63.9903
3.33215	64.4371
3.33001	64.8374
3.32788	65.1933
3.32574	65.4229
3.32361	65.5955
3.32148	65.744
3.31936	65.8662
3.31723	65.8844
3.31511	65.8622
3.31299	65.9384
3.31088	66.0305
3.30876	65.981
3.30665	65.9684
3.30455	65.9335
3.30244	65.9038
3.30034	65.9027
3.29824	65.9676
3.29614	65.9417
3.29405	65.8373
3.29196	65.8534
3.28987	65.9087
3.28778	65.9039
3.2857	65.9367
3.28362	66.0357
3.28154	66.1078
3.27946	66.0972
3.27739	66.0757
3.27532	66.0807
3.27325	66.0865
3.27119	66.0714
3.26913	66.0134
3.26707	65.9729
3.26501	65.9721
3.26295	66.0144
3.2609	65.9673
3.25885	65.8702
3.2568	65.8338
3.25476	65.7125
3.25272	65.6669
3.25068	65.7058
3.24864	65.697
3.24661	65.6718
3.24458	65.6646
3.24255	65.5852
3.24052	65.4959
3.2385	65.4248
3.23648	65.3438
3.23446	65.2501
3.23244	65.2222
3.23043	65.2407
3.22841	65.1619
3.2264	65.0834
3.2244	65.0308
3.22239	64.9651
3.22039	64.9474
3.21839	64.8234
3.2164	64.6757
3.2144	64.6821
3.21241	64.6807
3.21042	64.6685
3.20844	64.6315
3.20645	64.4703
3.20447	64.3944
3.20249	64.4076
3.20051	64.3572
3.19854	64.2968
3.19657	64.2226
3.1946	64.1547
3.19263	64.0945
3.19067	64.0115
3.1887	63.9102
3.18674	63.8739
3.18479	63.7581
3.18283	63.6056
3.18088	63.6035
3.17893	63.5962
3.17698	63.5155
3.17504	63.4131
3.17309	63.3306
3.17115	63.2294
3.16921	63.1001
3.16728	63.043
3.16534	63.0227
3.16341	62.9003
3.16148	62.7801
3.15956	62.6328
3.15763	62.4941
3.15571	62.3824
3.15379	62.298
3.15187	62.193
3.14996	62.1162
3.14805	62.1139
3.14614	62.1191
3.14423	62.0373
3.14232	62.0371
3.14042	61.9661
3.13852	61.9181
3.13662	61.8536
3.13472	61.787
3.13283	61.6986
3.13094	61.6495
3.12905	61.5729
3.12716	61.4692
3.12528	61.4478
3.12339	61.403
3.12151	61.3254
3.11964	61.159
3.11776	60.9971
3.11589	60.9767
3.11401	60.9982
3.11214	61.008
3.11028	60.9328
3.10841	60.7872
3.10655	60.7924
3.10469	60.8206
3.10283	60.7348
3.10098	60.6901
3.09912	60.716
3.09727	60.7074
3.09542	60.6431
3.09358	60.5527
3.09173	60.4484
3.08989	60.4253
3.08805	60.5209
3.08621	60.6205
3.08437	60.5631
3.08254	60.5521
3.08071	60.569
3.07888	60.5101
3.07705	60.4568
3.07523	60.4327
3.0734	60.3831
3.07158	60.3324
3.06977	60.3157
3.06795	60.2421
3.06613	60.2583
3.06432	60.3187
3.06251	60.2966
3.0607	60.1609
3.0589	60.0916
3.0571	60.0319
3.05529	59.9793
3.05349	60.0193
3.0517	59.9667
3.0499	59.9079
3.04811	59.8257
3.04632	59.7366
3.04453	59.5996
3.04274	59.5758
3.04096	59.5843
3.03918	59.6598
3.0374	59.6681
3.03562	59.4262
3.03384	59.2213
3.03207	59.2575
3.03029	59.3112
3.02852	59.2198
3.02676	59.148
3.02499	59.0204
3.02323	58.8789
3.02146	58.8436
3.0197	58.7343
3.01795	58.5926
3.01619	58.5747
3.01444	58.543
3.01269	58.4542
3.01094	58.3949
3.00919	58.2968
3.00744	58.2646
3.0057	58.2196
3.00396	58.0447
3.00222	57.9917
3.00048	58.0007
2.99875	57.9
2.99701	57.8472
2.99528	57.8002
2.99355	57.5582
2.99183	57.456
2.9901	57.4789
2.98838	57.2898
2.98666	56.9898
2.98494	56.9118
2.98322	56.9525
2.9815	56.8269
2.97979	56.6179
2.97808	56.3816
2.97637	56.1879
2.97466	56.0894
2.97295	56.0362
2.97125	56.0475
2.96955	55.9042
2.96785	55.7465
2.96615	55.516
2.96446	55.3447
2.96276	55.3862
2.96107	55.4452
2.95938	55.366
2.95769	55.3837
2.95601	55.4439
2.95432	55.4462
2.95264	55.4481
2.95096	55.4292
2.94928	55.3891
2.9476	55.3596
2.94593	55.2446
2.94425	55.2771
2.94258	55.5257
2.94092	55.6251
2.93925	55.6666
2.93758	55.7031
2.93592	55.8184
2.93426	55.9154
2.9326	55.9545
2.93094	55.9421
2.92928	56.0246
2.92763	56.1165
2.92598	56.1404
2.92433	56.0948
2.92268	56.0918
2.92103	56.0908
2.91939	56.0103
2.91775	55.9402
2.9161	55.9824
2.91447	55.8907
2.91283	55.7539
2.91119	55.7158
2.90956	55.609
2.90793	55.4578
2.9063	55.44
2.90467	55.3333
2.90304	55.1583
2.90142	55.1356
2.89979	55.0826
2.89817	54.9916
2.89656	54.8142
2.89494	54.5891
2.89332	54.374
2.89171	54.162
2.8901	53.9829
2.88849	53.8745
2.88688	53.5909
2.88527	53.2961
2.88367	53.1302
2.88206	52.8887
2.88046	52.6805
2.87886	52.468
2.87727	52.1475
2.87567	51.7229
2.87408	51.3002
2.87248	51.0189
2.87089	50.658
2.8693	50.2533
2.86772	49.8666
2.86613	49.516
2.86455	49.2393
2.86297	48.961
2.86139	48.7525
2.85981	48.541
2.85823	48.4124
2.85666	48.2891
2.85508	48.0657
2.85351	47.5611
2.85194	46.7897
2.85038	45.8992
2.84881	44.8196
2.84724	43.2565
2.84568	41.2259
2.84412	39.0138
2.84256	36.5936
2.841	34.0789
2.83945	31.8035
2.83789	29.9026
2.83634	28.1351
2.83479	26.2122
2.83324	24.2033
2.83169	22.2922
2.83015	20.6477
2.82861	19.3786
2.82706	18.6012
2.82552	18.4798
2.82398	19.1034
2.82245	20.2828
2.82091	21.9877
2.81938	23.8238
2.81784	25.3748
2.81631	26.8502
2.81479	28.0703
2.81326	29.3756
2.81173	31.4545
2.81021	33.6426
2.80869	35.2873
2.80716	36.6709
2.80565	38.0528
2.80413	39.1344
2.80261	39.4356
2.8011	39.3428
2.79959	40.052
2.79808	41.5854
2.79657	43.3346
2.79506	44.8342
2.79355	46.3357
2.79205	47.7607
2.79055	49.21
2.78904	51.0747
2.78754	52.7476
2.78605	53.628
2.78455	54.103
2.78306	54.9783
2.78156	55.8842
2.78007	56.4303
2.77858	56.9305
2.77709	57.4284
2.77561	57.8135
2.77412	58.2815
2.77264	58.9216
2.77116	59.515
2.76968	59.6201
2.7682	59.7405
2.76672	60.0133
2.76524	60.0583
2.76377	60.546
2.7623	60.8554
2.76083	60.4988
2.75936	60.2793
2.75789	60.4305
2.75642	61.628
2.75496	62.1533
2.7535	61.2962
2.75203	61.3359
2.75057	61.4066
2.74912	61.536
2.74766	61.8542
2.7462	62.0546
2.74475	62.2969
2.7433	62.7774
2.74185	63.6094
2.7404	64.3701
2.73895	64.3088
2.7375	63.3806
2.73606	63.2726
2.73462	63.2675
2.73318	62.5388
2.73174	62.6877
2.7303	63.0183
2.72886	62.8357
2.72742	62.5581
2.72599	62.2202
2.72456	60.8461
2.72313	57.5935
2.7217	56.2577
2.72027	56.8019
2.71884	56.6838
2.71742	57.7315
2.71599	59.7855
2.71457	62.1564
2.71315	64.6136
2.71173	68.0932
2.71032	70.7259
2.7089	71.77
2.70748	72.4391
2.70607	73.1256
2.70466	73.8976
2.70325	74.6314
2.70184	75.6091
2.70043	75.959
2.69903	75.8648
2.69762	76.2671
2.69622	77.1505
2.69482	77.9084
2.69342	77.8455
2.69202	76.9301
2.69062	76.5745
2.68923	76.7265
2.68783	77.0039
2.68644	77.2958
2.68505	77.3718
2.68366	77.4492
2.68227	77.2262
2.68089	77.2978
2.6795	78.0751
2.67812	78.3745
2.67673	78.7285
2.67535	78.2191
2.67397	77.5179
2.6726	77.6424
2.67122	79.5251
2.66984	79.8601
2.66847	78.6096
2.6671	79.418
2.66572	79.7499
2.66435	78.853
2.66299	77.6392
2.66162	77.6719
2.66025	77.8425
2.65889	77.6089
2.65753	77.0593
2.65616	77.3565
2.65481	77.5074
2.65345	77.8135
2.65209	77.982
2.65073	77.5453
2.64938	77.3268
2.64803	77.413
2.64667	77.9169
2.64532	78.2444
2.64397	78.1096
2.64263	78.4659
2.64128	78.567
2.63994	78.5677
2.63859	78.7408
2.63725	79.0275
2.63591	79.162
2.63457	79.6353
2.63323	79.8121
2.6319	80.308
2.63056	81.3609
2.62923	80.6228
2.62789	80.432
2.62656	81.2017
2.62523	80.5489
2.6239	80.1479
2.62258	80.3239
2.62125	81.4439
2.61993	81.7682
2.6186	81.2575
2.61728	82.0072
2.61596	81.576
2.61464	80.5446
2.61332	80.5777
2.61201	80.3616
2.61069	80.3507
2.60938	80.4101
2.60807	80.3352
2.60675	80.7836
2.60544	81.2676
2.60414	80.5465
2.60283	79.9854
2.60152	79.8028
2.60022	79.4361
2.59891	79.308
2.59761	79.9438
2.59631	81.5471
2.59501	83.4198
2.59371	82.2729
2.59242	80.8167
2.59112	80.6932
2.58983	81.1288
2.58853	81.6486
2.58724	82.0773
2.58595	81.9519
2.58466	82.7886
2.58338	83.1741
2.58209	82.8033
2.5808	82.946
2.57952	82.5213
2.57824	82.8528
2.57695	83.5375
2.57567	83.3695
2.5744	83.77
2.57312	84.2063
2.57184	83.6069
2.57057	83.9739
2.56929	84.3883
2.56802	84.0427
2.56675	83.9498
2.56548	84.4916
2.56421	85.1811
2.56294	85.4308
2.56168	85.5529
2.56041	84.9646
2.55915	84.2481
2.55789	84.1614
2.55662	84.2548
2.55536	84.2911
2.5541	84.4447
2.55285	84.6627
2.55159	84.5022
2.55034	84.2416
2.54908	84.0919
2.54783	84.1239
2.54658	83.8695
2.54533	83.6923
2.54408	83.8182
2.54283	83.8489
2.54159	83.5287
2.54034	83.2616
2.5391	83.2558
2.53785	83.3944
2.53661	83.6352
2.53537	83.5655
2.53413	83.4474
2.53289	83.5864
2.53166	83.7742
2.53042	83.863
2.52919	83.8221
2.52795	83.8053
2.52672	83.8728
2.52549	84.0773
2.52426	84.2293
2.52303	84.3123
2.52181	84.389
2.52058	84.4978
2.51936	84.4893
2.51813	84.4966
2.51691	84.6449
2.51569	84.7018
2.51447	84.6513
2.51325	84.6669
2.51203	84.7762
2.51082	84.8108
2.5096	84.8259
2.50839	84.8451
2.50717	84.8668
2.50596	84.9195
2.50475	84.9055
2.50354	84.8943
2.50233	84.9327
2.50113	85.0335
2.49992	85.1032
2.49872	85.0435
2.49751	85.0444
2.49631	85.0905
2.49511	85.1361
2.49391	85.2009
2.49271	85.2703
2.49151	85.2542
2.49031	85.2183
2.48912	85.3224
2.48792	85.4145
2.48673	85.3299
2.48554	85.1976
2.48435	85.2454
2.48316	85.3987
2.48197	85.5288
2.48078	85.6193
2.4796	85.6735
2.47841	85.7632
2.47723	85.7317
2.47604	85.6153
2.47486	85.6674
2.47368	85.6897
2.4725	85.7158
2.47132	85.8291
2.47014	85.8669
2.46897	85.8956
2.46779	85.9095
2.46662	85.9233
2.46545	86.0873
2.46427	86.1832
2.4631	86.1002
2.46193	86.039
2.46077	86.0923
2.4596	86.1888
2.45843	86.2587
2.45727	86.2906
2.4561	86.3835
2.45494	86.5458
2.45378	86.5166
2.45262	86.445
2.45146	86.4725
2.4503	86.5436
2.44914	86.5151
2.44799	86.4959
2.44683	86.5714
2.44568	86.6804
2.44452	86.551
2.44337	86.5972
2.44222	86.7816
2.44107	86.8544
2.43992	86.8428
2.43877	86.763
2.43763	86.7042
2.43648	86.7509
2.43534	86.7951
2.43419	86.8488
2.43305	86.7715
2.43191	86.7411
2.43077	86.8458
2.42963	86.881
2.42849	86.8894
2.42736	86.8973
2.42622	86.9713
2.42509	87.1301
2.42395	87.0967
2.42282	87.0606
2.42169	87.0801
2.42056	87.1594
2.41943	87.1688
2.4183	87.2041
2.41717	87.1961
2.41605	87.1587
2.41492	87.2088
2.4138	87.1206
2.41267	87.1243
2.41155	87.1762
2.41043	87.216
2.40931	87.1888
2.40819	87.191
2.40707	87.313
2.40595	87.3094
2.40484	87.2464
2.40372	87.2718
2.40261	87.2337
2.4015	87.1272
2.40039	87.1225
2.39928	87.1102
2.39817	87.0484
2.39706	86.9559
2.39595	86.8453
2.39484	86.7755
2.39374	86.7728
2.39263	86.7645
2.39153	86.7964
2.39043	86.8797
2.38932	86.9844
2.38822	87.0153
2.38712	86.9879
2.38603	86.9122
2.38493	86.9786
2.38383	87.0731
2.38274	87.0402
2.38164	86.9381
2.38055	86.9621
2.37946	87.0732
2.37836	87.2027
2.37727	87.3001
2.37618	87.2784
2.3751	87.2804
2.37401	87.3089
2.37292	87.2823
2.37184	87.3524
2.37075	87.4493
2.36967	87.3671
2.36859	87.3274
2.3675	87.4708
2.36642	87.5191
2.36534	87.4784
2.36427	87.4503
2.36319	87.4699
2.36211	87.399
2.36104	87.3052
2.35996	87.2346
2.35889	87.1
2.35781	87.0626
2.35674	87.1104
2.35567	87.1811
2.3546	87.1395
2.35353	86.9559
2.35247	86.9145
2.3514	86.8969
2.35033	86.8354
2.34927	86.8274
2.3482	86.8398
2.34714	86.8041
2.34608	86.8267
2.34502	86.7621
2.34396	86.6702
2.3429	86.5967
2.34184	86.5565
2.34078	86.6342
2.33973	86.6537
2.33867	86.5976
2.33762	86.5294
2.33656	86.4765
2.33551	86.4894
2.33446	86.5398
2.33341	86.6286
2.33236	86.6777
2.33131	86.5304
2.33026	86.4857
2.32922	86.4786
2.32817	86.351
2.32712	86.2045
2.32608	86.0536
2.32504	86.0704
2.324	86.0173
2.32295	85.9663
2.32191	85.9839
2.32087	85.9327
2.31984	85.7783
2.3188	85.6409
2.31776	85.5165
2.31673	85.3078
2.31569	85.2228
2.31466	85.0463
2.31362	84.9386
2.31259	85.0546
2.31156	85.2322
2.31053	85.4552
2.3095	85.6504
2.30847	85.7395
2.30745	85.7756
2.30642	85.9003
2.3054	85.9587
2.30437	86.2467
2.30335	86.4443
2.30232	86.3907
2.3013	86.4173
2.30028	86.5405
2.29926	86.5337
2.29824	86.5185
2.29722	86.5953
2.29621	86.5674
2.29519	86.5701
2.29417	86.5543
2.29316	86.4318
2.29215	86.3701
2.29113	86.4714
2.29012	86.6057
2.28911	86.6891
2.2881	86.8292
2.28709	87.0302
2.28608	87.0529
2.28507	87.0738
2.28407	87.2399
2.28306	87.3697
2.28206	87.431
2.28105	87.5828
2.28005	87.6498
2.27905	87.6329
2.27805	87.7083
2.27705	87.8585
2.27605	87.8991
2.27505	87.9549
2.27405	88.0503
2.27305	88.0746
2.27206	88.1675
2.27106	88.1993
2.27007	88.2216
2.26907	88.2121
2.26808	88.2299
2.26709	88.216
2.2661	88.2416
2.26511	88.2493
2.26412	88.2905
2.26313	88.3929
2.26214	88.498
2.26116	88.5584
2.26017	88.4577
2.25919	88.3811
2.2582	88.4124
2.25722	88.5456
2.25624	88.6023
2.25526	88.5769
2.25428	88.4333
2.2533	88.4335
2.25232	88.5346
2.25134	88.5557
2.25036	88.5647
2.24939	88.5105
2.24841	88.586
2.24744	88.7097
2.24646	88.7578
2.24549	88.7863
2.24452	88.7292
2.24355	88.5328
2.24257	88.5237
2.24161	88.6922
2.24064	88.8576
2.23967	88.8498
2.2387	88.8343
2.23774	88.7579
2.23677	88.6914
2.23581	88.7295
2.23484	88.8147
2.23388	88.7907
2.23292	88.6975
2.23196	88.621
2.231	88.7016
2.23004	88.7044
2.22908	88.7574
2.22812	88.8409
2.22716	88.889
2.22621	88.8787
2.22525	88.8257
2.2243	88.74
2.22334	88.78
2.22239	88.9094
2.22144	88.7975
2.22049	88.7548
2.21953	88.8588
2.21859	88.9568
2.21764	88.8933
2.21669	88.8483
2.21574	88.8426
2.21479	88.7653
2.21385	88.8341
2.2129	88.9094
2.21196	88.8304
2.21102	88.8064
2.21007	88.8478
2.20913	88.7843
2.20819	88.9101
2.20725	88.9252
2.20631	88.8947
2.20537	88.9453
2.20444	89.0181
2.2035	88.993
2.20256	88.9614
2.20163	88.9527
2.20069	88.9448
2.19976	88.8938
2.19883	88.8832
2.19789	88.9534
2.19696	89.0122
2.19603	88.9692
2.1951	88.9189
2.19417	88.885
2.19325	88.8533
2.19232	88.8751
2.19139	88.9432
2.19047	88.9743
2.18954	88.8516
2.18862	88.8378
2.18769	89.0162
2.18677	89.0119
2.18585	88.9569
2.18493	88.9205
2.18401	88.8793
2.18309	88.8703
2.18217	88.8491
2.18125	88.791
2.18033	88.7791
2.17942	88.7336
2.1785	88.8232
2.17759	88.8855
2.17667	88.8183
2.17576	88.7627
2.17485	88.8494
2.17393	88.8898
2.17302	88.717
2.17211	88.6844
2.1712	88.6898
2.17029	88.6304
2.16939	88.702
2.16848	88.9051
2.16757	88.7878
2.16667	88.6455
2.16576	88.6434
2.16486	88.7503
2.16395	88.7557
2.16305	88.6462
2.16215	88.6566
2.16125	88.6043
2.16035	88.6147
2.15945	88.5033
2.15855	88.4131
2.15765	88.5215
2.15675	88.6553
2.15586	88.6035
2.15496	88.6234
2.15406	88.6732
2.15317	88.7298
2.15228	88.727
2.15138	88.7526
2.15049	88.6858
2.1496	88.6558
2.14871	88.7491
2.14782	88.7292
2.14693	88.6292
2.14604	88.7163
2.14515	88.8145
2.14427	88.752
2.14338	88.691
2.14249	88.8028
2.14161	88.8941
2.14072	88.9418
2.13984	88.9569
2.13896	88.9999
2.13808	89.1047
2.13719	89.0883
2.13631	88.9305
2.13543	88.8596
2.13455	88.9117
2.13368	88.9333
2.1328	88.8941
2.13192	88.996
2.13105	89.0137
2.13017	89.0753
2.1293	89.0134
2.12842	89.0704
2.12755	89.094
2.12668	89.0715
2.1258	89.2077
2.12493	89.1548
2.12406	89.0514
2.12319	89.1019
2.12232	89.0095
2.12145	89.1142
2.12059	89.2356
2.11972	89.1364
2.11885	88.946
2.11799	88.9946
2.11712	89.1861
2.11626	89.1785
2.1154	89.1413
2.11453	89.0931
2.11367	89.0755
2.11281	89.0557
2.11195	89.2756
2.11109	89.2774
2.11023	89.0989
2.10937	88.9316
2.10851	88.8824
2.10766	89.1495
2.1068	89.1871
2.10594	89.0194
2.10509	89.0568
2.10423	89.0715
2.10338	89.1481
2.10253	89.2522
2.10168	89.1416
2.10082	89.0756
2.09997	89.0939
2.09912	89.0184
2.09827	88.9322
2.09742	89.0609
2.09658	89.2349
2.09573	89.3195
2.09488	89.2199
2.09404	89.3905
2.09319	89.459
2.09235	89.373
2.0915	89.3823
2.09066	89.2645
2.08982	89.2347
2.08897	89.3425
2.08813	89.1066
2.08729	88.8091
2.08645	88.8843
2.08561	89.1857
2.08477	89.2032
2.08394	89.2306
2.0831	89.3023
2.08226	89.2386
2.08143	89.193
2.08059	89.062
2.07976	88.9316
2.07892	89.0204
2.07809	89.1679
2.07726	88.9962
2.07643	89.0007
2.07559	89.2494
2.07476	89.5968
2.07393	89.5919
2.0731	88.9952
2.07228	89.0411
2.07145	89.1097
2.07062	89.0672
2.06979	89.3475
2.06897	89.6387
2.06814	89.6211
2.06732	89.4214
2.06649	89.0643
2.06567	89.0084
2.06485	89.0474
2.06403	89.0174
2.0632	89.0648
2.06238	89.1049
2.06156	89.2143
2.06074	89.3377
2.05993	89.3006
2.05911	89.0879
2.05829	88.9929
2.05747	89.044
2.05666	89.1102
2.05584	89.1244
2.05503	88.9228
2.05421	88.8795
2.0534	89.0474
2.05259	89.1513
2.05177	89.2037
2.05096	89.1846
2.05015	89.0902
2.04934	89.0279
2.04853	89.0906
2.04772	89.1551
2.04691	89.1549
2.04611	89.1438
2.0453	89.1339
2.04449	89.051
2.04369	88.796
2.04288	88.7559
2.04208	88.995
2.04127	89.012
2.04047	88.8076
2.03967	88.7696
2.03886	88.8226
2.03806	88.9248
2.03726	89.0291
2.03646	88.9319
2.03566	88.8748
2.03486	89.0433
2.03407	89.227
2.03327	89.1805
2.03247	88.9105
2.03167	88.7489
2.03088	88.6644
2.03008	88.6668
2.02929	88.8424
2.0285	88.7937
2.0277	88.6084
2.02691	88.5915
2.02612	88.7057
2.02533	88.7241
2.02453	88.653
2.02374	88.5595
2.02295	88.5164
2.02217	88.5887
2.02138	88.5559
2.02059	88.4559
2.0198	88.3958
2.01902	88.4136
2.01823	88.4791
2.01744	88.3708
2.01666	88.3601
2.01588	88.2458
2.01509	88.0474
2.01431	88.2156
2.01353	88.3905
2.01275	88.21
2.01196	88.1003
2.01118	88.2132
2.0104	88.2411
2.00963	88.3291
2.00885	88.3276
2.00807	88.2047
2.00729	87.9921
2.00651	87.8265
2.00574	87.7627
2.00496	87.7641
2.00419	87.7419
2.00341	87.6459
2.00264	87.5817
2.00187	87.4357
2.00109	87.2888
2.00032	87.2719
