Name: Brass plate
Type: Manmade materials
Class: Reflectance target
Subclass: 
Particle Size: Solid
Sample No.: SN: ILF-17464-2-2
Owner: JPL
Wavelength range: IR
Origin: Labsphere, P.O. Box 70, Shaker Street, North Sutton, NH 03260
(603) 927-4266
Description: Measurement made at bottom center right. Field Brass 1.
Measured Oct. 29 1997.




Measurement: Hemispherical Reflectance
First Column: X
Second Column: Y
X Units: Wavelength (micrometers)
Y Units: Reflectence (percent)
First X Value: 15.3853
Last X Value: 2.00032
Number of X Values: 2256
Additional information: None.
 
15.3853	83.6726
15.3397	83.6598
15.2945	83.8603
15.2495	83.9215
15.2048	83.8953
15.1603	84.0006
15.1161	83.9358
15.0722	83.7447
15.0285	83.6251
14.9851	83.5836
14.9419	83.7961
14.8989	83.9207
14.8563	83.9515
14.8138	83.9631
14.7716	83.9675
14.7296	83.8706
14.6879	83.8137
14.6464	83.712
14.6052	83.6587
14.5641	83.6871
14.5233	83.687
14.4828	83.6704
14.4424	83.7658
14.4023	83.7572
14.3624	83.7122
14.3227	83.7086
14.2833	83.8252
14.244	83.9182
14.205	83.809
14.1662	83.6649
14.1276	83.5611
14.0892	83.4136
14.051	83.3596
14.0131	83.5496
13.9753	83.6178
13.9377	83.5395
13.9004	83.5262
13.8632	83.6111
13.8262	83.6801
13.7895	83.5515
13.7529	83.5509
13.7165	83.7121
13.6803	83.7857
13.6443	83.7888
13.6085	83.7357
13.5729	83.6653
13.5374	83.6329
13.5022	83.6818
13.4671	83.7991
13.4322	83.8298
13.3975	83.7433
13.363	83.7243
13.3286	83.7424
13.2944	83.7361
13.2604	83.7539
13.2266	83.726
13.193	83.6552
13.1595	83.6851
13.1262	83.7966
13.093	83.7343
13.06	83.5497
13.0272	83.4715
12.9946	83.4116
12.9621	83.4595
12.9298	83.4063
12.8976	83.3384
12.8656	83.3697
12.8337	83.3834
12.8021	83.4062
12.7705	83.3304
12.7391	83.2925
12.7079	83.3849
12.6769	83.3818
12.6459	83.3306
12.6152	83.1916
12.5845	83.177
12.5541	83.4072
12.5238	83.3493
12.4936	83.2614
12.4635	83.3483
12.4337	83.4028
12.4039	83.3369
12.3743	83.4087
12.3448	83.6254
12.3155	83.5918
12.2863	83.6321
12.2573	83.7523
12.2284	83.76
12.1996	83.7699
12.171	83.8219
12.1425	83.82
12.1141	83.7759
12.0859	83.7366
12.0578	83.8181
12.0298	83.8404
12.0019	83.7889
11.9742	83.8078
11.9466	83.8492
11.9192	83.8239
11.8918	83.7294
11.8646	83.7647
11.8375	83.8255
11.8106	83.7041
11.7837	83.6211
11.757	83.7667
11.7304	83.7822
11.7039	83.6825
11.6776	83.6263
11.6513	83.6408
11.6252	83.6538
11.5992	83.5734
11.5733	83.464
11.5475	83.3668
11.5219	83.1765
11.4963	82.8759
11.4709	82.6838
11.4455	82.64
11.4203	82.7216
11.3952	82.8617
11.3702	82.9368
11.3454	83.0235
11.3206	83.1
11.2959	83.1516
11.2714	83.2518
11.2469	83.2826
11.2226	83.329
11.1983	83.2825
11.1742	83.1884
11.1502	83.1847
11.1263	83.1236
11.1024	83.0758
11.0787	83.0419
11.0551	83.0281
11.0316	82.9438
11.0081	82.8474
10.9848	82.8355
10.9616	82.793
10.9385	82.8187
10.9154	82.8237
10.8925	82.738
10.8697	82.7051
10.8469	82.7014
10.8243	82.6947
10.8017	82.7119
10.7793	82.6894
10.7569	82.6203
10.7346	82.573
10.7125	82.5347
10.6904	82.5403
10.6684	82.5205
10.6465	82.5377
10.6247	82.5793
10.6029	82.5046
10.5813	82.4606
10.5597	82.3618
10.5383	82.3028
10.5169	82.3163
10.4956	82.2764
10.4744	82.1858
10.4533	82.1333
10.4323	82.1056
10.4113	82.0095
10.3904	81.9498
10.3697	81.9454
10.349	81.8588
10.3284	81.7826
10.3078	81.7714
10.2874	81.7515
10.267	81.7642
10.2467	81.8092
10.2265	81.7207
10.2064	81.6698
10.1863	81.6624
10.1663	81.6361
10.1464	81.5327
10.1266	81.4564
10.1069	81.428
10.0872	81.3343
10.0676	81.3084
10.0481	81.419
10.0287	81.4714
10.0093	81.4303
9.99005	81.3381
9.97084	81.2426
9.95169	81.1958
9.93263	81.1649
9.91364	81.1875
9.89472	81.2527
9.87587	81.2959
9.8571	81.3509
9.83839	81.3081
9.81976	81.2357
9.80119	81.1756
9.78271	81.1019
9.76428	81.1919
9.74592	81.2931
9.72764	81.2428
9.70943	81.2384
9.69128	81.271
9.6732	81.266
9.65518	81.221
9.63724	81.2573
9.61935	81.2569
9.60155	81.3238
9.5838	81.4327
9.56611	81.4335
9.5485	81.3129
9.53094	81.2785
9.51345	81.3805
9.49604	81.4334
9.47867	81.509
9.46137	81.5432
9.44414	81.4873
9.42697	81.5044
9.40986	81.6028
9.39281	81.6757
9.37583	81.6249
9.35891	81.6476
9.34204	81.769
9.32524	81.8458
9.3085	81.9042
9.29182	81.887
9.27519	81.8567
9.25863	81.8278
9.24213	81.8938
9.22568	81.9255
9.2093	81.9033
9.19297	81.9698
9.17669	82.1413
9.16048	82.2048
9.14433	82.2026
9.12823	82.2315
9.11218	82.1672
9.0962	82.1016
9.08027	82.1145
9.06439	82.2649
9.04858	82.3514
9.03281	82.4362
9.0171	82.5831
9.00145	82.526
8.98585	82.435
8.9703	82.514
8.9548	82.546
8.93937	82.4862
8.92398	82.5284
8.90865	82.6679
8.89337	82.694
8.87814	82.6972
8.86296	82.6542
8.84784	82.6044
8.83277	82.5508
8.81774	82.5027
8.80277	82.5482
8.78786	82.6298
8.77298	82.7099
8.75816	82.7321
8.7434	82.6519
8.72868	82.5799
8.714	82.6206
8.69938	82.6922
8.68481	82.6707
8.67029	82.6977
8.65581	82.7864
8.64139	82.8232
8.62701	82.8901
8.61268	82.9089
8.5984	82.8358
8.58416	82.8529
8.56997	82.9224
8.55583	83.0254
8.54174	83.1689
8.52769	83.1337
8.51368	83.081
8.49973	83.08
8.48582	83.0929
8.47195	83.1776
8.45813	83.3299
8.44436	83.3199
8.43062	83.2491
8.41693	83.2839
8.4033	83.4278
8.3897	83.5359
8.37614	83.5167
8.36264	83.4689
8.34917	83.4972
8.33574	83.5356
8.32236	83.5265
8.30903	83.6141
8.29573	83.7334
8.28248	83.723
8.26927	83.7501
8.2561	83.7482
8.24298	83.7371
8.2299	83.8284
8.21685	83.8919
8.20385	83.8848
8.19089	83.8451
8.17797	83.8973
8.16509	83.9967
8.15225	84.0057
8.13946	84.0257
8.1267	84.0296
8.11398	84.0555
8.10131	84.0882
8.08867	84.0938
8.07606	84.167
8.0635	84.1906
8.05099	84.1068
8.0385	84.0892
8.02606	84.1975
8.01366	84.2974
8.00129	84.2622
7.98896	84.2579
7.97667	84.3577
7.96442	84.4942
7.9522	84.5805
7.94002	84.6217
7.92788	84.5882
7.91578	84.6235
7.90371	84.7013
7.89168	84.7628
7.87969	84.857
7.86773	84.9424
7.85581	84.9447
7.84392	84.9466
7.83207	84.955
7.82026	85.0441
7.80849	85.0816
7.79674	85.1251
7.78503	85.1417
7.77337	85.1322
7.76173	85.0993
7.75012	85.1674
7.73856	85.2423
7.72703	85.2359
7.71553	85.1654
7.70406	85.1811
7.69263	85.2782
7.68123	85.2967
7.66987	85.2959
7.65855	85.2273
7.64725	85.1477
7.63598	85.2202
7.62475	85.2629
7.61356	85.2113
7.60239	85.2119
7.59126	85.3088
7.58017	85.3008
7.5691	85.3057
7.55806	85.3136
7.54707	85.2726
7.5361	85.3173
7.52516	85.3584
7.51425	85.3154
7.50338	85.2522
7.49253	85.2291
7.48172	85.3347
7.47094	85.3328
7.46019	85.2196
7.44947	85.147
7.43879	85.0858
7.42813	85.062
7.4175	85.0832
7.4069	85.0932
7.39634	85.064
7.3858	85.0361
7.37529	84.975
7.36482	84.9164
7.35437	84.8624
7.34396	84.8497
7.33357	84.8547
7.32321	84.7128
7.31288	84.6218
7.30258	84.602
7.29231	84.6092
7.28207	84.6441
7.27185	84.6108
7.26167	84.5676
7.25152	84.5682
7.24139	84.5383
7.23129	84.4914
7.22122	84.4362
7.21117	84.4213
7.20116	84.3636
7.19117	84.2991
7.18121	84.3595
7.17128	84.488
7.16137	84.4298
7.1515	84.3728
7.14164	84.385
7.13182	84.3719
7.12203	84.3739
7.11225	84.3902
7.10251	84.3758
7.0928	84.318
7.08311	84.3343
7.07344	84.3942
7.06381	84.4159
7.0542	84.5211
7.04461	84.6481
7.03506	84.5473
7.02552	84.5113
7.01601	84.4302
7.00653	84.3749
6.99708	84.4365
6.98765	84.4041
6.97824	84.3256
6.96886	84.4136
6.95951	84.5961
6.95018	84.4672
6.94087	84.4036
6.9316	84.3879
6.92234	84.4043
6.91311	84.4195
6.90391	84.3762
6.89473	84.3017
6.88557	84.3045
6.87644	84.4044
6.86733	84.7911
6.85824	84.8559
6.84918	84.5245
6.84015	84.384
6.83114	84.4886
6.82215	84.5154
6.81319	84.3724
6.80424	84.4028
6.79532	84.6703
6.78643	84.767
6.77756	84.6187
6.76871	84.477
6.75989	84.379
6.75109	84.3858
6.74231	84.4438
6.73355	84.5218
6.72482	84.6436
6.71611	84.7677
6.70742	84.7659
6.69875	84.6254
6.69011	84.728
6.68149	84.8902
6.67289	84.8177
6.66431	84.7193
6.65576	84.7468
6.64722	85.0891
6.63871	85.4284
6.63022	85.2267
6.62175	85.0594
6.61331	85.1424
6.60488	85.1398
6.59648	85.2754
6.5881	85.3863
6.57974	85.4874
6.5714	85.6121
6.56308	85.482
6.55478	85.424
6.54651	85.3566
6.53825	85.3344
6.53001	85.3611
6.5218	85.5682
6.51361	85.5419
6.50544	85.5916
6.49729	86.0076
6.48915	86.0249
6.48104	85.8313
6.47295	85.6998
6.46488	85.5127
6.45683	85.5485
6.4488	85.6553
6.44079	85.6651
6.4328	85.8187
6.42482	85.9594
6.41687	86.3338
6.40894	86.2097
6.40103	85.7482
6.39314	85.6414
6.38526	85.576
6.37741	85.5701
6.36957	85.6883
6.36176	85.6224
6.35396	85.6311
6.34618	85.8581
6.33843	85.7395
6.33069	85.4478
6.32297	85.4106
6.31527	85.4649
6.30758	85.417
6.29992	85.371
6.29227	85.3879
6.28465	85.3333
6.27704	85.3416
6.26945	85.36
6.26188	85.3987
6.25432	85.409
6.24679	85.3367
6.23927	85.3166
6.23177	85.2982
6.22429	85.3041
6.21683	85.3561
6.20938	85.3813
6.20195	85.32
6.19454	85.3494
6.18715	85.5274
6.17978	85.382
6.17242	85.234
6.16508	85.3307
6.15776	85.3175
6.15045	85.2129
6.14317	85.2637
6.1359	85.3037
6.12864	85.323
6.12141	85.5657
6.11419	85.8704
6.10699	85.7369
6.0998	85.5014
6.09263	85.4197
6.08549	85.4516
6.07835	85.7048
6.07123	85.8631
6.06413	85.6768
6.05705	85.9434
6.04998	86.5015
6.04293	86.1926
6.0359	85.7604
6.02888	85.6337
6.02187	85.6922
6.01489	85.8441
6.00792	85.8403
6.00096	85.8064
5.99403	85.9398
5.98711	85.9927
5.9802	85.9038
5.97331	85.988
5.96644	85.9203
5.95958	85.7588
5.95274	85.8062
5.94591	85.9018
5.9391	86.2407
5.9323	86.1438
5.92552	85.8011
5.91876	85.801
5.91201	85.8752
5.90528	85.9805
5.89856	86.2785
5.89186	86.2364
5.88517	86.2998
5.8785	86.3515
5.87184	86.0278
5.8652	85.9913
5.85857	85.9325
5.85196	85.8599
5.84536	85.8781
5.83878	85.9432
5.83221	86.0567
5.82566	86.1995
5.81912	86.1449
5.81259	85.9803
5.80608	85.9505
5.79959	85.9619
5.79311	85.9544
5.78665	85.9906
5.78019	86.0426
5.77376	86.1859
5.76734	86.4268
5.76093	86.228
5.75453	86.0554
5.74815	86.1286
5.74179	86.0905
5.73543	86.1079
5.7291	86.1129
5.72277	86.1266
5.71646	86.1547
5.71017	86.1661
5.70389	86.0398
5.69762	86.0117
5.69136	86.0647
5.68513	86.0315
5.6789	86.0665
5.67268	86.1112
5.66648	86.067
5.6603	86.1168
5.65413	86.1908
5.64797	86.2345
5.64182	86.3026
5.63569	86.1731
5.62957	86.0325
5.62347	86.0412
5.61737	86.0508
5.61129	86.0063
5.60522	85.9744
5.59917	85.9283
5.59313	85.8558
5.5871	85.7851
5.58109	85.8091
5.57509	85.7503
5.5691	85.6541
5.56312	85.6398
5.55716	85.6889
5.55121	85.7708
5.54528	85.8282
5.53935	85.949
5.53344	86.0295
5.52754	86.0369
5.52166	86.0613
5.51578	86.0391
5.50992	85.9935
5.50407	85.9491
5.49823	85.9013
5.49241	85.9853
5.4866	86.1172
5.4808	86.174
5.47501	86.1258
5.46923	86.1342
5.46347	86.2252
5.45772	86.2218
5.45198	86.192
5.44625	86.1527
5.44054	86.1002
5.43484	86.0807
5.42914	86.1724
5.42347	86.3008
5.4178	86.2343
5.41214	86.0607
5.4065	86.0283
5.40087	86.0676
5.39525	86.062
5.38964	86.0587
5.38404	86.0967
5.37846	86.1053
5.37288	86.0638
5.36732	86.0601
5.36177	86.1305
5.35623	86.1582
5.35071	86.2483
5.34519	86.2154
5.33968	86.1483
5.33419	86.1034
5.32871	86.0711
5.32324	86.1478
5.31778	86.1668
5.31233	86.1126
5.30689	86.1202
5.30147	86.1488
5.29605	86.129
5.29065	86.1461
5.28525	86.1658
5.27987	86.19
5.2745	86.1986
5.26914	86.1837
5.26379	86.1475
5.25845	86.114
5.25312	86.1412
5.24781	86.1796
5.2425	86.1986
5.23721	86.1882
5.23192	86.2232
5.22665	86.2519
5.22138	86.2288
5.21613	86.2523
5.21089	86.2653
5.20566	86.2888
5.20044	86.3347
5.19522	86.2947
5.19002	86.228
5.18483	86.2272
5.17965	86.2125
5.17448	86.1674
5.16933	86.2145
5.16418	86.273
5.15904	86.272
5.15391	86.2659
5.14879	86.271
5.14368	86.208
5.13859	86.1956
5.1335	86.2047
5.12842	86.2135
5.12335	86.2562
5.1183	86.2967
5.11325	86.2773
5.10821	86.2513
5.10318	86.2846
5.09817	86.2962
5.09316	86.2803
5.08816	86.2668
5.08317	86.2663
5.07819	86.2457
5.07322	86.3069
5.06826	86.3567
5.06331	86.2986
5.05837	86.3069
5.05344	86.3501
5.04852	86.2902
5.04361	86.248
5.03871	86.2866
5.03382	86.3362
5.02894	86.3116
5.02406	86.2313
5.0192	86.2424
5.01435	86.248
5.0095	86.2088
5.00467	86.2305
4.99984	86.2798
4.99502	86.3148
4.99021	86.3099
4.98542	86.2891
4.98063	86.3069
4.97585	86.2854
4.97108	86.2455
4.96632	86.2326
4.96156	86.3327
4.95682	86.3645
4.95209	86.3135
4.94736	86.3169
4.94264	86.3313
4.93794	86.318
4.93324	86.3308
4.92855	86.328
4.92387	86.3058
4.9192	86.3195
4.91453	86.3188
4.90988	86.3225
4.90524	86.3644
4.9006	86.3571
4.89597	86.3346
4.89135	86.3806
4.88674	86.3934
4.88214	86.3851
4.87755	86.3482
4.87296	86.3373
4.86839	86.3315
4.86382	86.3963
4.85926	86.4309
4.85471	86.3609
4.85017	86.3306
4.84564	86.3166
4.84111	86.3649
4.8366	86.4087
4.83209	86.4128
4.82759	86.4829
4.8231	86.4312
4.81862	86.4122
4.81415	86.4608
4.80968	86.4472
4.80522	86.3908
4.80077	86.409
4.79633	86.4105
4.7919	86.4178
4.78747	86.4447
4.78306	86.416
4.77865	86.3751
4.77425	86.3531
4.76986	86.3527
4.76547	86.3581
4.7611	86.3979
4.75673	86.3814
4.75237	86.3728
4.74802	86.3598
4.74367	86.3514
4.73934	86.3667
4.73501	86.3426
4.73069	86.3551
4.72638	86.3407
4.72207	86.3128
4.71777	86.3647
4.71348	86.4135
4.7092	86.3575
4.70493	86.3448
4.70066	86.3403
4.69641	86.3223
4.69216	86.277
4.68791	86.2999
4.68368	86.3331
4.67945	86.3505
4.67523	86.3541
4.67102	86.3966
4.66682	86.3993
4.66262	86.3497
4.65843	86.3163
4.65425	86.3683
4.65007	86.3821
4.64591	86.3912
4.64175	86.3934
4.6376	86.3854
4.63345	86.3598
4.62932	86.3135
4.62519	86.3043
4.62106	86.3083
4.61695	86.2765
4.61284	86.3123
4.60874	86.3336
4.60465	86.3092
4.60056	86.3441
4.59648	86.3897
4.59241	86.3772
4.58835	86.3354
4.58429	86.3277
4.58024	86.3582
4.5762	86.3613
4.57216	86.3644
4.56814	86.3615
4.56411	86.3056
4.5601	86.3063
4.55609	86.3653
4.55209	86.4043
4.5481	86.4154
4.54411	86.3803
4.54013	86.4345
4.53616	86.4615
4.5322	86.4092
4.52824	86.3777
4.52429	86.3633
4.52034	86.3759
4.51641	86.4074
4.51247	86.4386
4.50855	86.4168
4.50463	86.3736
4.50072	86.3606
4.49682	86.3744
4.49292	86.3674
4.48903	86.394
4.48515	86.4767
4.48127	86.4413
4.4774	86.3902
4.47354	86.3741
4.46968	86.3099
4.46584	86.345
4.46199	86.3751
4.45815	86.4082
4.45432	86.4128
4.4505	86.3521
4.44668	86.3613
4.44287	86.3842
4.43907	86.4303
4.43527	86.4537
4.43148	86.4082
4.4277	86.3673
4.42392	86.3685
4.42015	86.3723
4.41638	86.3818
4.41262	86.4441
4.40887	86.4087
4.40513	86.3414
4.40139	86.34
4.39765	86.3141
4.39393	86.3995
4.39021	86.4347
4.38649	86.4229
4.38278	86.3658
4.37908	86.3041
4.37539	86.302
4.3717	86.383
4.36801	86.3945
4.36434	86.3795
4.36067	86.3787
4.357	86.3605
4.35335	86.379
4.34969	86.3605
4.34605	86.3304
4.34241	86.3065
4.33877	86.3395
4.33514	86.3416
4.33152	86.2936
4.32791	86.3043
4.3243	86.2615
4.32069	86.226
4.3171	86.2262
4.31351	86.2306
4.30992	86.1561
4.30634	86.0489
4.30277	86.0069
4.2992	85.9838
4.29564	85.9027
4.29208	85.8816
4.28853	85.8961
4.28499	85.8619
4.28145	85.8188
4.27792	85.8066
4.27439	85.8482
4.27087	85.8399
4.26735	85.8405
4.26384	85.9666
4.26034	86.1719
4.25684	86.2801
4.25335	86.1462
4.24986	85.9728
4.24638	85.8485
4.24291	85.8038
4.23944	85.7365
4.23598	85.6355
4.23252	85.637
4.22906	85.6341
4.22562	85.6774
4.22218	85.783
4.21874	85.8354
4.21531	85.9087
4.21189	86.069
4.20847	86.1798
4.20506	86.2832
4.20165	86.3357
4.19825	86.3371
4.19485	86.3481
4.19146	86.3444
4.18807	86.3668
4.18469	86.4133
4.18132	86.4332
4.17795	86.4009
4.17458	86.39
4.17123	86.3601
4.16787	86.3484
4.16453	86.3458
4.16118	86.3346
4.15785	86.337
4.15451	86.3587
4.15119	86.3661
4.14787	86.3231
4.14455	86.3444
4.14124	86.3296
4.13794	86.2798
4.13464	86.3179
4.13134	86.369
4.12805	86.364
4.12477	86.3417
4.12149	86.3362
4.11822	86.3614
4.11495	86.3868
4.11168	86.3385
4.10843	86.3817
4.10517	86.3824
4.10192	86.3876
4.09868	86.3325
4.09545	86.2936
4.09221	86.3352
4.08899	86.3426
4.08576	86.3224
4.08255	86.2861
4.07933	86.2996
4.07613	86.3265
4.07292	86.3112
4.06973	86.2757
4.06654	86.2932
4.06335	86.2884
4.06017	86.277
4.05699	86.2699
4.05382	86.2563
4.05065	86.2609
4.04749	86.2631
4.04433	86.2713
4.04118	86.2476
4.03803	86.3033
4.03489	86.3133
4.03175	86.2467
4.02862	86.22
4.02549	86.2206
4.02237	86.1946
4.01925	86.1369
4.01614	86.0847
4.01303	86.1037
4.00993	86.116
4.00683	86.1205
4.00373	86.0966
4.00064	86.0078
3.99756	85.9064
3.99448	85.906
3.9914	85.9197
3.98833	85.9142
3.98527	85.8891
3.98221	85.8635
3.97915	85.8966
3.9761	85.8687
3.97305	85.8179
3.97001	85.7759
3.96697	85.7534
3.96394	85.7546
3.96091	85.8089
3.95789	85.8608
3.95487	85.8884
3.95186	85.8609
3.94885	85.8893
3.94584	85.9203
3.94284	85.9676
3.93984	85.9923
3.93685	86.0634
3.93386	86.0895
3.93088	86.0453
3.9279	85.9907
3.92493	86.0133
3.92196	86.0248
3.919	86.0709
3.91604	86.1461
3.91308	86.1215
3.91013	86.0816
3.90718	86.0773
3.90424	86.1586
3.9013	86.0938
3.89837	86.0977
3.89544	86.1509
3.89252	86.081
3.8896	86.056
3.88668	86.0299
3.88377	86.0047
3.88086	86.0307
3.87796	86.1088
3.87506	86.1448
3.87217	86.1252
3.86928	86.0362
3.86639	86.0147
3.86351	86.0651
3.86064	86.0451
3.85776	86.039
3.8549	86.0779
3.85203	86.0906
3.84917	86.1131
3.84631	86.0707
3.84346	86.0892
3.84062	86.1251
3.83777	86.1416
3.83494	86.1445
3.8321	86.1768
3.82927	86.1553
3.82644	86.1352
3.82362	86.1226
3.82081	86.0983
3.81799	86.1552
3.81518	86.1364
3.81238	86.0662
3.80958	86.1487
3.80678	86.2105
3.80399	86.1823
3.8012	86.153
3.79841	86.1665
3.79563	86.1935
3.79286	86.2432
3.79008	86.2463
3.78731	86.1714
3.78455	86.1809
3.78179	86.1985
3.77903	86.207
3.77628	86.2193
3.77353	86.1665
3.77079	86.1685
3.76805	86.2335
3.76531	86.2252
3.76258	86.2106
3.75985	86.2538
3.75713	86.2562
3.7544	86.2337
3.75169	86.2127
3.74898	86.1962
3.74627	86.1354
3.74356	86.0943
3.74086	86.1482
3.73816	86.1863
3.73547	86.1658
3.73278	86.1028
3.7301	86.1064
3.72741	86.1704
3.72474	86.2334
3.72206	86.1801
3.71939	86.132
3.71673	86.1197
3.71406	86.1271
3.71141	86.2246
3.70875	86.2423
3.7061	86.2411
3.70345	86.2394
3.70081	86.1822
3.69817	86.1617
3.69553	86.1611
3.6929	86.1766
3.69027	86.1288
3.68765	86.1027
3.68503	86.1372
3.68241	86.1277
3.6798	86.1262
3.67719	86.1308
3.67458	86.1851
3.67198	86.1986
3.66938	86.1394
3.66678	86.0606
3.66419	86.0228
3.66161	86.0679
3.65902	86.122
3.65644	86.1654
3.65387	86.174
3.65129	86.1624
3.64872	86.2102
3.64616	86.1969
3.64359	86.1658
3.64103	86.1532
3.63848	86.2073
3.63593	86.1858
3.63338	86.0962
3.63084	86.0869
3.6283	86.1657
3.62576	86.1603
3.62322	86.093
3.62069	86.1252
3.61817	86.0981
3.61564	86.058
3.61312	86.1302
3.61061	86.1172
3.6081	86.0825
3.60559	86.1283
3.60308	86.1671
3.60058	86.1474
3.59808	86.0826
3.59558	86.0499
3.59309	86.0416
3.59061	86.0002
3.58812	86.0225
3.58564	86.0558
3.58316	86.0944
3.58069	86.0762
3.57822	86.0136
3.57575	85.9663
3.57328	85.9641
3.57082	85.9958
3.56836	86.0751
3.56591	86.0685
3.56346	85.9379
3.56101	85.9118
3.55857	86.0439
3.55613	86.0909
3.55369	86.1003
3.55126	86.0402
3.54883	85.9622
3.5464	86.0144
3.54397	86.0482
3.54155	85.9515
3.53914	85.8745
3.53672	85.885
3.53431	85.9475
3.5319	85.9656
3.5295	85.8949
3.5271	85.8939
3.5247	85.9558
3.52231	85.9712
3.51991	85.8837
3.51753	85.7878
3.51514	85.8066
3.51276	85.8086
3.51038	85.75
3.50801	85.6888
3.50563	85.6196
3.50327	85.6056
3.5009	85.6499
3.49854	85.6538
3.49618	85.5935
3.49382	85.6421
3.49147	85.6422
3.48912	85.6551
3.48677	85.6479
3.48443	85.6156
3.48209	85.6567
3.47975	85.6323
3.47742	85.6295
3.47509	85.6648
3.47276	85.5757
3.47044	85.5282
3.46812	85.5916
3.4658	85.6887
3.46348	85.7135
3.46117	85.6652
3.45886	85.6664
3.45656	85.7067
3.45425	85.7244
3.45195	85.67
3.44966	85.6424
3.44736	85.6448
3.44507	85.5388
3.44279	85.4528
3.4405	85.5434
3.43822	85.6221
3.43594	85.6515
3.43367	85.6158
3.43139	85.5789
3.42912	85.5556
3.42686	85.5407
3.42459	85.4708
3.42233	85.4891
3.42007	85.518
3.41782	85.4659
3.41557	85.4802
3.41332	85.4718
3.41108	85.4313
3.40883	85.4104
3.40659	85.436
3.40435	85.5048
3.40212	85.5911
3.39989	85.5237
3.39766	85.5781
3.39544	85.6935
3.39322	85.7122
3.391	85.6478
3.38878	85.6273
3.38657	85.6529
3.38436	85.6688
3.38215	85.5286
3.37994	85.4638
3.37774	85.507
3.37554	85.5462
3.37335	85.5806
3.37115	85.569
3.36896	85.6158
3.36678	85.5799
3.36459	85.4962
3.36241	85.5648
3.36023	85.625
3.35805	85.6237
3.35588	85.6338
3.35371	85.6493
3.35154	85.6062
3.34938	85.5711
3.34721	85.5855
3.34505	85.6747
3.3429	85.7533
3.34074	85.7244
3.33859	85.6132
3.33644	85.605
3.3343	85.7234
3.33215	85.7312
3.33001	85.7153
3.32788	85.714
3.32574	85.7518
3.32361	85.7892
3.32148	85.8019
3.31936	85.7903
3.31723	85.7867
3.31511	85.7494
3.31299	85.6932
3.31088	85.643
3.30876	85.6494
3.30665	85.7903
3.30455	85.8111
3.30244	85.8127
3.30034	85.7749
3.29824	85.7358
3.29614	85.7974
3.29405	85.8003
3.29196	85.7518
3.28987	85.8147
3.28778	85.8266
3.2857	85.7686
3.28362	85.6878
3.28154	85.7131
3.27946	85.7774
3.27739	85.8058
3.27532	85.7875
3.27325	85.8397
3.27119	85.8491
3.26913	85.8078
3.26707	85.7818
3.26501	85.7531
3.26295	85.6834
3.2609	85.6689
3.25885	85.6818
3.2568	85.6735
3.25476	85.7319
3.25272	85.7654
3.25068	85.6798
3.24864	85.646
3.24661	85.593
3.24458	85.6824
3.24255	85.8013
3.24052	85.8079
3.2385	85.6657
3.23648	85.6164
3.23446	85.7072
3.23244	85.6817
3.23043	85.6579
3.22841	85.7286
3.2264	85.7414
3.2244	85.6845
3.22239	85.6429
3.22039	85.6469
3.21839	85.6104
3.2164	85.5328
3.2144	85.4601
3.21241	85.4379
3.21042	85.5733
3.20844	85.7067
3.20645	85.7507
3.20447	85.6652
3.20249	85.633
3.20051	85.6416
3.19854	85.5995
3.19657	85.5732
3.1946	85.6999
3.19263	85.7023
3.19067	85.6519
3.1887	85.6321
3.18674	85.7008
3.18479	85.6942
3.18283	85.6185
3.18088	85.5385
3.17893	85.5337
3.17698	85.5603
3.17504	85.5844
3.17309	85.6134
3.17115	85.6278
3.16921	85.616
3.16728	85.6135
3.16534	85.5197
3.16341	85.451
3.16148	85.462
3.15956	85.453
3.15763	85.5045
3.15571	85.5827
3.15379	85.5346
3.15187	85.4677
3.14996	85.5309
3.14805	85.5944
3.14614	85.5679
3.14423	85.57
3.14232	85.5521
3.14042	85.4456
3.13852	85.387
3.13662	85.4235
3.13472	85.481
3.13283	85.429
3.13094	85.4368
3.12905	85.5301
3.12716	85.5308
3.12528	85.5179
3.12339	85.4781
3.12151	85.4402
3.11964	85.481
3.11776	85.53
3.11589	85.5232
3.11401	85.4811
3.11214	85.4712
3.11028	85.3864
3.10841	85.3683
3.10655	85.3983
3.10469	85.4106
3.10283	85.4378
3.10098	85.5101
3.09912	85.5273
3.09727	85.3868
3.09542	85.3973
3.09358	85.431
3.09173	85.3504
3.08989	85.3571
3.08805	85.494
3.08621	85.5099
3.08437	85.4337
3.08254	85.4031
3.08071	85.4963
3.07888	85.5433
3.07705	85.402
3.07523	85.246
3.0734	85.1973
3.07158	85.329
3.06977	85.3699
3.06795	85.3288
3.06613	85.3098
3.06432	85.3637
3.06251	85.3292
3.0607	85.3044
3.0589	85.3028
3.0571	85.3477
3.05529	85.4662
3.05349	85.4815
3.0517	85.3956
3.0499	85.3915
3.04811	85.4103
3.04632	85.3208
3.04453	85.2377
3.04274	85.1999
3.04096	85.2344
3.03918	85.3085
3.0374	85.2438
3.03562	85.1544
3.03384	85.2305
3.03207	85.2657
3.03029	85.3095
3.02852	85.3568
3.02676	85.2463
3.02499	85.2205
3.02323	85.3645
3.02146	85.3134
3.0197	85.2146
3.01795	85.1724
3.01619	85.3046
3.01444	85.3286
3.01269	85.2677
3.01094	85.3242
3.00919	85.3532
3.00744	85.3279
3.0057	85.2635
3.00396	85.1438
3.00222	85.0459
3.00048	85.0808
2.99875	85.1983
2.99701	85.2899
2.99528	85.3734
2.99355	85.336
2.99183	85.1831
2.9901	85.1832
2.98838	85.2692
2.98666	85.3349
2.98494	85.2917
2.98322	85.226
2.9815	85.2874
2.97979	85.2822
2.97808	85.2303
2.97637	85.1824
2.97466	85.1737
2.97295	85.1784
2.97125	85.2282
2.96955	85.3898
2.96785	85.4161
2.96615	85.2853
2.96446	85.1621
2.96276	85.1334
2.96107	85.2577
2.95938	85.2567
2.95769	85.1789
2.95601	85.1788
2.95432	85.1467
2.95264	85.0982
2.95096	85.1039
2.94928	85.1725
2.9476	85.1679
2.94593	85.1837
2.94425	85.1734
2.94258	85.1765
2.94092	85.2265
2.93925	85.166
2.93758	85.0944
2.93592	85.1162
2.93426	85.0866
2.9326	85.1495
2.93094	85.2313
2.92928	85.174
2.92763	85.1878
2.92598	85.1997
2.92433	85.1905
2.92268	85.2063
2.92103	85.2699
2.91939	85.2816
2.91775	85.13
2.9161	85.1877
2.91447	85.2385
2.91283	85.1229
2.91119	85.0913
2.90956	85.2649
2.90793	85.2903
2.9063	85.2121
2.90467	85.1506
2.90304	85.2326
2.90142	85.3455
2.89979	85.24
2.89817	85.0898
2.89656	85.1661
2.89494	85.2839
2.89332	85.2647
2.89171	85.2478
2.8901	85.2014
2.88849	85.221
2.88688	85.2873
2.88527	85.2336
2.88367	85.228
2.88206	85.1967
2.88046	85.1209
2.87886	85.1677
2.87727	85.2542
2.87567	85.2732
2.87408	85.2671
2.87248	85.2544
2.87089	85.1853
2.8693	85.1828
2.86772	85.1621
2.86613	85.2018
2.86455	85.1855
2.86297	85.1353
2.86139	85.1092
2.85981	85.1615
2.85823	85.2327
2.85666	85.2591
2.85508	85.2944
2.85351	85.2122
2.85194	85.1711
2.85038	85.1011
2.84881	85.0416
2.84724	85.1667
2.84568	85.1757
2.84412	85.0473
2.84256	85.0288
2.841	85.1138
2.83945	85.2038
2.83789	85.3239
2.83634	85.1915
2.83479	85.0046
2.83324	85.1004
2.83169	85.2461
2.83015	85.2634
2.82861	85.2124
2.82706	85.2176
2.82552	85.1683
2.82398	84.9652
2.82245	84.8461
2.82091	85.0115
2.81938	85.177
2.81784	85.2041
2.81631	85.1345
2.81479	85.1298
2.81326	85.0308
2.81173	84.9313
2.81021	84.9568
2.80869	84.967
2.80716	85.1115
2.80565	85.2176
2.80413	85.1471
2.80261	85.1081
2.8011	85.1162
2.79959	85.1875
2.79808	85.0964
2.79657	84.8902
2.79506	84.8087
2.79355	84.9353
2.79205	85.0871
2.79055	85.2032
2.78904	85.219
2.78754	85.4089
2.78605	85.2252
2.78455	84.8403
2.78306	84.8626
2.78156	84.8411
2.78007	84.9601
2.77858	85.1695
2.77709	85.2467
2.77561	84.7699
2.77412	84.6381
2.77264	84.8742
2.77116	84.9169
2.76968	84.8843
2.7682	84.8874
2.76672	84.9133
2.76524	84.7459
2.76377	84.6922
2.7623	84.7862
2.76083	84.9941
2.75936	85.2019
2.75789	85.2172
2.75642	85.2228
2.75496	85.2905
2.7535	85.1723
2.75203	84.9297
2.75057	84.8915
2.74912	84.9203
2.74766	85.006
2.7462	85.0085
2.74475	85.071
2.7433	85.234
2.74185	85.3588
2.7404	85.4209
2.73895	85.3662
2.7375	85.1833
2.73606	85.27
2.73462	85.3261
2.73318	85.2935
2.73174	85.2697
2.7303	85.3821
2.72886	85.3765
2.72742	85.4097
2.72599	85.5622
2.72456	85.7118
2.72313	85.6458
2.7217	85.7236
2.72027	85.9675
2.71884	85.7517
2.71742	85.5085
2.71599	85.4308
2.71457	85.5216
2.71315	85.6883
2.71173	85.8784
2.71032	85.8545
2.7089	85.7475
2.70748	85.6352
2.70607	85.5743
2.70466	85.6898
2.70325	85.7328
2.70184	85.8132
2.70043	85.8842
2.69903	85.789
2.69762	85.7898
2.69622	86.0127
2.69482	86.2172
2.69342	86.1065
2.69202	85.8592
2.69062	85.8975
2.68923	85.9704
2.68783	85.9613
2.68644	85.9746
2.68505	86.0138
2.68366	86.0812
2.68227	86.0885
2.68089	86.0996
2.6795	86.195
2.67812	86.2656
2.67673	86.4233
2.67535	86.358
2.67397	86.1258
2.6726	86.0682
2.67122	86.46
2.66984	86.52
2.66847	86.2491
2.6671	86.3485
2.66572	86.464
2.66435	86.3358
2.66299	86.2046
2.66162	86.1695
2.66025	86.093
2.65889	85.998
2.65753	86.0085
2.65616	86.1312
2.65481	85.9764
2.65345	85.9643
2.65209	86.1113
2.65073	86.0484
2.64938	85.9755
2.64803	85.8949
2.64667	86.0332
2.64532	86.1017
2.64397	85.9045
2.64263	85.9308
2.64128	85.9432
2.63994	85.9098
2.63859	85.9516
2.63725	86.0727
2.63591	86.1925
2.63457	86.1803
2.63323	86.0693
2.6319	86.1472
2.63056	86.1549
2.62923	85.9602
2.62789	85.9623
2.62656	86.124
2.62523	86.0255
2.6239	85.8979
2.62258	85.915
2.62125	86.1369
2.61993	86.2565
2.6186	86.1996
2.61728	86.4438
2.61596	86.319
2.61464	86.0257
2.61332	86.0018
2.61201	85.997
2.61069	86.0223
2.60938	86.0833
2.60807	86.0291
2.60675	86.0725
2.60544	86.1737
2.60414	86.1071
2.60283	86.1567
2.60152	86.1949
2.60022	86.1281
2.59891	86.0379
2.59761	86.012
2.59631	86.3621
2.59501	86.7259
2.59371	86.4758
2.59242	86.1075
2.59112	85.9394
2.58983	86.0193
2.58853	86.2201
2.58724	86.2281
2.58595	86.1402
2.58466	86.252
2.58338	86.2195
2.58209	86.1781
2.5808	86.2066
2.57952	86.0598
2.57824	86.08
2.57695	86.1985
2.57567	86.1651
2.5744	86.1296
2.57312	86.126
2.57184	86.0966
2.57057	86.1992
2.56929	86.1101
2.56802	85.8608
2.56675	85.7912
2.56548	85.9384
2.56421	86.1229
2.56294	86.2606
2.56168	86.218
2.56041	86.0788
2.55915	86.049
2.55789	86.0043
2.55662	86.0642
2.55536	85.9622
2.5541	85.8382
2.55285	85.8649
2.55159	85.9034
2.55034	85.9909
2.54908	86.0572
2.54783	86.0712
2.54658	86.0507
2.54533	86.1124
2.54408	86.0903
2.54283	85.9678
2.54159	85.918
2.54034	85.859
2.5391	85.8938
2.53785	86.0798
2.53661	86.1265
2.53537	86.077
2.53413	86.0429
2.53289	86.026
2.53166	86.0013
2.53042	85.8928
2.52919	85.8894
2.52795	85.9384
2.52672	85.9784
2.52549	85.9311
2.52426	85.802
2.52303	85.8578
2.52181	85.8967
2.52058	85.9925
2.51936	86.0174
2.51813	85.8817
2.51691	85.8699
2.51569	85.963
2.51447	86.0342
2.51325	85.9753
2.51203	85.8734
2.51082	85.7997
2.5096	85.7992
2.50839	85.8352
2.50717	85.8645
2.50596	85.9418
2.50475	86.0048
2.50354	86.1032
2.50233	85.9934
2.50113	85.8495
2.49992	85.871
2.49872	85.9627
2.49751	86.0461
2.49631	85.9397
2.49511	85.8571
2.49391	85.8241
2.49271	85.8079
2.49151	85.7538
2.49031	85.7997
2.48912	85.8599
2.48792	85.8425
2.48673	85.933
2.48554	86.0297
2.48435	85.907
2.48316	85.7914
2.48197	85.9013
2.48078	85.9473
2.4796	85.879
2.47841	85.8703
2.47723	85.9377
2.47604	85.8915
2.47486	85.7477
2.47368	85.7356
2.4725	85.7859
2.47132	85.8456
2.47014	85.8522
2.46897	85.8973
2.46779	86.0242
2.46662	86.0168
2.46545	85.8364
2.46427	85.8153
2.4631	85.8847
2.46193	85.9192
2.46077	85.8695
2.4596	85.8257
2.45843	85.8764
2.45727	85.8657
2.4561	85.8048
2.45494	85.7582
2.45378	85.6269
2.45262	85.7099
2.45146	85.8123
2.4503	85.8083
2.44914	85.9211
2.44799	86.0694
2.44683	85.9695
2.44568	85.758
2.44452	85.7529
2.44337	85.7722
2.44222	85.8952
2.44107	86.0196
2.43992	85.989
2.43877	85.8914
2.43763	85.8673
2.43648	85.8629
2.43534	85.9207
2.43419	85.9137
2.43305	85.9117
2.43191	85.9056
2.43077	85.9378
2.42963	86.0025
2.42849	85.999
2.42736	85.8949
2.42622	85.8554
2.42509	85.9088
2.42395	85.8586
2.42282	85.8255
2.42169	85.9692
2.42056	86.1352
2.41943	86.152
2.4183	85.9158
2.41717	85.7392
2.41605	85.835
2.41492	85.8333
2.4138	85.7662
2.41267	85.8321
2.41155	85.9318
2.41043	85.8257
2.40931	85.7596
2.40819	85.7439
2.40707	85.8755
2.40595	86.0113
2.40484	85.9947
2.40372	85.8805
2.40261	85.8633
2.4015	85.8286
2.40039	85.8481
2.39928	85.8973
2.39817	85.8368
2.39706	85.8762
2.39595	86.044
2.39484	86.0454
2.39374	85.7976
2.39263	85.6855
2.39153	85.7745
2.39043	85.8515
2.38932	85.8202
2.38822	85.8661
2.38712	85.8957
2.38603	85.9875
2.38493	85.9145
2.38383	85.7467
2.38274	85.7035
2.38164	85.7484
2.38055	85.8665
2.37946	85.9188
2.37836	85.8394
2.37727	85.8661
2.37618	85.8846
2.3751	85.8852
2.37401	85.869
2.37292	85.8609
2.37184	85.8708
2.37075	85.8094
2.36967	85.7504
2.36859	85.7793
2.3675	85.8673
2.36642	85.939
2.36534	85.9651
2.36427	85.8789
2.36319	85.764
2.36211	85.7794
2.36104	85.8941
2.35996	85.8877
2.35889	85.8702
2.35781	85.9685
2.35674	85.8126
2.35567	85.7538
2.3546	85.8176
2.35353	85.8465
2.35247	85.7653
2.3514	85.7295
2.35033	85.8137
2.34927	85.7826
2.3482	85.8259
2.34714	85.8759
2.34608	85.7672
2.34502	85.7421
2.34396	85.9061
2.3429	85.8389
2.34184	85.6974
2.34078	85.8032
2.33973	85.9581
2.33867	85.9691
2.33762	85.7904
2.33656	85.5789
2.33551	85.6606
2.33446	85.8283
2.33341	85.8244
2.33236	85.8579
2.33131	85.8416
2.33026	85.7236
2.32922	85.6421
2.32817	85.6937
2.32712	85.6997
2.32608	85.7534
2.32504	85.7813
2.324	85.823
2.32295	85.907
2.32191	85.8141
2.32087	85.8622
2.31984	85.894
2.3188	85.805
2.31776	85.7406
2.31673	85.7733
2.31569	85.8525
2.31466	85.8232
2.31362	85.8171
2.31259	85.912
2.31156	85.9532
2.31053	85.9804
2.3095	85.8698
2.30847	85.7704
2.30745	85.946
2.30642	85.9814
2.3054	85.8854
2.30437	85.8398
2.30335	85.7794
2.30232	85.6683
2.3013	85.6472
2.30028	85.5895
2.29926	85.4557
2.29824	85.5555
2.29722	85.795
2.29621	85.8134
2.29519	85.828
2.29417	85.9399
2.29316	85.8782
2.29215	85.83
2.29113	85.8002
2.29012	85.7985
2.28911	85.8851
2.2881	85.7685
2.28709	85.6922
2.28608	85.7433
2.28507	85.7156
2.28407	85.6763
2.28306	85.6896
2.28206	85.6359
2.28105	85.5532
2.28005	85.4665
2.27905	85.5267
2.27805	85.6118
2.27705	85.7083
2.27605	85.8464
2.27505	85.8212
2.27405	85.6845
2.27305	85.6976
2.27206	85.8161
2.27106	85.752
2.27007	85.7604
2.26907	85.8209
2.26808	85.7892
2.26709	85.6888
2.2661	85.6315
2.26511	85.6146
2.26412	85.6721
2.26313	85.7605
2.26214	85.8066
2.26116	85.8187
2.26017	85.7916
2.25919	85.6312
2.2582	85.5251
2.25722	85.671
2.25624	85.8474
2.25526	85.8926
2.25428	85.8007
2.2533	85.7462
2.25232	85.8374
2.25134	85.7582
2.25036	85.6859
2.24939	85.6415
2.24841	85.6599
2.24744	85.8047
2.24646	85.6461
2.24549	85.5268
2.24452	85.6141
2.24355	85.7134
2.24257	85.7314
2.24161	85.6883
2.24064	85.644
2.23967	85.7253
2.2387	85.7594
2.23774	85.7081
2.23677	85.6468
2.23581	85.6494
2.23484	85.5406
2.23388	85.5476
2.23292	85.6499
2.23196	85.6483
2.231	85.7188
2.23004	85.8331
2.22908	85.7656
2.22812	85.7228
2.22716	85.8438
2.22621	85.9211
2.22525	85.7493
2.2243	85.6838
2.22334	85.6068
2.22239	85.4906
2.22144	85.6097
2.22049	85.7323
2.21953	85.7514
2.21859	85.8718
2.21764	85.9105
2.21669	85.7324
2.21574	85.6144
2.21479	85.8421
2.21385	85.9643
2.2129	85.941
2.21196	85.7777
2.21102	85.5889
2.21007	85.5562
2.20913	85.6048
2.20819	85.7915
2.20725	85.9008
2.20631	85.8705
2.20537	85.6073
2.20444	85.5841
2.2035	85.6117
2.20256	85.7487
2.20163	85.7798
2.20069	85.6389
2.19976	85.6434
2.19883	85.6584
2.19789	85.6733
2.19696	85.7055
2.19603	85.7231
2.1951	85.7432
2.19417	85.8018
2.19325	85.8062
2.19232	85.7933
2.19139	85.7223
2.19047	85.6214
2.18954	85.5475
2.18862	85.4433
2.18769	85.3315
2.18677	85.3344
2.18585	85.5659
2.18493	85.7121
2.18401	85.714
2.18309	85.8085
2.18217	85.9318
2.18125	85.9071
2.18033	85.8712
2.17942	85.8469
2.1785	85.7839
2.17759	85.7431
2.17667	85.7716
2.17576	85.8577
2.17485	85.7762
2.17393	85.6444
2.17302	85.6615
2.17211	85.6869
2.1712	85.5321
2.17029	85.5291
2.16939	85.5584
2.16848	85.5735
2.16757	85.6638
2.16667	85.5059
2.16576	85.4215
2.16486	85.4316
2.16395	85.5117
2.16305	85.612
2.16215	85.6649
2.16125	85.7491
2.16035	85.5984
2.15945	85.4771
2.15855	85.6321
2.15765	85.7408
2.15675	85.7238
2.15586	85.7284
2.15496	85.6731
2.15406	85.646
2.15317	85.6466
2.15228	85.7511
2.15138	85.6184
2.15049	85.4733
2.1496	85.6874
2.14871	85.6199
2.14782	85.4005
2.14693	85.4139
2.14604	85.5597
2.14515	85.6013
2.14427	85.5061
2.14338	85.4639
2.14249	85.7058
2.14161	85.7723
2.14072	86.0115
2.13984	85.7312
2.13896	85.3216
2.13808	85.6898
2.13719	85.9123
2.13631	85.5353
2.13543	85.203
2.13455	85.3694
2.13368	85.6345
2.1328	85.5762
2.13192	85.4172
2.13105	85.4837
2.13017	85.5717
2.1293	85.6734
2.12842	85.6856
2.12755	85.5453
2.12668	85.3916
2.1258	85.6054
2.12493	85.8136
2.12406	85.7096
2.12319	85.7943
2.12232	85.8267
2.12145	85.6773
2.12059	85.7266
2.11972	85.6966
2.11885	85.6753
2.11799	85.5867
2.11712	85.3798
2.11626	85.4615
2.1154	85.5945
2.11453	85.4911
2.11367	85.4374
2.11281	85.4207
2.11195	85.7355
2.11109	85.8694
2.11023	85.6711
2.10937	85.4312
2.10851	85.4122
2.10766	85.3724
2.1068	85.5091
2.10594	85.5505
2.10509	85.5161
2.10423	85.5118
2.10338	85.4394
2.10253	85.6037
2.10168	85.5588
2.10082	85.5441
2.09997	85.6494
2.09912	85.6452
2.09827	85.6792
2.09742	85.5928
2.09658	85.3828
2.09573	85.3726
2.09488	85.4519
2.09404	85.543
2.09319	85.5795
2.09235	85.5547
2.0915	85.6673
2.09066	85.7108
2.08982	85.5111
2.08897	85.2981
2.08813	85.4037
2.08729	85.4263
2.08645	85.4156
2.08561	85.5328
2.08477	85.3968
2.08394	85.3804
2.0831	85.3359
2.08226	85.4304
2.08143	85.5633
2.08059	85.5347
2.07976	85.3795
2.07892	85.1644
2.07809	85.414
2.07726	85.6462
2.07643	85.5541
2.07559	85.4591
2.07476	85.3635
2.07393	85.4224
2.0731	85.7567
2.07228	85.6782
2.07145	85.5402
2.07062	85.6671
2.06979	85.6966
2.06897	85.485
2.06814	85.577
2.06732	85.8014
2.06649	85.8284
2.06567	85.529
2.06485	85.2966
2.06403	85.3074
2.0632	85.3332
2.06238	85.429
2.06156	85.584
2.06074	85.4762
2.05993	85.4254
2.05911	85.6596
2.05829	85.7092
2.05747	85.6368
2.05666	85.6381
2.05584	85.7906
2.05503	85.6671
2.05421	85.4274
2.0534	85.54
2.05259	85.6157
2.05177	85.3451
2.05096	85.3216
2.05015	85.4435
2.04934	85.3953
2.04853	85.2898
2.04772	85.4077
2.04691	85.5332
2.04611	85.621
2.0453	85.6332
2.04449	85.4452
2.04369	85.3867
2.04288	85.3725
2.04208	85.494
2.04127	85.4607
2.04047	85.2286
2.03967	85.4723
2.03886	85.8447
2.03806	85.5851
2.03726	85.1675
2.03646	85.3148
2.03566	85.4156
2.03486	85.2858
2.03407	85.1127
2.03327	85.1465
2.03247	85.4505
2.03167	85.5706
2.03088	85.4709
2.03008	85.1909
2.02929	85.3777
2.0285	85.46
2.0277	85.1233
2.02691	85.4324
2.02612	85.6719
2.02533	85.6764
2.02453	85.5781
2.02374	85.327
2.02295	85.3397
2.02217	85.6144
2.02138	85.6052
2.02059	85.468
2.0198	85.5158
2.01902	85.4738
2.01823	85.4938
2.01744	85.6633
2.01666	85.6361
2.01588	85.4654
2.01509	85.4098
2.01431	85.3959
2.01353	85.5085
2.01275	85.6668
2.01196	85.4886
2.01118	85.5992
2.0104	85.7416
2.00963	85.4795
2.00885	85.49
2.00807	85.603
2.00729	85.7012
2.00651	85.6483
2.00574	85.4251
2.00496	85.3831
2.00419	85.4548
2.00341	85.5406
2.00264	85.6522
2.00187	85.797
2.00109	85.663
2.00032	85.2402
