Name: Realgar AsS
Type: Mineral
Class: Sulfides
Subclass: 
Particle Size: 125-500um
Sample No.: S-3A
Owner: JPL
Wavelength range: IR
Origin: 
Collected by JPL
Description: 





Measurement: Hemispherical reflectance
First Column: X
Second Column: Y
X Units:  Wavelength (micrometers)
Y Units:  Reflectance (percent)
First X Value: 15.3853
Last X Value: 2.00032
Number of X Values: 2256
Additional information: s03aa.txt
 
15.3853	16.6048
15.3397	16.3173
15.2945	15.8726
15.2495	15.4776
15.2048	15.0246
15.1603	14.5697
15.1161	13.9127
15.0722	13.15
15.0285	12.6918
14.9851	12.2356
14.9419	11.6928
14.8989	11.4479
14.8563	11.1723
14.8138	10.7314
14.7716	10.4223
14.7296	10.1633
14.6879	9.79388
14.6464	9.63341
14.6052	9.64547
14.5641	9.63149
14.5233	9.32292
14.4828	9.08566
14.4424	9.00809
14.4023	8.90467
14.3624	8.95597
14.3227	9.46587
14.2833	10.2484
14.244	11.0759
14.205	11.4786
14.1662	11.5709
14.1276	11.639
14.0892	11.7551
14.051	11.9213
14.0131	11.7989
13.9753	11.613
13.9377	11.5618
13.9004	11.5649
13.8632	11.7625
13.8262	12.0767
13.7895	12.3887
13.7529	12.8012
13.7165	13.2211
13.6803	13.4994
13.6443	13.626
13.6085	13.6769
13.5729	13.8473
13.5374	14.3439
13.5022	14.9835
13.4671	15.362
13.4322	15.704
13.3975	16.0231
13.363	16.2184
13.3286	16.7125
13.2944	17.4613
13.2604	17.8219
13.2266	18.2427
13.193	18.6842
13.1595	18.9628
13.1262	19.3011
13.093	19.6188
13.06	19.6239
13.0272	19.5626
12.9946	19.7612
12.9621	19.9399
12.9298	19.9574
12.8976	20.0015
12.8656	20.1477
12.8337	20.2097
12.8021	20.2864
12.7705	20.3313
12.7391	20.2014
12.7079	20.1627
12.6769	20.1716
12.6459	20.0581
12.6152	19.8648
12.5845	19.9547
12.5541	20.1603
12.5238	20.2862
12.4936	20.3642
12.4635	20.2355
12.4337	20.2118
12.4039	20.3933
12.3743	20.4317
12.3448	20.402
12.3155	20.4934
12.2863	20.5963
12.2573	20.6797
12.2284	20.7778
12.1996	20.8495
12.171	20.9387
12.1425	21.1218
12.1141	21.2698
12.0859	21.3993
12.0578	21.5398
12.0298	21.7048
12.0019	21.9701
11.9742	22.1292
11.9466	22.2186
11.9192	22.2596
11.8918	22.3808
11.8646	22.6979
11.8375	22.9952
11.8106	23.2452
11.7837	23.5806
11.757	23.9473
11.7304	24.2333
11.7039	24.588
11.6776	24.9478
11.6513	25.2139
11.6252	25.437
11.5992	25.6587
11.5733	25.9703
11.5475	26.232
11.5219	26.3303
11.4963	26.455
11.4709	26.6204
11.4455	27.0143
11.4203	27.3814
11.3952	27.3969
11.3702	27.52
11.3454	27.7934
11.3206	28.0444
11.2959	28.307
11.2714	28.6126
11.2469	28.8188
11.2226	29.0503
11.1983	29.2943
11.1742	29.4845
11.1502	29.6637
11.1263	29.9143
11.1024	30.2553
11.0787	30.5132
11.0551	30.5939
11.0316	30.8007
11.0081	31.1777
10.9848	31.5265
10.9616	31.7212
10.9385	31.9197
10.9154	32.1712
10.8925	32.3084
10.8697	32.5134
10.8469	32.8382
10.8243	33.127
10.8017	33.3925
10.7793	33.6839
10.7569	33.93
10.7346	34.1329
10.7125	34.4008
10.6904	34.6818
10.6684	34.9023
10.6465	35.1324
10.6247	35.4867
10.6029	35.7592
10.5813	35.9418
10.5597	36.1963
10.5383	36.4103
10.5169	36.5896
10.4956	36.8382
10.4744	37.0233
10.4533	37.2091
10.4323	37.464
10.4113	37.6603
10.3904	37.8035
10.3697	37.9156
10.349	38.0011
10.3284	38.0643
10.3078	38.1509
10.2874	38.0967
10.267	37.9611
10.2467	37.8486
10.2265	37.8228
10.2064	37.7222
10.1863	37.5776
10.1663	37.534
10.1464	37.3877
10.1266	37.1173
10.1069	36.8603
10.0872	36.7704
10.0676	36.7898
10.0481	36.757
10.0287	36.5978
10.0093	36.5
9.99005	36.4865
9.97084	36.3069
9.95169	36.1038
9.93263	35.9523
9.91364	35.8438
9.89472	35.6558
9.87587	35.4132
9.8571	35.2041
9.83839	34.976
9.81976	34.7999
9.80119	34.6511
9.78271	34.5098
9.76428	34.4474
9.74592	34.3439
9.72764	34.2658
9.70943	34.1905
9.69128	34.077
9.6732	33.9491
9.65518	33.8353
9.63724	33.7673
9.61935	33.8309
9.60155	33.7967
9.5838	33.7658
9.56611	33.7546
9.5485	33.6703
9.53094	33.7019
9.51345	33.7214
9.49604	33.719
9.47867	33.8491
9.46137	34.0442
9.44414	34.0978
9.42697	34.1753
9.40986	34.3829
9.39281	34.5354
9.37583	34.5981
9.35891	34.6973
9.34204	34.7359
9.32524	34.8705
9.3085	34.9992
9.29182	35.1253
9.27519	35.215
9.25863	35.3243
9.24213	35.4847
9.22568	35.4689
9.2093	35.5656
9.19297	35.7719
9.17669	35.8511
9.16048	35.9277
9.14433	36.1008
9.12823	36.2922
9.11218	36.4098
9.0962	36.4243
9.08027	36.4085
9.06439	36.5384
9.04858	36.6122
9.03281	36.6533
9.0171	36.7
9.00145	36.7004
8.98585	36.824
8.9703	37.0265
8.9548	37.1181
8.93937	37.2061
8.92398	37.2931
8.90865	37.5206
8.89337	37.6654
8.87814	37.7004
8.86296	37.8667
8.84784	38.1653
8.83277	38.3238
8.81774	38.3166
8.80277	38.4134
8.78786	38.5238
8.77298	38.7
8.75816	38.8813
8.7434	38.9802
8.72868	39.1091
8.714	39.3913
8.69938	39.7117
8.68481	39.8491
8.67029	39.9569
8.65581	40.186
8.64139	40.4644
8.62701	40.6585
8.61268	40.8219
8.5984	40.9451
8.58416	41.0763
8.56997	41.2801
8.55583	41.4855
8.54174	41.7684
8.52769	42.0872
8.51368	42.3008
8.49973	42.4014
8.48582	42.5831
8.47195	42.9114
8.45813	43.1011
8.44436	43.2598
8.43062	43.5125
8.41693	43.7782
8.4033	44.0269
8.3897	44.2675
8.37614	44.4314
8.36264	44.6546
8.34917	44.8335
8.33574	44.9544
8.32236	45.1257
8.30903	45.3056
8.29573	45.4429
8.28248	45.6625
8.26927	45.9502
8.2561	46.189
8.24298	46.3502
8.2299	46.546
8.21685	46.7167
8.20385	46.8472
8.19089	47.011
8.17797	47.2338
8.16509	47.389
8.15225	47.4777
8.13946	47.628
8.1267	47.8012
8.11398	47.916
8.10131	48.0266
8.08867	48.1982
8.07606	48.3481
8.0635	48.4344
8.05099	48.4828
8.0385	48.5949
8.02606	48.751
8.01366	48.874
8.00129	48.945
7.98896	48.9545
7.97667	48.9518
7.96442	48.9926
7.9522	49.0024
7.94002	49.0278
7.92788	49.1486
7.91578	49.2645
7.90371	49.2759
7.89168	49.3597
7.87969	49.4327
7.86773	49.5102
7.85581	49.5364
7.84392	49.5715
7.83207	49.6657
7.82026	49.6935
7.80849	49.7631
7.79674	49.8322
7.78503	49.8322
7.77337	49.8565
7.76173	49.9242
7.75012	49.9459
7.73856	50.0355
7.72703	50.1746
7.71553	50.1702
7.70406	50.1781
7.69263	50.2154
7.68123	50.2403
7.66987	50.2666
7.65855	50.3277
7.64725	50.3037
7.63598	50.2871
7.62475	50.3745
7.61356	50.4568
7.60239	50.5072
7.59126	50.6454
7.58017	50.7633
7.5691	50.772
7.55806	50.811
7.54707	50.9507
7.5361	50.9842
7.52516	50.9317
7.51425	50.9308
7.50338	50.9886
7.49253	50.9929
7.48172	51.0577
7.47094	51.1303
7.46019	51.097
7.44947	51.1001
7.43879	51.1036
7.42813	51.0528
7.4175	51.0373
7.4069	51.0098
7.39634	50.9889
7.3858	50.9431
7.37529	50.984
7.36482	51.0242
7.35437	50.9628
7.34396	50.9904
7.33357	50.9609
7.32321	50.8494
7.31288	50.7785
7.30258	50.6981
7.29231	50.7119
7.28207	50.7905
7.27185	50.7727
7.26167	50.6108
7.25152	50.5526
7.24139	50.5755
7.23129	50.6107
7.22122	50.6023
7.21117	50.6915
7.20116	50.6383
7.19117	50.5441
7.18121	50.615
7.17128	50.6575
7.16137	50.5536
7.1515	50.4351
7.14164	50.2818
7.13182	50.053
7.12203	50.0315
7.11225	50.0106
7.10251	49.8534
7.0928	49.7002
7.08311	49.5778
7.07344	49.5091
7.06381	49.4561
7.0542	49.5434
7.04461	49.557
7.03506	49.3086
7.02552	49.1312
7.01601	49.0047
7.00653	48.9529
6.99708	48.9671
6.98765	48.903
6.97824	48.8796
6.96886	49.0047
6.95951	49.0988
6.95018	48.8777
6.94087	48.7493
6.9316	48.6942
6.92234	48.7298
6.91311	48.7988
6.90391	48.8372
6.89473	48.7913
6.88557	48.8631
6.87644	48.9769
6.86733	49.3056
6.85824	49.3611
6.84918	49.1274
6.84015	49.0175
6.83114	49.2091
6.82215	49.3303
6.81319	49.2718
6.80424	49.3942
6.79532	49.8182
6.78643	50.0798
6.77756	50.0978
6.76871	50.075
6.75989	50.0644
6.75109	50.1625
6.74231	50.1877
6.73355	50.2228
6.72482	50.3623
6.71611	50.4896
6.70742	50.4732
6.69875	50.3065
6.69011	50.3747
6.68149	50.5246
6.67289	50.4375
6.66431	50.3205
6.65576	50.2368
6.64722	50.4226
6.63871	50.7952
6.63022	50.5277
6.62175	50.1168
6.61331	50.0059
6.60488	49.9789
6.59648	49.9957
6.5881	49.9119
6.57974	49.8759
6.5714	49.9234
6.56308	49.6582
6.55478	49.4851
6.54651	49.2357
6.53825	49.0453
6.53001	48.9976
6.5218	49.0396
6.51361	48.7995
6.50544	48.7468
6.49729	49.0281
6.48915	48.9149
6.48104	48.4656
6.47295	48.1728
6.46488	47.8202
6.45683	47.5734
6.4488	47.4342
6.44079	47.272
6.4328	47.1221
6.42482	47.0854
6.41687	47.3704
6.40894	47.0048
6.40103	46.2844
6.39314	45.908
6.38526	45.5705
6.37741	45.4284
6.36957	45.248
6.36176	44.7772
6.35396	44.4979
6.34618	44.4143
6.33843	43.8863
6.33069	43.3094
6.32297	42.886
6.31527	42.3973
6.30758	41.9526
6.29992	41.5603
6.29227	41.184
6.28465	40.7058
6.27704	40.1773
6.26945	39.6915
6.26188	39.1494
6.25432	38.6249
6.24679	38.1403
6.23927	37.6533
6.23177	37.2066
6.22429	36.713
6.21683	36.1682
6.20938	35.6792
6.20195	35.1692
6.19454	34.725
6.18715	34.5039
6.17978	34.0584
6.17242	33.4635
6.16508	33.1213
6.15776	32.8386
6.15045	32.4216
6.14317	32.1345
6.1359	31.9093
6.12864	31.6923
6.12141	31.7227
6.11419	31.6785
6.10699	31.3553
6.0998	31.1817
6.09263	31.1553
6.08549	31.2287
6.07835	31.5269
6.07123	31.6989
6.06413	31.658
6.05705	31.9227
6.04998	32.4787
6.04293	32.4329
6.0359	32.3433
6.02888	32.5586
6.02187	32.7828
6.01489	33.0808
6.00792	33.3333
6.00096	33.7001
5.99403	34.2137
5.98711	34.5721
5.9802	34.8524
5.97331	35.4482
5.96644	35.908
5.95958	36.1623
5.95274	36.6638
5.94591	37.3166
5.9391	38.1755
5.9323	38.596
5.92552	38.8285
5.91876	39.3701
5.91201	39.9032
5.90528	40.5296
5.89856	41.4322
5.89186	42.0511
5.88517	42.7301
5.8785	43.3361
5.87184	43.5899
5.8652	44.242
5.85857	44.8884
5.85196	45.4346
5.84536	45.9838
5.83878	46.714
5.83221	47.5029
5.82566	48.3471
5.81912	48.9221
5.81259	49.1841
5.80608	49.6403
5.79959	50.2765
5.79311	50.913
5.78665	51.5303
5.78019	52.1767
5.77376	52.9631
5.76734	53.7552
5.76093	53.9822
5.75453	54.2929
5.74815	54.9196
5.74179	55.2079
5.73543	55.5807
5.7291	56.1043
5.72277	56.6345
5.71646	57.0828
5.71017	57.5091
5.70389	57.7413
5.69762	58.0712
5.69136	58.4776
5.68513	58.7544
5.6789	59.1147
5.67268	59.4128
5.66648	59.5827
5.6603	59.9567
5.65413	60.3369
5.64797	60.7087
5.64182	61.0857
5.63569	61.1426
5.62957	61.2208
5.62347	61.4823
5.61737	61.7975
5.61129	62.008
5.60522	62.1937
5.59917	62.4174
5.59313	62.5774
5.5871	62.7962
5.58109	63.0887
5.57509	63.2659
5.5691	63.3407
5.56312	63.498
5.55716	63.7355
5.55121	63.9093
5.54528	63.95
5.53935	64.0696
5.53344	64.234
5.52754	64.4143
5.52166	64.5299
5.51578	64.5869
5.50992	64.6771
5.50407	64.8581
5.49823	64.9693
5.49241	65.0463
5.4866	65.1548
5.4808	65.311
5.47501	65.3787
5.46923	65.4711
5.46347	65.5912
5.45772	65.6151
5.45198	65.6608
5.44625	65.7184
5.44054	65.7687
5.43484	65.8063
5.42914	65.8929
5.42347	66.1206
5.4178	66.1497
5.41214	66.0903
5.4065	66.1031
5.40087	66.1141
5.39525	66.0858
5.38964	66.1251
5.38404	66.2439
5.37846	66.3313
5.37288	66.3584
5.36732	66.3389
5.36177	66.3617
5.35623	66.4891
5.35071	66.6009
5.34519	66.5211
5.33968	66.4088
5.33419	66.4329
5.32871	66.4784
5.32324	66.5154
5.31778	66.5489
5.31233	66.5787
5.30689	66.5974
5.30147	66.5619
5.29605	66.5794
5.29065	66.6683
5.28525	66.5901
5.27987	66.5473
5.2745	66.5496
5.26914	66.6111
5.26379	66.6272
5.25845	66.6102
5.25312	66.5879
5.24781	66.5871
5.2425	66.5591
5.23721	66.5637
5.23192	66.5276
5.22665	66.4175
5.22138	66.3934
5.21613	66.4443
5.21089	66.4241
5.20566	66.3555
5.20044	66.3353
5.19522	66.3241
5.19002	66.3181
5.18483	66.284
5.17965	66.2077
5.17448	66.137
5.16933	66.0815
5.16418	66.083
5.15904	66.0123
5.15391	65.9703
5.14879	65.9672
5.14368	65.8839
5.13859	65.7791
5.1335	65.7183
5.12842	65.5747
5.12335	65.5205
5.1183	65.4883
5.11325	65.4382
5.10821	65.4494
5.10318	65.463
5.09817	65.355
5.09316	65.2588
5.08816	65.1979
5.08317	65.1594
5.07819	65.0617
5.07322	64.9709
5.06826	64.8834
5.06331	64.759
5.05837	64.6441
5.05344	64.5971
5.04852	64.4687
5.04361	64.4189
5.03871	64.3564
5.03382	64.2574
5.02894	64.1834
5.02406	64.1341
5.0192	64.0253
5.01435	63.8777
5.0095	63.7741
5.00467	63.7068
4.99984	63.6152
4.99502	63.5587
4.99021	63.4633
4.98542	63.37
4.98063	63.2965
4.97585	63.2401
4.97108	63.1467
4.96632	63.0464
4.96156	62.9768
4.95682	62.8771
4.95209	62.7595
4.94736	62.6644
4.94264	62.5868
4.93794	62.5299
4.93324	62.4023
4.92855	62.2849
4.92387	62.2031
4.9192	62.0882
4.91453	61.9709
4.90988	61.909
4.90524	61.8846
4.9006	61.8758
4.89597	61.7382
4.89135	61.5744
4.88674	61.4823
4.88214	61.4269
4.87755	61.3824
4.87296	61.3133
4.86839	61.2176
4.86382	61.1414
4.85926	61.0929
4.85471	61.0497
4.85017	60.9879
4.84564	60.9012
4.84111	60.8036
4.8366	60.6971
4.83209	60.5848
4.82759	60.5684
4.8231	60.6025
4.81862	60.5671
4.81415	60.4753
4.80968	60.4112
4.80522	60.3041
4.80077	60.2681
4.79633	60.1915
4.7919	60.0998
4.78747	60.1127
4.78306	60.0674
4.77865	60.0088
4.77425	59.9597
4.76986	59.9238
4.76547	59.9252
4.7611	59.8486
4.75673	59.839
4.75237	59.7779
4.74802	59.689
4.74367	59.6851
4.73934	59.6883
4.73501	59.6315
4.73069	59.6565
4.72638	59.6547
4.72207	59.6006
4.71777	59.5827
4.71348	59.5571
4.7092	59.5252
4.70493	59.5017
4.70066	59.5139
4.69641	59.5608
4.69216	59.5708
4.68791	59.5242
4.68368	59.5368
4.67945	59.5393
4.67523	59.4726
4.67102	59.5296
4.66682	59.5856
4.66262	59.5219
4.65843	59.5201
4.65425	59.5481
4.65007	59.5622
4.64591	59.5561
4.64175	59.5097
4.6376	59.5342
4.63345	59.5908
4.62932	59.6629
4.62519	59.686
4.62106	59.6944
4.61695	59.6786
4.61284	59.6608
4.60874	59.6731
4.60465	59.719
4.60056	59.8181
4.59648	59.895
4.59241	59.9428
4.58835	59.9633
4.58429	59.9649
4.58024	60.0129
4.5762	60.073
4.57216	60.1042
4.56814	60.1661
4.56411	60.1998
4.5601	60.2565
4.55609	60.2844
4.55209	60.2739
4.5481	60.3037
4.54411	60.3835
4.54013	60.4658
4.53616	60.5399
4.5322	60.5759
4.52824	60.5788
4.52429	60.6462
4.52034	60.6989
4.51641	60.7387
4.51247	60.8364
4.50855	60.8768
4.50463	60.8622
4.50072	60.9042
4.49682	60.9782
4.49292	61.0135
4.48903	61.067
4.48515	61.1487
4.48127	61.225
4.4774	61.324
4.47354	61.3217
4.46968	61.2778
4.46584	61.2904
4.46199	61.3665
4.45815	61.436
4.45432	61.4623
4.4505	61.5226
4.44668	61.6201
4.44287	61.6596
4.43907	61.6845
4.43527	61.7344
4.43148	61.7703
4.4277	61.7786
4.42392	61.8394
4.42015	61.8989
4.41638	61.9315
4.41262	62.0123
4.40887	62.0873
4.40513	62.1246
4.40139	62.1757
4.39765	62.1896
4.39393	62.1622
4.39021	62.2403
4.38649	62.3254
4.38278	62.4023
4.37908	62.4769
4.37539	62.4771
4.3717	62.4378
4.36801	62.4831
4.36434	62.5887
4.36067	62.6442
4.357	62.6288
4.35335	62.6553
4.34969	62.6692
4.34605	62.6691
4.34241	62.7055
4.33877	62.7231
4.33514	62.7667
4.33152	62.7991
4.32791	62.8395
4.3243	62.8457
4.32069	62.8537
4.3171	62.8406
4.31351	62.8204
4.30992	62.8051
4.30634	62.8257
4.30277	62.8338
4.2992	62.7839
4.29564	62.7739
4.29208	62.8254
4.28853	62.841
4.28499	62.8035
4.28145	62.7698
4.27792	62.7443
4.27439	62.6616
4.27087	62.5765
4.26735	62.6071
4.26384	62.8055
4.26034	63.0851
4.25684	63.2498
4.25335	63.3056
4.24986	63.2645
4.24638	63.2657
4.24291	63.262
4.23944	63.2037
4.23598	63.2059
4.23252	63.3093
4.22906	63.3976
4.22562	63.4365
4.22218	63.4759
4.21874	63.5219
4.21531	63.6388
4.21189	63.7426
4.20847	63.8368
4.20506	63.9344
4.20165	64.036
4.19825	64.1069
4.19485	64.1575
4.19146	64.1788
4.18807	64.2032
4.18469	64.2379
4.18132	64.1885
4.17795	64.2387
4.17458	64.3309
4.17123	64.3575
4.16787	64.377
4.16453	64.4407
4.16118	64.517
4.15785	64.565
4.15451	64.5202
4.15119	64.5208
4.14787	64.524
4.14455	64.5925
4.14124	64.639
4.13794	64.6947
4.13464	64.704
4.13134	64.7124
4.12805	64.8403
4.12477	64.8578
4.12149	64.7823
4.11822	64.7826
4.11495	64.9128
4.11168	65.0129
4.10843	65.0087
4.10517	65.0068
4.10192	65.0927
4.09868	65.1456
4.09545	65.1851
4.09221	65.1756
4.08899	65.1289
4.08576	65.136
4.08255	65.1312
4.07933	65.1836
4.07613	65.3152
4.07292	65.3961
4.06973	65.4343
4.06654	65.5018
4.06335	65.5761
4.06017	65.6131
4.05699	65.6334
4.05382	65.6716
4.05065	65.7021
4.04749	65.8076
4.04433	65.9265
4.04118	65.9261
4.03803	65.9515
4.03489	65.998
4.03175	65.9844
4.02862	66.0339
4.02549	66.1455
4.02237	66.2064
4.01925	66.2186
4.01614	66.2478
4.01303	66.2792
4.00993	66.3198
4.00683	66.3778
4.00373	66.3861
4.00064	66.4042
3.99756	66.4792
3.99448	66.5685
3.9914	66.6814
3.98833	66.729
3.98527	66.7231
3.98221	66.7645
3.97915	66.7672
3.9761	66.8314
3.97305	66.8576
3.97001	66.8466
3.96697	66.8419
3.96394	66.8692
3.96091	66.9531
3.95789	66.972
3.95487	67.0161
3.95186	67.0664
3.94885	67.0808
3.94584	67.0677
3.94284	67.0649
3.93984	67.136
3.93685	67.1943
3.93386	67.1968
3.93088	67.2113
3.9279	67.2335
3.92493	67.2199
3.92196	67.2205
3.919	67.2348
3.91604	67.2194
3.91308	67.3004
3.91013	67.3521
3.90718	67.2848
3.90424	67.2678
3.9013	67.2757
3.89837	67.2635
3.89544	67.2013
3.89252	67.2257
3.8896	67.2405
3.88668	67.2468
3.88377	67.2301
3.88086	67.223
3.87796	67.2456
3.87506	67.2865
3.87217	67.2633
3.86928	67.1935
3.86639	67.1843
3.86351	67.1579
3.86064	67.086
3.85776	67.076
3.8549	67.0635
3.85203	67.0639
3.84917	67.0271
3.84631	67.0076
3.84346	66.979
3.84062	66.8582
3.83777	66.8019
3.83494	66.7878
3.8321	66.7248
3.82927	66.6879
3.82644	66.6605
3.82362	66.6298
3.82081	66.5897
3.81799	66.5964
3.81518	66.5841
3.81238	66.4996
3.80958	66.4711
3.80678	66.4041
3.80399	66.2813
3.8012	66.1946
3.79841	66.1517
3.79563	66.0845
3.79286	66.029
3.79008	65.9986
3.78731	65.9473
3.78455	65.9152
3.78179	65.8662
3.77903	65.8075
3.77628	65.7739
3.77353	65.6996
3.77079	65.5667
3.76805	65.4899
3.76531	65.4324
3.76258	65.334
3.75985	65.2646
3.75713	65.1703
3.7544	65.1506
3.75169	65.1236
3.74898	64.9961
3.74627	64.8307
3.74356	64.7351
3.74086	64.7252
3.73816	64.7203
3.73547	64.6101
3.73278	64.5048
3.7301	64.4535
3.72741	64.3711
3.72474	64.2577
3.72206	64.1245
3.71939	64.0527
3.71673	63.9529
3.71406	63.8547
3.71141	63.7445
3.70875	63.6748
3.7061	63.5941
3.70345	63.4966
3.70081	63.4211
3.69817	63.2913
3.69553	63.2015
3.6929	63.1389
3.69027	63.0011
3.68765	62.8961
3.68503	62.8129
3.68241	62.6906
3.6798	62.5895
3.67719	62.5059
3.67458	62.336
3.67198	62.2021
3.66938	62.0839
3.66678	61.9175
3.66419	61.8918
3.66161	61.8289
3.65902	61.7107
3.65644	61.6075
3.65387	61.4861
3.65129	61.4147
3.64872	61.2988
3.64616	61.145
3.64359	60.9795
3.64103	60.9212
3.63848	60.8291
3.63593	60.6383
3.63338	60.4378
3.63084	60.3199
3.6283	60.3059
3.62576	60.1984
3.62322	60.0089
3.62069	59.8133
3.61817	59.7153
3.61564	59.5793
3.61312	59.4297
3.61061	59.3626
3.6081	59.2438
3.60559	59.078
3.60308	58.9441
3.60058	58.8821
3.59808	58.7117
3.59558	58.4969
3.59309	58.3402
3.59061	58.2369
3.58812	58.1065
3.58564	57.9776
3.58316	57.7938
3.58069	57.668
3.57822	57.558
3.57575	57.4076
3.57328	57.2264
3.57082	57.0351
3.56836	56.94
3.56591	56.8116
3.56346	56.6797
3.56101	56.5467
3.55857	56.3765
3.55613	56.2049
3.55369	56.0357
3.55126	55.8524
3.54883	55.7195
3.5464	55.6185
3.54397	55.4138
3.54155	55.1614
3.53914	54.994
3.53672	54.8799
3.53431	54.7339
3.5319	54.5652
3.5295	54.2944
3.5271	54.0535
3.5247	53.8883
3.52231	53.7025
3.51991	53.4591
3.51753	53.1576
3.51514	52.8814
3.51276	52.6813
3.51038	52.5449
3.50801	52.3157
3.50563	52.0053
3.50327	51.7355
3.5009	51.5612
3.49854	51.4252
3.49618	51.4143
3.49382	51.3633
3.49147	51.2151
3.48912	51.1105
3.48677	50.9566
3.48443	50.7632
3.48209	50.6088
3.47975	50.5182
3.47742	50.4766
3.47509	50.4318
3.47276	50.254
3.47044	50.028
3.46812	49.8708
3.4658	49.749
3.46348	49.5074
3.46117	49.3079
3.45886	49.1955
3.45656	49.036
3.45425	48.8173
3.45195	48.5954
3.44966	48.456
3.44736	48.2797
3.44507	48.0073
3.44279	47.8025
3.4405	47.629
3.43822	47.4072
3.43594	47.2173
3.43367	46.9206
3.43139	46.6249
3.42912	46.344
3.42686	46.0571
3.42459	45.8248
3.42233	45.57
3.42007	45.2634
3.41782	45.0755
3.41557	45.0641
3.41332	45.0767
3.41108	44.9819
3.40883	44.8767
3.40659	44.8459
3.40435	44.8301
3.40212	44.706
3.39989	44.5746
3.39766	44.4708
3.39544	44.3854
3.39322	44.31
3.391	44.1207
3.38878	43.9366
3.38657	43.7688
3.38436	43.4881
3.38215	43.2578
3.37994	43.181
3.37774	43.0972
3.37554	42.9013
3.37335	42.6819
3.37115	42.5423
3.36896	42.354
3.36678	42.2366
3.36459	42.2073
3.36241	42.2163
3.36023	42.0826
3.35805	41.9583
3.35588	41.8234
3.35371	41.6346
3.35154	41.4558
3.34938	41.2809
3.34721	41.1492
3.34505	41.0176
3.3429	40.9399
3.34074	40.7325
3.33859	40.437
3.33644	40.1982
3.3343	40.1094
3.33215	40.0376
3.33001	39.8518
3.32788	39.6901
3.32574	39.4488
3.32361	39.175
3.32148	39.1048
3.31936	38.9406
3.31723	38.6477
3.31511	38.488
3.31299	38.4306
3.31088	38.2707
3.30876	38.0643
3.30665	37.944
3.30455	37.7817
3.30244	37.509
3.30034	37.2988
3.29824	37.1092
3.29614	36.915
3.29405	36.7194
3.29196	36.5911
3.28987	36.4338
3.28778	36.253
3.2857	36.0897
3.28362	35.976
3.28154	35.7301
3.27946	35.5313
3.27739	35.451
3.27532	35.2278
3.27325	35.0172
3.27119	34.8773
3.26913	34.7462
3.26707	34.4321
3.26501	34.2384
3.26295	34.1599
3.2609	33.9822
3.25885	33.7846
3.2568	33.5899
3.25476	33.4455
3.25272	33.3483
3.25068	33.136
3.24864	32.9359
3.24661	32.7863
3.24458	32.6258
3.24255	32.4032
3.24052	32.2454
3.2385	32.1573
3.23648	31.9694
3.23446	31.8082
3.23244	31.6785
3.23043	31.5307
3.22841	31.3304
3.2264	31.1811
3.2244	31.0849
3.22239	30.8759
3.22039	30.6629
3.21839	30.5668
3.2164	30.4097
3.2144	30.1662
3.21241	30.01
3.21042	29.9365
3.20844	29.7355
3.20645	29.5043
3.20447	29.3642
3.20249	29.1596
3.20051	29.0197
3.19854	28.9114
3.19657	28.8012
3.1946	28.7312
3.19263	28.5407
3.19067	28.339
3.1887	28.1565
3.18674	27.9656
3.18479	27.8675
3.18283	27.7517
3.18088	27.5998
3.17893	27.5199
3.17698	27.3723
3.17504	27.2112
3.17309	27.1226
3.17115	26.9852
3.16921	26.8465
3.16728	26.7155
3.16534	26.5427
3.16341	26.3747
3.16148	26.1296
3.15956	26.0316
3.15763	26.003
3.15571	25.9237
3.15379	25.796
3.15187	25.7638
3.14996	25.6187
3.14805	25.407
3.14614	25.2795
3.14423	25.1463
3.14232	25.1062
3.14042	24.9966
3.13852	24.7798
3.13662	24.7301
3.13472	24.6421
3.13283	24.4596
3.13094	24.3541
3.12905	24.2805
3.12716	24.2039
3.12528	24.0958
3.12339	24.0498
3.12151	24.0366
3.11964	23.9646
3.11776	23.8947
3.11589	23.856
3.11401	23.7408
3.11214	23.6296
3.11028	23.4986
3.10841	23.4433
3.10655	23.4063
3.10469	23.3322
3.10283	23.319
3.10098	23.214
3.09912	23.1115
3.09727	23.0678
3.09542	22.992
3.09358	23.0041
3.09173	23.0005
3.08989	22.9467
3.08805	22.8412
3.08621	22.8006
3.08437	22.7132
3.08254	22.616
3.08071	22.5647
3.07888	22.5395
3.07705	22.4844
3.07523	22.4326
3.0734	22.4448
3.07158	22.5448
3.06977	22.471
3.06795	22.3203
3.06613	22.2162
3.06432	22.1377
3.06251	22.0907
3.0607	22.0599
3.0589	22.0918
3.0571	22.1569
3.05529	22.0942
3.05349	21.9209
3.0517	21.8551
3.0499	21.9257
3.04811	21.9556
3.04632	21.9442
3.04453	21.929
3.04274	21.8928
3.04096	21.778
3.03918	21.7202
3.0374	21.7445
3.03562	21.7093
3.03384	21.6768
3.03207	21.8669
3.03029	21.9313
3.02852	21.7685
3.02676	21.6461
3.02499	21.6951
3.02323	21.6441
3.02146	21.5989
3.0197	21.5027
3.01795	21.4769
3.01619	21.573
3.01444	21.5813
3.01269	21.4871
3.01094	21.4016
3.00919	21.4486
3.00744	21.4673
3.0057	21.4099
3.00396	21.38
3.00222	21.3343
3.00048	21.2854
2.99875	21.2204
2.99701	21.1815
2.99528	21.1012
2.99355	20.9538
2.99183	21.0007
2.9901	21.1515
2.98838	21.1927
2.98666	21.1519
2.98494	21.0812
2.98322	20.9466
2.9815	20.9155
2.97979	20.949
2.97808	21.0769
2.97637	21.103
2.97466	21.0265
2.97295	20.9597
2.97125	20.798
2.96955	20.6533
2.96785	20.566
2.96615	20.7284
2.96446	21.0109
2.96276	21.0549
2.96107	20.8768
2.95938	20.8426
2.95769	20.7693
2.95601	20.8586
2.95432	20.9761
2.95264	20.7827
2.95096	20.6952
2.94928	20.8545
2.9476	20.8758
2.94593	20.7996
2.94425	20.9494
2.94258	21.0203
2.94092	20.9877
2.93925	20.9927
2.93758	20.8929
2.93592	20.8647
2.93426	20.9836
2.9326	21.088
2.93094	21.146
2.92928	21.128
2.92763	21.0373
2.92598	21.0907
2.92433	21.0763
2.92268	21.1284
2.92103	21.1966
2.91939	21.2929
2.91775	21.334
2.9161	21.3423
2.91447	21.3854
2.91283	21.3974
2.91119	21.4533
2.90956	21.4754
2.90793	21.4545
2.9063	21.5608
2.90467	21.7458
2.90304	21.7794
2.90142	21.7514
2.89979	21.8641
2.89817	22.0207
2.89656	22.0294
2.89494	21.9837
2.89332	21.9509
2.89171	21.9877
2.8901	22.0208
2.88849	22.1739
2.88688	22.4123
2.88527	22.3504
2.88367	22.2933
2.88206	22.4766
2.88046	22.5281
2.87886	22.7203
2.87727	22.7923
2.87567	22.6778
2.87408	22.7443
2.87248	22.906
2.87089	23.0492
2.8693	23.0925
2.86772	23.1712
2.86613	23.2946
2.86455	23.4333
2.86297	23.46
2.86139	23.6069
2.85981	23.6915
2.85823	23.7511
2.85666	23.8437
2.85508	24.0063
2.85351	24.2314
2.85194	24.2751
2.85038	24.2493
2.84881	24.2653
2.84724	24.2538
2.84568	24.4432
2.84412	24.8084
2.84256	24.9957
2.841	25.0971
2.83945	25.1832
2.83789	25.1126
2.83634	25.0543
2.83479	25.237
2.83324	25.3291
2.83169	25.3853
2.83015	25.6104
2.82861	25.9923
2.82706	26.1688
2.82552	26.244
2.82398	26.3608
2.82245	26.4814
2.82091	26.696
2.81938	26.9
2.81784	26.9766
2.81631	27.0753
2.81479	27.2267
2.81326	27.2704
2.81173	27.432
2.81021	27.6568
2.80869	27.83
2.80716	28.015
2.80565	28.2852
2.80413	28.5066
2.80261	28.6191
2.8011	28.7443
2.79959	28.8701
2.79808	29.0496
2.79657	29.2615
2.79506	29.4444
2.79355	29.7071
2.79205	29.8142
2.79055	30.0244
2.78904	30.5091
2.78754	30.9256
2.78605	31.0297
2.78455	31.0959
2.78306	31.2832
2.78156	31.645
2.78007	31.9877
2.77858	32.1963
2.77709	32.3913
2.77561	32.5671
2.77412	32.7086
2.77264	32.9894
2.77116	33.3889
2.76968	33.6924
2.7682	33.9802
2.76672	34.3153
2.76524	34.5537
2.76377	34.9992
2.7623	35.4669
2.76083	35.7435
2.75936	35.8352
2.75789	36.114
2.75642	36.8314
2.75496	37.3471
2.7535	37.4943
2.75203	37.7272
2.75057	38.1683
2.74912	38.5747
2.74766	38.9966
2.7462	39.4927
2.74475	39.9547
2.7433	40.5164
2.74185	41.239
2.7404	41.9541
2.73895	42.5122
2.7375	42.9608
2.73606	43.5301
2.73462	44.2356
2.73318	44.7627
2.73174	45.4496
2.7303	46.2321
2.72886	47.0454
2.72742	47.8956
2.72599	48.8917
2.72456	49.9417
2.72313	50.7061
2.7217	51.6755
2.72027	52.7717
2.71884	53.4062
2.71742	54.1684
2.71599	55.0508
2.71457	56.0059
2.71315	56.9166
2.71173	58.0039
2.71032	58.9824
2.7089	59.7029
2.70748	60.3916
2.70607	61.1844
2.70466	62.0305
2.70325	62.7348
2.70184	63.5907
2.70043	64.3963
2.69903	65.0149
2.69762	65.6717
2.69622	66.3112
2.69482	66.9927
2.69342	67.6126
2.69202	67.9451
2.69062	68.3207
2.68923	68.8057
2.68783	69.2604
2.68644	69.6661
2.68505	70.0714
2.68366	70.4953
2.68227	70.7456
2.68089	71.1016
2.6795	71.7221
2.67812	72.0793
2.67673	72.3202
2.67535	72.4839
2.67397	72.6612
2.6726	73.0408
2.67122	73.6897
2.66984	74.0036
2.66847	73.8952
2.6671	74.2721
2.66572	74.5125
2.66435	74.4693
2.66299	74.3324
2.66162	74.5246
2.66025	74.7357
2.65889	74.8816
2.65753	75.0399
2.65616	75.2292
2.65481	75.3458
2.65345	75.4633
2.65209	75.5849
2.65073	75.6531
2.64938	75.7807
2.64803	76.0862
2.64667	76.2819
2.64532	76.2349
2.64397	76.156
2.64263	76.3866
2.64128	76.4955
2.63994	76.5715
2.63859	76.65
2.63725	76.7784
2.63591	76.8647
2.63457	77.0852
2.63323	77.2443
2.6319	77.5053
2.63056	77.8763
2.62923	77.7878
2.62789	77.7287
2.62656	77.8804
2.62523	77.7585
2.6239	77.7571
2.62258	77.7779
2.62125	78.1406
2.61993	78.3812
2.6186	78.2817
2.61728	78.4561
2.61596	78.3818
2.61464	78.2663
2.61332	78.4488
2.61201	78.5095
2.61069	78.6198
2.60938	78.7449
2.60807	78.7171
2.60675	78.8422
2.60544	78.998
2.60414	78.9263
2.60283	78.9346
2.60152	78.9564
2.60022	78.9182
2.59891	78.9123
2.59761	79.0163
2.59631	79.4673
2.59501	79.9448
2.59371	79.6042
2.59242	79.1784
2.59112	79.1298
2.58983	79.1788
2.58853	79.3938
2.58724	79.5206
2.58595	79.4017
2.58466	79.6237
2.58338	79.7552
2.58209	79.5224
2.5808	79.4856
2.57952	79.3927
2.57824	79.4072
2.57695	79.3743
2.57567	79.4032
2.5744	79.6844
2.57312	79.7493
2.57184	79.4657
2.57057	79.5167
2.56929	79.564
2.56802	79.4936
2.56675	79.4125
2.56548	79.5202
2.56421	79.7179
2.56294	79.8015
2.56168	79.8999
2.56041	79.757
2.55915	79.5881
2.55789	79.5039
2.55662	79.4807
2.55536	79.5908
2.5541	79.701
2.55285	79.718
2.55159	79.695
2.55034	79.6448
2.54908	79.614
2.54783	79.6797
2.54658	79.7344
2.54533	79.7611
2.54408	79.7297
2.54283	79.6861
2.54159	79.6727
2.54034	79.6039
2.5391	79.6481
2.53785	79.6819
2.53661	79.7699
2.53537	79.7876
2.53413	79.6645
2.53289	79.6259
2.53166	79.6812
2.53042	79.6964
2.52919	79.6353
2.52795	79.6148
2.52672	79.7862
2.52549	79.8559
2.52426	79.8546
2.52303	79.8291
2.52181	79.914
2.52058	80.0101
2.51936	79.925
2.51813	79.7743
2.51691	79.7499
2.51569	79.8772
2.51447	80.0893
2.51325	80.0756
2.51203	80.0894
2.51082	80.0557
2.5096	79.9926
2.50839	80.0402
2.50717	80.1299
2.50596	80.151
2.50475	80.2072
2.50354	80.2315
2.50233	80.2462
2.50113	80.2737
2.49992	80.3448
2.49872	80.35
2.49751	80.3146
2.49631	80.3601
2.49511	80.4215
2.49391	80.4154
2.49271	80.4809
2.49151	80.5424
2.49031	80.5563
2.48912	80.714
2.48792	80.8458
2.48673	80.7816
2.48554	80.8403
2.48435	80.9396
2.48316	80.9528
2.48197	80.9494
2.48078	80.968
2.4796	81.0211
2.47841	81.0886
2.47723	81.0186
2.47604	81.0206
2.47486	81.0993
2.47368	81.129
2.4725	81.2458
2.47132	81.3491
2.47014	81.2957
2.46897	81.3464
2.46779	81.5214
2.46662	81.611
2.46545	81.5371
2.46427	81.5636
2.4631	81.6518
2.46193	81.6665
2.46077	81.6789
2.4596	81.7164
2.45843	81.7493
2.45727	81.8659
2.4561	81.9113
2.45494	81.9148
2.45378	81.9828
2.45262	82.0574
2.45146	82.1418
2.4503	82.1812
2.44914	82.1916
2.44799	82.2033
2.44683	82.103
2.44568	82.1422
2.44452	82.2015
2.44337	82.2554
2.44222	82.4219
2.44107	82.5566
2.43992	82.5216
2.43877	82.5417
2.43763	82.6103
2.43648	82.6082
2.43534	82.6691
2.43419	82.8084
2.43305	82.7929
2.43191	82.7223
2.43077	82.8424
2.42963	83.0023
2.42849	82.9708
2.42736	82.893
2.42622	82.8719
2.42509	82.9552
2.42395	83.1347
2.42282	83.2868
2.42169	83.2157
2.42056	83.107
2.41943	83.1395
2.4183	83.2664
2.41717	83.3372
2.41605	83.3416
2.41492	83.3109
2.4138	83.2684
2.41267	83.2126
2.41155	83.2271
2.41043	83.3207
2.40931	83.3672
2.40819	83.4127
2.40707	83.5531
2.40595	83.6869
2.40484	83.6789
2.40372	83.6261
2.40261	83.5732
2.4015	83.6166
2.40039	83.654
2.39928	83.6924
2.39817	83.7973
2.39706	83.8352
2.39595	83.7552
2.39484	83.7332
2.39374	83.8059
2.39263	83.7333
2.39153	83.8656
2.39043	83.9006
2.38932	83.9378
2.38822	84.1049
2.38712	84.1988
2.38603	84.2504
2.38493	84.1902
2.38383	84.0305
2.38274	83.9797
2.38164	84.0675
2.38055	84.1168
2.37946	84.2122
2.37836	84.3376
2.37727	84.3251
2.37618	84.3068
2.3751	84.3148
2.37401	84.432
2.37292	84.5155
2.37184	84.4159
2.37075	84.3786
2.36967	84.4816
2.36859	84.488
2.3675	84.5156
2.36642	84.6349
2.36534	84.66
2.36427	84.6114
2.36319	84.5792
2.36211	84.537
2.36104	84.5398
2.35996	84.695
2.35889	84.871
2.35781	84.8564
2.35674	84.7922
2.35567	84.639
2.3546	84.5235
2.35353	84.6736
2.35247	84.7838
2.3514	84.8322
2.35033	84.7817
2.34927	84.8623
2.3482	84.9494
2.34714	84.9297
2.34608	84.9559
2.34502	84.8348
2.34396	84.6929
2.3429	84.7313
2.34184	84.8472
2.34078	84.9235
2.33973	85.0945
2.33867	85.1405
2.33762	85.0922
2.33656	85.106
2.33551	85.0599
2.33446	85.0306
2.33341	84.9997
2.33236	85.0315
2.33131	85.1309
2.33026	85.0945
2.32922	85.0137
2.32817	85.0877
2.32712	85.1264
2.32608	85.1143
2.32504	85.1584
2.324	85.1508
2.32295	85.1912
2.32191	85.2758
2.32087	85.3235
2.31984	85.3091
2.3188	85.2574
2.31776	85.269
2.31673	85.3313
2.31569	85.2544
2.31466	85.2728
2.31362	85.3562
2.31259	85.3459
2.31156	85.3268
2.31053	85.3777
2.3095	85.3176
2.30847	85.3906
2.30745	85.4738
2.30642	85.4024
2.3054	85.459
2.30437	85.492
2.30335	85.4431
2.30232	85.3752
2.3013	85.4291
2.30028	85.5067
2.29926	85.501
2.29824	85.3734
2.29722	85.3959
2.29621	85.4726
2.29519	85.5391
2.29417	85.5995
2.29316	85.5632
2.29215	85.57
2.29113	85.5984
2.29012	85.5265
2.28911	85.5846
2.2881	85.6573
2.28709	85.6608
2.28608	85.6719
2.28507	85.7305
2.28407	85.7369
2.28306	85.6699
2.28206	85.6572
2.28105	85.5757
2.28005	85.572
2.27905	85.6835
2.27805	85.7203
2.27705	85.7071
2.27605	85.6982
2.27505	85.7556
2.27405	85.7393
2.27305	85.7137
2.27206	85.7319
2.27106	85.639
2.27007	85.5362
2.26907	85.7247
2.26808	85.7661
2.26709	85.6511
2.2661	85.5798
2.26511	85.6184
2.26412	85.633
2.26313	85.6249
2.26214	85.7507
2.26116	85.8622
2.26017	85.8706
2.25919	85.83
2.2582	85.8442
2.25722	85.802
2.25624	85.7613
2.25526	85.7894
2.25428	85.7631
2.2533	85.8364
2.25232	85.9031
2.25134	85.8998
2.25036	85.7953
2.24939	85.6485
2.24841	85.6596
2.24744	85.7319
2.24646	85.7451
2.24549	85.7973
2.24452	85.8203
2.24355	85.7651
2.24257	85.7772
2.24161	85.8761
2.24064	85.9849
2.23967	85.996
2.2387	86.0345
2.23774	85.9458
2.23677	85.9035
2.23581	85.9502
2.23484	85.8909
2.23388	85.8998
2.23292	85.9566
2.23196	85.8998
2.231	85.964
2.23004	85.9091
2.22908	85.7543
2.22812	85.902
2.22716	86.1362
2.22621	86.1199
2.22525	85.936
2.2243	85.8731
2.22334	85.9143
2.22239	85.875
2.22144	85.8784
2.22049	85.906
2.21953	85.8641
2.21859	85.8454
2.21764	85.9115
2.21669	86.0956
2.21574	86.2228
2.21479	86.0192
2.21385	85.8446
2.2129	85.9589
2.21196	85.9799
2.21102	85.9149
2.21007	85.9801
2.20913	86.0391
2.20819	86.0581
2.20725	86.0471
2.20631	85.985
2.20537	85.9344
2.20444	85.9455
2.2035	85.8511
2.20256	85.8635
2.20163	86.0608
2.20069	86.1107
2.19976	85.9683
2.19883	85.9391
2.19789	86.0477
2.19696	86.1334
2.19603	85.9886
2.1951	85.9072
2.19417	85.9038
2.19325	85.9232
2.19232	85.9362
2.19139	85.9431
2.19047	86.0018
2.18954	86.0235
2.18862	85.952
2.18769	85.9736
2.18677	86.0121
2.18585	86.0458
2.18493	86.0073
2.18401	85.8145
2.18309	85.7565
2.18217	85.8985
2.18125	85.9322
2.18033	85.8676
2.17942	85.9429
2.1785	85.9683
2.17759	85.8954
2.17667	85.8591
2.17576	85.801
2.17485	85.8542
2.17393	85.9557
2.17302	85.8763
2.17211	85.8377
2.1712	85.9082
2.17029	85.9016
2.16939	85.9217
2.16848	85.9136
2.16757	85.9426
2.16667	85.9974
2.16576	85.9438
2.16486	85.7918
2.16395	85.6097
2.16305	85.6294
2.16215	85.8137
2.16125	85.9043
2.16035	85.7309
2.15945	85.7423
2.15855	85.9796
2.15765	85.9059
2.15675	85.8666
2.15586	85.8541
2.15496	85.748
2.15406	85.642
2.15317	85.6643
2.15228	85.7296
2.15138	85.7899
2.15049	85.7419
2.1496	85.7063
2.14871	85.6779
2.14782	85.6566
2.14693	85.6541
2.14604	85.6886
2.14515	85.7214
2.14427	85.7896
2.14338	85.6063
2.14249	85.5133
2.14161	85.6622
2.14072	85.6943
2.13984	85.7987
2.13896	85.7901
2.13808	85.5868
2.13719	85.5772
2.13631	85.5471
2.13543	85.4229
2.13455	85.4656
2.13368	85.4815
2.1328	85.573
2.13192	85.4646
2.13105	85.3202
2.13017	85.4932
2.1293	85.6118
2.12842	85.5586
2.12755	85.6366
2.12668	85.5425
2.1258	85.4613
2.12493	85.4149
2.12406	85.3502
2.12319	85.3733
2.12232	85.5187
2.12145	85.5655
2.12059	85.4044
2.11972	85.3151
2.11885	85.2995
2.11799	85.2721
2.11712	85.2325
2.11626	85.2495
2.1154	85.2425
2.11453	85.4105
2.11367	85.4219
2.11281	85.2906
2.11195	85.205
2.11109	85.4437
2.11023	85.4326
2.10937	85.2768
2.10851	85.1725
2.10766	85.0347
2.1068	85.1432
2.10594	85.1284
2.10509	85.0199
2.10423	85.1122
2.10338	85.1466
2.10253	85.1811
2.10168	85.2747
2.10082	85.1774
2.09997	85.2011
2.09912	85.1643
2.09827	85.0887
2.09742	84.9888
2.09658	84.8606
2.09573	84.8809
2.09488	85.012
2.09404	85.1716
2.09319	85.0593
2.09235	85.0391
2.0915	85.0423
2.09066	84.9492
2.08982	84.8987
2.08897	84.9117
2.08813	84.9304
2.08729	84.866
2.08645	85.1743
2.08561	85.0863
2.08477	84.8042
2.08394	84.5808
2.0831	84.7282
2.08226	84.8551
2.08143	84.5043
2.08059	84.5571
2.07976	85.0445
2.07892	85.2543
2.07809	85.0053
2.07726	84.4088
2.07643	84.3492
2.07559	84.7001
2.07476	84.6417
2.07393	83.9411
2.0731	84.2266
2.07228	84.9729
2.07145	84.7344
2.07062	84.2407
2.06979	84.4037
2.06897	84.3246
2.06814	84.0584
2.06732	84.0682
2.06649	84.0849
2.06567	84.3239
2.06485	84.2646
2.06403	84.2952
2.0632	84.3671
2.06238	84.2717
2.06156	84.1627
2.06074	84.2755
2.05993	84.4214
2.05911	84.3225
2.05829	84.1789
2.05747	84.2212
2.05666	84.2813
2.05584	84.1939
2.05503	84.2344
2.05421	84.4179
2.0534	84.2662
2.05259	83.9523
2.05177	83.9997
2.05096	84.0545
2.05015	83.9411
2.04934	83.9766
2.04853	83.9973
2.04772	83.9039
2.04691	83.8557
2.04611	83.7885
2.0453	83.7641
2.04449	83.8499
2.04369	83.6348
2.04288	83.5632
2.04208	83.7298
2.04127	83.7301
2.04047	83.7033
2.03967	83.836
2.03886	83.915
2.03806	83.7867
2.03726	83.5143
2.03646	83.3559
2.03566	83.2757
2.03486	83.2806
2.03407	83.5014
2.03327	83.5877
2.03247	83.5584
2.03167	83.4833
2.03088	83.3529
2.03008	83.1241
2.02929	83.1444
2.0285	83.0911
2.0277	83.1868
2.02691	83.4193
2.02612	83.2972
2.02533	83.0766
2.02453	83.0934
2.02374	83.1786
2.02295	83.0266
2.02217	82.9453
2.02138	82.977
2.02059	82.9415
2.0198	82.7038
2.01902	82.777
2.01823	82.918
2.01744	82.9495
2.01666	82.8761
2.01588	82.7082
2.01509	82.6301
2.01431	82.6003
2.01353	82.6745
2.01275	82.6266
2.01196	82.5131
2.01118	82.5334
2.0104	82.6038
2.00963	82.4849
2.00885	82.447
2.00807	82.5155
2.00729	82.4309
2.00651	82.2245
2.00574	82.2043
2.00496	82.31
2.00419	82.1986
2.00341	82.0337
2.00264	82.1021
2.00187	82.2099
2.00109	82.2028
2.00032	82.1361
