Name: Epidote Ca_2(Al,Fe^3+)_3O.SiO_4.Si_2O_7.OH
Type: Mineral
Class: Silicates
Subclass: Sorosilicate
Particle Size: 0-45um
Sample No.: SS-1A
Owner: JPL
Wavelength range: IR
Origin: Mexico, Baja California Norte, Valle De La Trinidad
Collected by Burminco
Description: 





Measurement: Hemispherical reflectance
First Column: X
Second Column: Y
X Units:  Wavelength (micrometers)
Y Units:  Reflectance (percent)
First X Value: 15.3853
Last X Value: 2.00032
Number of X Values: 2256
Additional information: ss01aa.txt
 
15.3853	7.0632
15.3397	6.93216
15.2945	6.97427
15.2495	6.95314
15.2048	6.72537
15.1603	6.26797
15.1161	6.00426
15.0722	5.96839
15.0285	5.89592
14.9851	5.78432
14.9419	5.62045
14.8989	5.24321
14.8563	5.07933
14.8138	4.85985
14.7716	4.57884
14.7296	4.66919
14.6879	4.72747
14.6464	4.57266
14.6052	4.61442
14.5641	4.56447
14.5233	4.57213
14.4828	4.76997
14.4424	4.84134
14.4023	4.67099
14.3624	4.37158
14.3227	4.32466
14.2833	4.19564
14.244	3.90916
14.205	3.6561
14.1662	3.67751
14.1276	3.59567
14.0892	3.64692
14.051	3.62311
14.0131	3.47953
13.9753	3.43619
13.9377	3.29092
13.9004	3.21277
13.8632	3.30903
13.8262	3.26338
13.7895	3.02364
13.7529	2.75419
13.7165	2.96476
13.6803	3.26517
13.6443	3.65027
13.6085	4.08559
13.5729	4.38091
13.5374	4.66257
13.5022	4.90715
13.4671	5.2017
13.4322	5.57173
13.3975	5.80228
13.363	6.06238
13.3286	6.444
13.2944	6.7221
13.2604	6.90417
13.2266	6.96643
13.193	7.04603
13.1595	7.27329
13.1262	7.55806
13.093	7.73204
13.06	7.84134
13.0272	7.96907
12.9946	8.04584
12.9621	8.18243
12.9298	8.43588
12.8976	8.47971
12.8656	8.48948
12.8337	8.56111
12.8021	8.65067
12.7705	8.86602
12.7391	8.89872
12.7079	8.80136
12.6769	8.89073
12.6459	9.01224
12.6152	8.92003
12.5845	8.82842
12.5541	8.63978
12.5238	8.29798
12.4936	8.20092
12.4635	8.15934
12.4337	7.90968
12.4039	7.60664
12.3743	7.52068
12.3448	7.42821
12.3155	7.43986
12.2863	7.47215
12.2573	7.38552
12.2284	7.26559
12.1996	7.05553
12.171	6.95378
12.1425	6.8794
12.1141	6.74225
12.0859	6.63314
12.0578	6.46146
12.0298	6.39511
12.0019	6.36902
11.9742	6.26402
11.9466	6.05339
11.9192	5.96105
11.8918	5.92085
11.8646	5.84987
11.8375	5.83674
11.8106	6.00902
11.7837	6.07938
11.757	6.0788
11.7304	6.21493
11.7039	6.26292
11.6776	6.33969
11.6513	6.39774
11.6252	6.4194
11.5992	6.30639
11.5733	6.16551
11.5475	6.05947
11.5219	6.07482
11.4963	6.32502
11.4709	6.73651
11.4455	7.12629
11.4203	7.60561
11.3952	8.15153
11.3702	8.58252
11.3454	8.88306
11.3206	9.00251
11.2959	9.12588
11.2714	9.23455
11.2469	9.12559
11.2226	9.02815
11.1983	8.92424
11.1742	8.67201
11.1502	8.40176
11.1263	8.23313
11.1024	7.94734
11.0787	7.74834
11.0551	7.57139
11.0316	7.26647
11.0081	7.08882
10.9848	6.82528
10.9616	6.61419
10.9385	6.51865
10.9154	6.42667
10.8925	6.2618
10.8697	6.04535
10.8469	5.86854
10.8243	5.86133
10.8017	5.97747
10.7793	6.08072
10.7569	6.3412
10.7346	6.79937
10.7125	7.28047
10.6904	7.67129
10.6684	8.09987
10.6465	8.5242
10.6247	9.01411
10.6029	9.57676
10.5813	10.0954
10.5597	10.6092
10.5383	11.2076
10.5169	11.7643
10.4956	12.2288
10.4744	12.4698
10.4533	12.5637
10.4323	12.5756
10.4113	12.6025
10.3904	12.5533
10.3697	12.4446
10.349	12.3393
10.3284	12.1901
10.3078	11.9339
10.2874	11.6256
10.267	11.4159
10.2467	11.1926
10.2265	10.7946
10.2064	10.4381
10.1863	10.226
10.1663	10.1116
10.1464	10.0696
10.1266	9.86098
10.1069	9.52282
10.0872	9.24535
10.0676	8.84871
10.0481	8.18274
10.0287	7.51937
10.0093	6.80392
9.99005	6.01588
9.97084	5.2294
9.95169	4.52987
9.93263	3.76941
9.91364	3.03865
9.89472	2.63874
9.87587	2.41319
9.8571	2.30735
9.83839	2.19507
9.81976	2.14459
9.80119	2.33264
9.78271	2.52647
9.76428	2.72971
9.74592	2.89676
9.72764	3.12885
9.70943	3.40961
9.69128	3.95333
9.6732	4.60937
9.65518	5.08904
9.63724	5.56077
9.61935	5.90471
9.60155	6.09155
9.5838	6.29029
9.56611	6.56081
9.5485	6.74785
9.53094	6.79276
9.51345	6.97527
9.49604	7.28474
9.47867	7.51736
9.46137	7.58607
9.44414	7.61425
9.42697	7.51122
9.40986	7.23101
9.39281	7.12953
9.37583	7.0274
9.35891	6.74847
9.34204	6.51891
9.32524	6.32145
9.3085	6.24009
9.29182	6.17046
9.27519	6.13186
9.25863	6.15948
9.24213	6.17734
9.22568	6.20056
9.2093	6.16674
9.19297	6.2294
9.17669	6.19221
9.16048	6.0455
9.14433	5.98324
9.12823	6.04725
9.11218	5.92349
9.0962	5.92916
9.08027	5.95971
9.06439	5.86873
9.04858	5.82513
9.03281	5.91786
9.0171	6.02578
9.00145	6.03528
8.98585	6.12719
8.9703	6.28983
8.9548	6.31779
8.93937	6.20024
8.92398	6.03476
8.90865	5.85161
8.89337	5.83223
8.87814	5.80285
8.86296	5.70728
8.84784	5.54706
8.83277	5.45152
8.81774	5.43464
8.80277	5.28419
8.78786	5.18522
8.77298	5.16138
8.75816	5.029
8.7434	4.75917
8.72868	4.40635
8.714	4.04768
8.69938	3.73879
8.68481	3.40368
8.67029	3.23131
8.65581	2.92995
8.64139	2.59648
8.62701	2.43184
8.61268	2.33033
8.5984	2.20501
8.58416	2.15367
8.56997	2.12429
8.55583	2.22684
8.54174	2.16346
8.52769	2.11434
8.51368	2.25925
8.49973	2.40083
8.48582	2.4072
8.47195	2.37228
8.45813	2.3529
8.44436	2.32651
8.43062	2.50469
8.41693	2.67925
8.4033	2.66721
8.3897	2.73212
8.37614	2.8944
8.36264	3.00314
8.34917	3.15235
8.33574	3.38188
8.32236	3.51778
8.30903	3.70299
8.29573	3.88397
8.28248	4.02004
8.26927	4.18494
8.2561	4.29779
8.24298	4.49714
8.2299	4.68866
8.21685	4.93352
8.20385	5.22833
8.19089	5.3845
8.17797	5.55915
8.16509	5.73524
8.15225	5.85593
8.13946	5.99977
8.1267	6.17076
8.11398	6.31774
8.10131	6.46717
8.08867	6.67321
8.07606	6.89577
8.0635	6.92815
8.05099	7.06831
8.0385	7.33057
8.02606	7.51652
8.01366	7.65187
8.00129	7.86309
7.98896	8.05937
7.97667	8.16354
7.96442	8.34972
7.9522	8.57787
7.94002	8.63239
7.92788	8.71216
7.91578	8.96975
7.90371	9.20963
7.89168	9.4269
7.87969	9.6679
7.86773	9.84492
7.85581	9.98791
7.84392	10.2201
7.83207	10.3859
7.82026	10.5226
7.80849	10.8187
7.79674	11.1573
7.78503	11.3093
7.77337	11.4784
7.76173	11.7939
7.75012	12.0479
7.73856	12.2403
7.72703	12.5682
7.71553	12.9257
7.70406	13.1879
7.69263	13.3994
7.68123	13.6096
7.66987	13.8296
7.65855	14.0591
7.64725	14.2913
7.63598	14.5741
7.62475	14.8679
7.61356	15.1735
7.60239	15.4588
7.59126	15.7293
7.58017	16.0098
7.5691	16.2874
7.55806	16.4417
7.54707	16.5432
7.5361	16.7938
7.52516	17.1005
7.51425	17.3331
7.50338	17.541
7.49253	17.7375
7.48172	17.9944
7.47094	18.2247
7.46019	18.2738
7.44947	18.3636
7.43879	18.533
7.42813	18.6916
7.4175	18.9086
7.4069	19.1334
7.39634	19.3249
7.3858	19.4352
7.37529	19.5252
7.36482	19.6943
7.35437	19.899
7.34396	20.1113
7.33357	20.2528
7.32321	20.2529
7.31288	20.3719
7.30258	20.491
7.29231	20.5828
7.28207	20.8112
7.27185	20.9645
7.26167	21.0294
7.25152	21.1671
7.24139	21.2345
7.23129	21.2789
7.22122	21.4445
7.21117	21.7302
7.20116	21.7483
7.19117	21.6348
7.18121	21.7911
7.17128	22.0346
7.16137	21.9326
7.1515	21.9357
7.14164	21.9346
7.13182	21.865
7.12203	21.9414
7.11225	22.0418
7.10251	22.0614
7.0928	22.1101
7.08311	22.223
7.07344	22.336
7.06381	22.5517
7.0542	23.0759
7.04461	23.5176
7.03506	23.2456
7.02552	23.1538
7.01601	23.2601
7.00653	23.3883
6.99708	23.6324
6.98765	23.736
6.97824	23.7681
6.96886	24.191
6.95951	24.5945
6.95018	24.1803
6.94087	24.0439
6.9316	24.0909
6.92234	24.2084
6.91311	24.4832
6.90391	24.6662
6.89473	24.4972
6.88557	24.6345
6.87644	25.1583
6.86733	26.1994
6.85824	26.1473
6.84918	25.3313
6.84015	25.1774
6.83114	25.5605
6.82215	25.6628
6.81319	25.381
6.80424	25.5552
6.79532	26.2801
6.78643	26.5368
6.77756	26.1988
6.76871	25.9632
6.75989	25.8536
6.75109	26.0946
6.74231	26.2384
6.73355	26.3686
6.72482	26.6341
6.71611	26.8826
6.70742	26.8448
6.69875	26.6181
6.69011	26.9905
6.68149	27.4453
6.67289	27.1965
6.66431	26.8074
6.65576	26.7158
6.64722	27.4953
6.63871	28.614
6.63022	28.1698
6.62175	27.3586
6.61331	27.3009
6.60488	27.3377
6.59648	27.5807
6.5881	27.7937
6.57974	28.1853
6.5714	28.6231
6.56308	28.1415
6.55478	28.0171
6.54651	27.91
6.53825	27.7306
6.53001	27.8648
6.5218	28.3262
6.51361	28.128
6.50544	28.4622
6.49729	29.8108
6.48915	29.9809
6.48104	29.2818
6.47295	28.839
6.46488	28.5163
6.45683	28.6057
6.4488	28.8129
6.44079	29.1021
6.4328	29.5885
6.42482	30.1614
6.41687	31.6081
6.40894	31.3672
6.40103	29.8813
6.39314	29.6233
6.38526	29.761
6.37741	30.0851
6.36957	30.4537
6.36176	30.0519
6.35396	30.1555
6.34618	30.9958
6.33843	30.6177
6.33069	29.9306
6.32297	29.9057
6.31527	29.8307
6.30758	29.7254
6.29992	29.6872
6.29227	29.7393
6.28465	29.7436
6.27704	29.778
6.26945	29.7489
6.26188	29.5219
6.25432	29.4043
6.24679	29.4576
6.23927	29.4489
6.23177	29.3846
6.22429	29.3732
6.21683	29.3802
6.20938	29.2579
6.20195	29.1135
6.19454	29.3449
6.18715	30.1089
6.17978	29.731
6.17242	29.0035
6.16508	29.1558
6.15776	29.0908
6.15045	28.6732
6.14317	28.5569
6.1359	28.2642
6.12864	27.9195
6.12141	28.2274
6.11419	28.8529
6.10699	28.2241
6.0998	27.4037
6.09263	27.1883
6.08549	27.0975
6.07835	27.5536
6.07123	27.7318
6.06413	27.0856
6.05705	27.4508
6.04998	28.8117
6.04293	27.5815
6.0359	25.9985
6.02888	25.5566
6.02187	25.501
6.01489	25.513
6.00792	25.0535
6.00096	24.6506
5.99403	24.8194
5.98711	24.6923
5.9802	23.9783
5.97331	23.6638
5.96644	23.3942
5.95958	22.7591
5.95274	22.4948
5.94591	22.5579
5.9391	23.2574
5.9323	22.9366
5.92552	22.0423
5.91876	21.8268
5.91201	21.8262
5.90528	22.119
5.89856	22.8945
5.89186	22.98
5.88517	23.4277
5.8785	23.671
5.87184	22.8974
5.8652	22.9625
5.85857	23.0223
5.85196	23.0244
5.84536	23.0913
5.83878	23.2975
5.83221	23.7141
5.82566	24.3733
5.81912	24.3471
5.81259	23.7205
5.80608	23.6107
5.79959	23.7304
5.79311	23.7772
5.78665	23.8446
5.78019	23.9843
5.77376	24.4578
5.76734	25.1184
5.76093	24.5687
5.75453	24.1373
5.74815	24.3741
5.74179	24.1843
5.73543	24.1061
5.7291	24.1212
5.72277	24.3122
5.71646	24.5975
5.71017	24.824
5.70389	24.5175
5.69762	24.4151
5.69136	24.5973
5.68513	24.5085
5.6789	24.6626
5.67268	24.782
5.66648	24.6376
5.6603	24.8113
5.65413	25.0098
5.64797	25.3073
5.64182	25.7207
5.63569	25.458
5.62957	25.3186
5.62347	25.4635
5.61737	25.6454
5.61129	25.692
5.60522	25.8715
5.59917	26.0659
5.59313	26.1558
5.5871	26.595
5.58109	27.1857
5.57509	27.3244
5.5691	27.3235
5.56312	27.6891
5.55716	28.1024
5.55121	28.458
5.54528	28.7081
5.53935	29.0273
5.53344	29.3553
5.52754	29.7237
5.52166	30.0438
5.51578	30.295
5.50992	30.4881
5.50407	30.7804
5.49823	31.0194
5.49241	31.3119
5.4866	31.654
5.4808	32.0232
5.47501	32.2155
5.46923	32.5643
5.46347	32.9012
5.45772	32.8329
5.45198	32.9039
5.44625	33.1031
5.44054	33.2495
5.43484	33.3694
5.42914	33.6812
5.42347	34.1828
5.4178	34.0434
5.41214	33.8356
5.4065	33.8393
5.40087	33.8643
5.39525	33.9915
5.38964	34.0965
5.38404	34.1008
5.37846	34.0814
5.37288	34.1618
5.36732	34.1755
5.36177	34.1644
5.35623	34.2803
5.35071	34.4725
5.34519	34.2518
5.33968	33.9529
5.33419	33.9358
5.32871	33.9451
5.32324	33.9361
5.31778	33.946
5.31233	33.9053
5.30689	33.8916
5.30147	33.9306
5.29605	34.0457
5.29065	34.1175
5.28525	33.9425
5.27987	33.8003
5.2745	33.7151
5.26914	33.6244
5.26379	33.5455
5.25845	33.3668
5.25312	33.2091
5.24781	33.1417
5.2425	33.0123
5.23721	32.9592
5.23192	32.8191
5.22665	32.725
5.22138	32.7225
5.21613	32.873
5.21089	32.8461
5.20566	32.7773
5.20044	32.8531
5.19522	32.847
5.19002	32.9903
5.18483	33.2706
5.17965	33.5423
5.17448	33.8085
5.16933	34.1201
5.16418	34.4544
5.15904	34.6837
5.15391	34.948
5.14879	35.2949
5.14368	35.4021
5.13859	35.4424
5.1335	35.5253
5.12842	35.5665
5.12335	35.6036
5.1183	35.6003
5.11325	35.5516
5.10821	35.5356
5.10318	35.4939
5.09817	35.3656
5.09316	35.2264
5.08816	35.2113
5.08317	35.2523
5.07819	35.1914
5.07322	35.0836
5.06826	35.1271
5.06331	35.1946
5.05837	35.1026
5.05344	34.9493
5.04852	34.8638
5.04361	34.7819
5.03871	34.7078
5.03382	34.665
5.02894	34.6138
5.02406	34.6022
5.0192	34.5755
5.01435	34.4656
5.0095	34.3404
5.00467	34.1327
4.99984	33.8361
4.99502	33.4879
4.99021	33.0477
4.98542	32.6125
4.98063	32.0955
4.97585	31.4706
4.97108	30.8934
4.96632	30.4553
4.96156	30.0716
4.95682	29.8033
4.95209	29.6129
4.94736	29.4392
4.94264	29.2978
4.93794	29.2447
4.93324	29.2573
4.92855	29.3507
4.92387	29.5108
4.9192	29.659
4.91453	29.7614
4.90988	29.7841
4.90524	29.7812
4.9006	29.8026
4.89597	29.7905
4.89135	29.7726
4.88674	29.7052
4.88214	29.7988
4.87755	30.0458
4.87296	30.2902
4.86839	30.6526
4.86382	31.2091
4.85926	31.8175
4.85471	32.3079
4.85017	32.751
4.84564	33.1996
4.84111	33.5718
4.8366	33.9057
4.83209	34.1588
4.82759	34.3574
4.8231	34.5971
4.81862	34.7865
4.81415	34.9878
4.80968	35.2056
4.80522	35.3599
4.80077	35.6054
4.79633	35.9355
4.7919	36.2923
4.78747	36.7207
4.78306	37.1528
4.77865	37.5654
4.77425	38.1122
4.76986	38.6642
4.76547	39.171
4.7611	39.6193
4.75673	40.1183
4.75237	40.5822
4.74802	41.023
4.74367	41.4224
4.73934	41.8026
4.73501	42.1427
4.73069	42.2987
4.72638	42.4389
4.72207	42.6047
4.71777	42.7153
4.71348	42.8074
4.7092	42.9635
4.70493	43.0098
4.70066	43.0128
4.69641	43.0581
4.69216	43.1592
4.68791	43.2541
4.68368	43.2985
4.67945	43.3457
4.67523	43.4312
4.67102	43.5547
4.66682	43.6671
4.66262	43.7275
4.65843	43.7826
4.65425	43.8263
4.65007	43.8561
4.64591	43.8245
4.64175	43.8062
4.6376	43.753
4.63345	43.6251
4.62932	43.5519
4.62519	43.5351
4.62106	43.5295
4.61695	43.4776
4.61284	43.468
4.60874	43.5404
4.60465	43.6859
4.60056	43.8161
4.59648	43.9163
4.59241	44.0422
4.58835	44.3597
4.58429	44.7335
4.58024	45.0684
4.5762	45.349
4.57216	45.6255
4.56814	45.9483
4.56411	46.3037
4.5601	46.6334
4.55609	46.9246
4.55209	47.1897
4.5481	47.4594
4.54411	47.7368
4.54013	47.9786
4.53616	48.1671
4.5322	48.4066
4.52824	48.6651
4.52429	48.872
4.52034	49.0535
4.51641	49.2876
4.51247	49.4488
4.50855	49.5268
4.50463	49.7172
4.50072	50.0062
4.49682	50.1544
4.49292	50.2378
4.48903	50.3929
4.48515	50.6284
4.48127	50.7596
4.4774	50.8921
4.47354	51.0013
4.46968	51.0845
4.46584	51.2208
4.46199	51.4223
4.45815	51.5226
4.45432	51.5614
4.4505	51.6336
4.44668	51.6922
4.44287	51.7287
4.43907	51.8285
4.43527	51.8781
4.43148	51.9567
4.4277	52.0323
4.42392	52.0661
4.42015	52.0902
4.41638	52.1593
4.41262	52.235
4.40887	52.2816
4.40513	52.3393
4.40139	52.3813
4.39765	52.4714
4.39393	52.5496
4.39021	52.5457
4.38649	52.5971
4.38278	52.6683
4.37908	52.6634
4.37539	52.7058
4.3717	52.7802
4.36801	52.7821
4.36434	52.8022
4.36067	52.8761
4.357	52.9151
4.35335	52.927
4.34969	52.9617
4.34605	53.0137
4.34241	53.0652
4.33877	53.0786
4.33514	53.105
4.33152	53.138
4.32791	53.1557
4.3243	53.2259
4.32069	53.2628
4.3171	53.2506
4.31351	53.3418
4.30992	53.3986
4.30634	53.4447
4.30277	53.4372
4.2992	53.5023
4.29564	53.5646
4.29208	53.6353
4.28853	53.6586
4.28499	53.6866
4.28145	53.7472
4.27792	53.7233
4.27439	53.6983
4.27087	53.7313
4.26735	53.7317
4.26384	53.6512
4.26034	53.6137
4.25684	53.6508
4.25335	53.7577
4.24986	53.8435
4.24638	53.8851
4.24291	53.9315
4.23944	54.089
4.23598	54.1491
4.23252	54.0679
4.22906	54.0553
4.22562	54.0907
4.22218	54.1189
4.21874	54.0676
4.21531	53.9922
4.21189	53.9147
4.20847	53.9019
4.20506	53.8983
4.20165	53.8253
4.19825	53.851
4.19485	53.8871
4.19146	53.8391
4.18807	53.9065
4.18469	53.9456
4.18132	54.0189
4.17795	54.0589
4.17458	54.0378
4.17123	54.0473
4.16787	54.107
4.16453	54.0943
4.16118	54.0766
4.15785	54.0904
4.15451	54.1254
4.15119	54.1425
4.14787	54.1802
4.14455	54.1947
4.14124	54.2126
4.13794	54.2499
4.13464	54.2269
4.13134	54.1599
4.12805	54.2057
4.12477	54.2515
4.12149	54.1984
4.11822	54.1493
4.11495	54.1846
4.11168	54.2224
4.10843	54.2497
4.10517	54.3217
4.10192	54.356
4.09868	54.3223
4.09545	54.3316
4.09221	54.3359
4.08899	54.2987
4.08576	54.2619
4.08255	54.2791
4.07933	54.2769
4.07613	54.2752
4.07292	54.1916
4.06973	54.1893
4.06654	54.2334
4.06335	54.2104
4.06017	54.2251
4.05699	54.2501
4.05382	54.2314
4.05065	54.2166
4.04749	54.175
4.04433	54.1135
4.04118	54.1005
4.03803	54.1843
4.03489	54.201
4.03175	54.0613
4.02862	54.0014
4.02549	54.0365
4.02237	54.0326
4.01925	53.9606
4.01614	53.8597
4.01303	53.7989
4.00993	53.7498
4.00683	53.6927
4.00373	53.5779
4.00064	53.4911
3.99756	53.4332
3.99448	53.4167
3.9914	53.4775
3.98833	53.5373
3.98527	53.5711
3.98221	53.7065
3.97915	53.7845
3.9761	53.7745
3.97305	53.7905
3.97001	53.8245
3.96697	53.8231
3.96394	53.8666
3.96091	53.9698
3.95789	54.0092
3.95487	54.0333
3.95186	54.1073
3.94885	54.1156
3.94584	54.0635
3.94284	54.0845
3.93984	54.1906
3.93685	54.2437
3.93386	54.2075
3.93088	54.1882
3.9279	54.2641
3.92493	54.2888
3.92196	54.2205
3.919	54.2307
3.91604	54.3223
3.91308	54.4083
3.91013	54.4476
3.90718	54.418
3.90424	54.3607
3.9013	54.367
3.89837	54.4126
3.89544	54.3939
3.89252	54.3816
3.8896	54.4261
3.88668	54.4659
3.88377	54.4794
3.88086	54.4296
3.87796	54.3817
3.87506	54.4362
3.87217	54.4963
3.86928	54.4974
3.86639	54.4953
3.86351	54.4504
3.86064	54.4143
3.85776	54.4036
3.8549	54.3896
3.85203	54.4119
3.84917	54.476
3.84631	54.3944
3.84346	54.3601
3.84062	54.4245
3.83777	54.4188
3.83494	54.4094
3.8321	54.4856
3.82927	54.5407
3.82644	54.4631
3.82362	54.3957
3.82081	54.4226
3.81799	54.4622
3.81518	54.4221
3.81238	54.3614
3.80958	54.4052
3.80678	54.46
3.80399	54.4759
3.8012	54.4565
3.79841	54.3788
3.79563	54.3445
3.79286	54.3831
3.79008	54.3729
3.78731	54.3314
3.78455	54.3385
3.78179	54.3599
3.77903	54.3014
3.77628	54.3161
3.77353	54.3589
3.77079	54.2603
3.76805	54.242
3.76531	54.2531
3.76258	54.2324
3.75985	54.2376
3.75713	54.2633
3.7544	54.2488
3.75169	54.1742
3.74898	54.1822
3.74627	54.1784
3.74356	54.1311
3.74086	54.0463
3.73816	54.0046
3.73547	54.0016
3.73278	53.9726
3.7301	53.9733
3.72741	53.9411
3.72474	53.9011
3.72206	53.898
3.71939	53.8978
3.71673	53.8929
3.71406	53.8848
3.71141	53.8399
3.70875	53.723
3.7061	53.6787
3.70345	53.737
3.70081	53.8054
3.69817	53.7496
3.69553	53.6478
3.6929	53.6371
3.69027	53.6526
3.68765	53.687
3.68503	53.654
3.68241	53.503
3.6798	53.4907
3.67719	53.6404
3.67458	53.6942
3.67198	53.7085
3.66938	53.6399
3.66678	53.5531
3.66419	53.578
3.66161	53.6645
3.65902	53.6389
3.65644	53.6069
3.65387	53.6049
3.65129	53.5477
3.64872	53.5722
3.64616	53.6083
3.64359	53.6132
3.64103	53.5792
3.63848	53.5118
3.63593	53.5409
3.63338	53.5769
3.63084	53.5825
3.6283	53.5327
3.62576	53.4826
3.62322	53.4087
3.62069	53.386
3.61817	53.3657
3.61564	53.2994
3.61312	53.2282
3.61061	53.2774
3.6081	53.3312
3.60559	53.3094
3.60308	53.2026
3.60058	53.0928
3.59808	53.0892
3.59558	53.1551
3.59309	53.1629
3.59061	53.0818
3.58812	53.0198
3.58564	52.9528
3.58316	52.9062
3.58069	52.9049
3.57822	52.9135
3.57575	52.8707
3.57328	52.817
3.57082	52.8012
3.56836	52.7909
3.56591	52.7471
3.56346	52.7701
3.56101	52.7363
3.55857	52.6642
3.55613	52.6612
3.55369	52.6284
3.55126	52.5867
3.54883	52.5278
3.5464	52.379
3.54397	52.3017
3.54155	52.3534
3.53914	52.3823
3.53672	52.3341
3.53431	52.2362
3.5319	52.1491
3.5295	52.1013
3.5271	52.0242
3.5247	51.9324
3.52231	51.8429
3.51991	51.7983
3.51753	51.7315
3.51514	51.6225
3.51276	51.4125
3.51038	51.1989
3.50801	51.1318
3.50563	51.0884
3.50327	51.0516
3.5009	50.9605
3.49854	50.8006
3.49618	50.7886
3.49382	50.8159
3.49147	50.8251
3.48912	50.8155
3.48677	50.7083
3.48443	50.6646
3.48209	50.6045
3.47975	50.5257
3.47742	50.4327
3.47509	50.4156
3.47276	50.432
3.47044	50.3456
3.46812	50.2379
3.4658	50.1863
3.46348	50.1976
3.46117	50.1561
3.45886	50.0169
3.45656	49.8244
3.45425	49.7914
3.45195	49.7699
3.44966	49.7033
3.44736	49.567
3.44507	49.4989
3.44279	49.4348
3.4405	49.2863
3.43822	49.1558
3.43594	49.0673
3.43367	48.9623
3.43139	48.8945
3.42912	48.8423
3.42686	48.67
3.42459	48.5119
3.42233	48.4427
3.42007	48.3278
3.41782	48.218
3.41557	48.2062
3.41332	48.2228
3.41108	48.2395
3.40883	48.26
3.40659	48.3022
3.40435	48.3003
3.40212	48.2794
3.39989	48.2881
3.39766	48.2893
3.39544	48.346
3.39322	48.4114
3.391	48.3808
3.38878	48.3942
3.38657	48.4416
3.38436	48.3476
3.38215	48.2454
3.37994	48.1594
3.37774	48.1048
3.37554	48.0586
3.37335	47.9775
3.37115	47.9121
3.36896	47.9291
3.36678	47.8174
3.36459	47.691
3.36241	47.6906
3.36023	47.6661
3.35805	47.6888
3.35588	47.683
3.35371	47.6118
3.35154	47.6047
3.34938	47.5648
3.34721	47.4594
3.34505	47.3214
3.3429	47.2122
3.34074	47.0965
3.33859	47.009
3.33644	47.0129
3.3343	47.011
3.33215	46.9074
3.33001	46.7274
3.32788	46.6103
3.32574	46.5789
3.32361	46.5705
3.32148	46.5304
3.31936	46.4506
3.31723	46.3376
3.31511	46.243
3.31299	46.1224
3.31088	45.8796
3.30876	45.7194
3.30665	45.6354
3.30455	45.537
3.30244	45.4156
3.30034	45.277
3.29824	45.1087
3.29614	44.8628
3.29405	44.7012
3.29196	44.5903
3.28987	44.4301
3.28778	44.1806
3.2857	44.0353
3.28362	43.8698
3.28154	43.591
3.27946	43.3898
3.27739	43.213
3.27532	43.1228
3.27325	43.0205
3.27119	42.8885
3.26913	42.7983
3.26707	42.6592
3.26501	42.6201
3.26295	42.5453
3.2609	42.3589
3.25885	42.2104
3.2568	42.0681
3.25476	41.9738
3.25272	41.9022
3.25068	41.82
3.24864	41.7978
3.24661	41.7554
3.24458	41.5689
3.24255	41.4497
3.24052	41.4361
3.2385	41.2949
3.23648	41.1118
3.23446	40.9273
3.23244	40.8177
3.23043	40.7603
3.22841	40.6135
3.2264	40.4211
3.2244	40.2372
3.22239	39.9816
3.22039	39.7419
3.21839	39.5867
3.2164	39.4388
3.2144	39.262
3.21241	38.9559
3.21042	38.6825
3.20844	38.4295
3.20645	38.3207
3.20447	38.1322
3.20249	37.7552
3.20051	37.4578
3.19854	37.2643
3.19657	37.0023
3.1946	36.6462
3.19263	36.329
3.19067	36.1089
3.1887	35.9474
3.18674	35.714
3.18479	35.5105
3.18283	35.2907
3.18088	35.0214
3.17893	34.8288
3.17698	34.6858
3.17504	34.5238
3.17309	34.3601
3.17115	34.2512
3.16921	34.1082
3.16728	33.8556
3.16534	33.6843
3.16341	33.5736
3.16148	33.4603
3.15956	33.3221
3.15763	33.1029
3.15571	32.8794
3.15379	32.6853
3.15187	32.5722
3.14996	32.4425
3.14805	32.1162
3.14614	31.8643
3.14423	31.6636
3.14232	31.3897
3.14042	31.0269
3.13852	30.7957
3.13662	30.6133
3.13472	30.1882
3.13283	29.7332
3.13094	29.3958
3.12905	29.0178
3.12716	28.634
3.12528	28.2358
3.12339	27.9004
3.12151	27.4546
3.11964	27.045
3.11776	26.6674
3.11589	26.3163
3.11401	25.9411
3.11214	25.5386
3.11028	25.156
3.10841	24.7909
3.10655	24.4531
3.10469	24.1281
3.10283	23.808
3.10098	23.3849
3.09912	23.0333
3.09727	22.7432
3.09542	22.4543
3.09358	22.1628
3.09173	21.9705
3.08989	21.7089
3.08805	21.3751
3.08621	21.141
3.08437	20.87
3.08254	20.6521
3.08071	20.478
3.07888	20.2869
3.07705	20.0996
3.07523	19.9693
3.0734	19.8028
3.07158	19.6513
3.06977	19.489
3.06795	19.3031
3.06613	19.1561
3.06432	18.9575
3.06251	18.7362
3.0607	18.6055
3.0589	18.6126
3.0571	18.4396
3.05529	18.2588
3.05349	18.205
3.0517	18.1132
3.0499	17.9191
3.04811	17.8953
3.04632	17.8796
3.04453	17.7185
3.04274	17.66
3.04096	17.5605
3.03918	17.4505
3.0374	17.2775
3.03562	17.1493
3.03384	17.1726
3.03207	17.138
3.03029	16.8589
3.02852	16.733
3.02676	16.6685
3.02499	16.4259
3.02323	16.0739
3.02146	15.6988
3.0197	15.4034
3.01795	15.0723
3.01619	14.7818
3.01444	14.4437
3.01269	14.0854
3.01094	13.7558
3.00919	13.2684
3.00744	12.7121
3.0057	12.2567
3.00396	11.8615
3.00222	11.5689
3.00048	11.1245
2.99875	10.5966
2.99701	10.241
2.99528	9.87402
2.99355	9.52299
2.99183	9.20703
2.9901	8.90995
2.98838	8.64444
2.98666	8.44943
2.98494	8.19258
2.98322	7.85014
2.9815	7.66987
2.97979	7.42515
2.97808	7.41464
2.97637	7.4531
2.97466	7.301
2.97295	7.14984
2.97125	6.98745
2.96955	6.87313
2.96785	6.8664
2.96615	6.7182
2.96446	6.71269
2.96276	6.81493
2.96107	6.75022
2.95938	6.76394
2.95769	6.84028
2.95601	6.9503
2.95432	7.14071
2.95264	7.17944
2.95096	7.1783
2.94928	7.26789
2.9476	7.44784
2.94593	7.78821
2.94425	8.01388
2.94258	8.21148
2.94092	8.45272
2.93925	8.81043
2.93758	9.16383
2.93592	9.48878
2.93426	9.83535
2.9326	10.2254
2.93094	10.7709
2.92928	11.1351
2.92763	11.4801
2.92598	11.9062
2.92433	12.2743
2.92268	12.6872
2.92103	13.1984
2.91939	13.6268
2.91775	13.8796
2.9161	14.1846
2.91447	14.641
2.91283	14.9066
2.91119	14.893
2.90956	15.0799
2.90793	15.3788
2.9063	15.5079
2.90467	15.6935
2.90304	15.9835
2.90142	16.0322
2.89979	16.105
2.89817	16.3273
2.89656	16.3923
2.89494	16.4012
2.89332	16.6423
2.89171	16.7737
2.8901	16.8705
2.88849	17.0486
2.88688	17.121
2.88527	17.2876
2.88367	17.4102
2.88206	17.4623
2.88046	17.8388
2.87886	18.1545
2.87727	18.4719
2.87567	18.7853
2.87408	18.9391
2.87248	19.2985
2.87089	19.8003
2.8693	20.1581
2.86772	20.534
2.86613	20.8162
2.86455	21.0563
2.86297	21.477
2.86139	21.9385
2.85981	22.2932
2.85823	22.6713
2.85666	23.0809
2.85508	23.5169
2.85351	23.7999
2.85194	24.1027
2.85038	24.6534
2.84881	25.1053
2.84724	25.4496
2.84568	25.8402
2.84412	26.2614
2.84256	26.6871
2.841	27.0395
2.83945	27.5735
2.83789	27.964
2.83634	28.3555
2.83479	28.8905
2.83324	29.2524
2.83169	29.48
2.83015	29.8831
2.82861	30.2419
2.82706	30.5862
2.82552	30.9048
2.82398	31.1353
2.82245	31.555
2.82091	31.8793
2.81938	32.0929
2.81784	32.344
2.81631	32.6107
2.81479	32.8258
2.81326	32.9294
2.81173	33.0931
2.81021	33.2598
2.80869	33.4185
2.80716	33.6353
2.80565	33.9154
2.80413	34.3356
2.80261	34.5442
2.8011	34.3992
2.79959	34.4858
2.79808	34.7307
2.79657	34.8876
2.79506	35.1281
2.79355	35.3209
2.79205	35.3882
2.79055	35.5804
2.78904	36.0497
2.78754	36.6065
2.78605	36.735
2.78455	36.6579
2.78306	36.9439
2.78156	37.2747
2.78007	37.4815
2.77858	37.7614
2.77709	38.0724
2.77561	38.4618
2.77412	38.6381
2.77264	38.9839
2.77116	39.576
2.76968	39.8288
2.7682	40.0006
2.76672	39.9261
2.76524	39.7749
2.76377	40.141
2.7623	40.3626
2.76083	40.0702
2.75936	39.9575
2.75789	40.5536
2.75642	41.8155
2.75496	42.3303
2.7535	41.7565
2.75203	41.8389
2.75057	41.9958
2.74912	42.1971
2.74766	42.3765
2.7462	42.5408
2.74475	42.7835
2.7433	43.3994
2.74185	44.6096
2.7404	45.4667
2.73895	44.9936
2.7375	44.1554
2.73606	44.3671
2.73462	44.9271
2.73318	44.7617
2.73174	44.7301
2.7303	44.9317
2.72886	45.1723
2.72742	45.4396
2.72599	46.3629
2.72456	47.4504
2.72313	47.1736
2.7217	47.7254
2.72027	48.7404
2.71884	47.933
2.71742	47.6302
2.71599	47.6654
2.71457	47.8399
2.71315	48.3679
2.71173	49.593
2.71032	49.9344
2.7089	49.2529
2.70748	48.6864
2.70607	48.4282
2.70466	48.4677
2.70325	48.6813
2.70184	49.2131
2.70043	49.4854
2.69903	49.7359
2.69762	50.4407
2.69622	51.5115
2.69482	52.671
2.69342	53.228
2.69202	52.7858
2.69062	52.8596
2.68923	53.3805
2.68783	53.9608
2.68644	54.3551
2.68505	54.6075
2.68366	54.8851
2.68227	54.7505
2.68089	55.0091
2.6795	56.0493
2.67812	56.5266
2.67673	56.9932
2.67535	56.5441
2.67397	55.9827
2.6726	56.2663
2.67122	58.0997
2.66984	58.3116
2.66847	57.227
2.6671	58.2501
2.66572	58.6024
2.66435	57.7624
2.66299	56.653
2.66162	56.6515
2.66025	56.7916
2.65889	56.7348
2.65753	56.3804
2.65616	56.7706
2.65481	56.8651
2.65345	57.1127
2.65209	57.0772
2.65073	56.5248
2.64938	56.4386
2.64803	56.5658
2.64667	56.9183
2.64532	57.1123
2.64397	56.7074
2.64263	56.8184
2.64128	56.8254
2.63994	56.7695
2.63859	56.7138
2.63725	56.7421
2.63591	56.7896
2.63457	57.2809
2.63323	57.4124
2.6319	57.7311
2.63056	58.6592
2.62923	57.9103
2.62789	57.6239
2.62656	58.1688
2.62523	57.273
2.6239	56.8184
2.62258	57.0262
2.62125	58.1027
2.61993	58.3435
2.6186	57.782
2.61728	58.5215
2.61596	58.1697
2.61464	57.3331
2.61332	57.4729
2.61201	57.3221
2.61069	57.48
2.60938	57.7854
2.60807	57.9094
2.60675	58.5066
2.60544	59.085
2.60414	58.3234
2.60283	57.9359
2.60152	57.8192
2.60022	57.5483
2.59891	57.3856
2.59761	57.7964
2.59631	59.4244
2.59501	61.3946
2.59371	59.9302
2.59242	57.9042
2.59112	57.5612
2.58983	57.8226
2.58853	58.0919
2.58724	58.331
2.58595	58.1127
2.58466	58.8147
2.58338	58.9272
2.58209	58.2105
2.5808	58.1078
2.57952	57.6262
2.57824	57.8245
2.57695	58.1953
2.57567	57.8402
2.5744	58.0978
2.57312	58.4654
2.57184	57.7297
2.57057	57.9714
2.56929	58.0783
2.56802	57.4859
2.56675	57.3487
2.56548	57.9631
2.56421	58.66
2.56294	58.7326
2.56168	58.6367
2.56041	58.2154
2.55915	57.5692
2.55789	57.3017
2.55662	57.4256
2.55536	57.4929
2.5541	57.5932
2.55285	57.9395
2.55159	58.0086
2.55034	57.8488
2.54908	57.7217
2.54783	57.7661
2.54658	57.635
2.54533	57.559
2.54408	57.6618
2.54283	57.7983
2.54159	57.6774
2.54034	57.5212
2.5391	57.5001
2.53785	57.5124
2.53661	57.6291
2.53537	57.71
2.53413	57.7517
2.53289	57.8256
2.53166	57.7675
2.53042	57.6752
2.52919	57.5532
2.52795	57.5822
2.52672	57.7252
2.52549	57.6311
2.52426	57.6025
2.52303	57.6685
2.52181	57.7501
2.52058	57.7244
2.51936	57.6786
2.51813	57.6289
2.51691	57.6231
2.51569	57.6714
2.51447	57.707
2.51325	57.7458
2.51203	57.7993
2.51082	57.7799
2.5096	57.7329
2.50839	57.7877
2.50717	57.8572
2.50596	57.855
2.50475	57.8148
2.50354	57.8198
2.50233	57.8082
2.50113	57.8676
2.49992	58.0006
2.49872	58.0271
2.49751	58.0387
2.49631	58.1093
2.49511	57.9612
2.49391	57.9505
2.49271	58.0242
2.49151	58.0208
2.49031	57.9539
2.48912	58.005
2.48792	58.1748
2.48673	58.1406
2.48554	58.1677
2.48435	58.1644
2.48316	58.0909
2.48197	58.1823
2.48078	58.2702
2.4796	58.214
2.47841	58.2007
2.47723	58.1748
2.47604	58.0925
2.47486	58.1144
2.47368	58.2797
2.4725	58.4012
2.47132	58.4415
2.47014	58.462
2.46897	58.4524
2.46779	58.4073
2.46662	58.3707
2.46545	58.304
2.46427	58.3595
2.4631	58.4668
2.46193	58.46
2.46077	58.4331
2.4596	58.4808
2.45843	58.5036
2.45727	58.4331
2.4561	58.4041
2.45494	58.3812
2.45378	58.4069
2.45262	58.5362
2.45146	58.5535
2.4503	58.5086
2.44914	58.4596
2.44799	58.5187
2.44683	58.5635
2.44568	58.6311
2.44452	58.6494
2.44337	58.5592
2.44222	58.5398
2.44107	58.5622
2.43992	58.5863
2.43877	58.6475
2.43763	58.613
2.43648	58.5803
2.43534	58.6392
2.43419	58.6427
2.43305	58.7187
2.43191	58.7552
2.43077	58.6941
2.42963	58.7089
2.42849	58.5728
2.42736	58.5606
2.42622	58.5872
2.42509	58.5751
2.42395	58.5438
2.42282	58.613
2.42169	58.7374
2.42056	58.6286
2.41943	58.6677
2.4183	58.7792
2.41717	58.7772
2.41605	58.6911
2.41492	58.5613
2.4138	58.5226
2.41267	58.6426
2.41155	58.6025
2.41043	58.5538
2.40931	58.6043
2.40819	58.5856
2.40707	58.4918
2.40595	58.3819
2.40484	58.4179
2.40372	58.4231
2.40261	58.5025
2.4015	58.5431
2.40039	58.4521
2.39928	58.3634
2.39817	58.334
2.39706	58.3359
2.39595	58.2874
2.39484	58.236
2.39374	58.3279
2.39263	58.2592
2.39153	58.2535
2.39043	58.2127
2.38932	58.1332
2.38822	58.1387
2.38712	58.1549
2.38603	58.0223
2.38493	57.8786
2.38383	57.8202
2.38274	57.8146
2.38164	57.7784
2.38055	57.6643
2.37946	57.5343
2.37836	57.4711
2.37727	57.3326
2.37618	57.1295
2.3751	57.0525
2.37401	57.0146
2.37292	56.9286
2.37184	56.7073
2.37075	56.4903
2.36967	56.3545
2.36859	56.1556
2.3675	55.9703
2.36642	55.6218
2.36534	55.2889
2.36427	54.9683
2.36319	54.722
2.36211	54.3247
2.36104	53.9173
2.35996	53.349
2.35889	52.9702
2.35781	52.6187
2.35674	51.9597
2.35567	51.3191
2.3546	50.9144
2.35353	50.4512
2.35247	49.914
2.3514	49.4802
2.35033	49.0145
2.34927	48.5771
2.3482	48.1047
2.34714	47.8304
2.34608	47.643
2.34502	47.2922
2.34396	46.9781
2.3429	46.8522
2.34184	46.8664
2.34078	46.8233
2.33973	46.7098
2.33867	46.7793
2.33762	46.7372
2.33656	46.6892
2.33551	46.8712
2.33446	47.0773
2.33341	47.2657
2.33236	47.5173
2.33131	47.8065
2.33026	47.9813
2.32922	48.3197
2.32817	48.6827
2.32712	48.9743
2.32608	49.2302
2.32504	49.5223
2.324	49.9055
2.32295	50.1085
2.32191	50.415
2.32087	50.7506
2.31984	50.8785
2.3188	51.183
2.31776	51.6725
2.31673	51.8908
2.31569	52.0043
2.31466	52.2853
2.31362	52.8171
2.31259	53.183
2.31156	53.3907
2.31053	53.6924
2.3095	53.8311
2.30847	54.0612
2.30745	54.2752
2.30642	54.455
2.3054	54.6624
2.30437	54.8731
2.30335	55.1744
2.30232	55.3308
2.3013	55.4002
2.30028	55.5489
2.29926	55.7538
2.29824	55.952
2.29722	56.0895
2.29621	56.0475
2.29519	55.8793
2.29417	55.918
2.29316	56.1809
2.29215	56.4053
2.29113	56.4994
2.29012	56.6652
2.28911	56.7784
2.2881	56.8203
2.28709	56.7864
2.28608	56.8168
2.28507	56.9389
2.28407	57.0892
2.28306	57.0677
2.28206	56.9929
2.28105	57.0454
2.28005	57.2213
2.27905	57.2565
2.27805	57.2819
2.27705	57.3902
2.27605	57.4195
2.27505	57.3
2.27405	57.2434
2.27305	57.2838
2.27206	57.2977
2.27106	57.2543
2.27007	57.2297
2.26907	57.3557
2.26808	57.3187
2.26709	57.2429
2.2661	57.3257
2.26511	57.2786
2.26412	57.1037
2.26313	56.9081
2.26214	56.7891
2.26116	56.6867
2.26017	56.5863
2.25919	56.4814
2.2582	56.3357
2.25722	56.2648
2.25624	56.1794
2.25526	56.0368
2.25428	56.0036
2.2533	56.1901
2.25232	56.4279
2.25134	56.5228
2.25036	56.5089
2.24939	56.4951
2.24841	56.5509
2.24744	56.8478
2.24646	57.0899
2.24549	57.219
2.24452	57.3863
2.24355	57.4675
2.24257	57.5919
2.24161	57.8307
2.24064	57.9652
2.23967	58.0107
2.2387	58.0863
2.23774	58.1608
2.23677	58.3244
2.23581	58.5449
2.23484	58.6264
2.23388	58.6168
2.23292	58.6428
2.23196	58.6299
2.231	58.7027
2.23004	58.8723
2.22908	58.9483
2.22812	58.9237
2.22716	58.9073
2.22621	58.8967
2.22525	58.9111
2.2243	58.9717
2.22334	59.1424
2.22239	59.265
2.22144	59.1119
2.22049	58.9756
2.21953	59.0067
2.21859	59.0206
2.21764	59.1429
2.21669	59.1514
2.21574	59.1953
2.21479	59.1884
2.21385	59.1471
2.2129	59.1727
2.21196	59.1405
2.21102	59.114
2.21007	59.2043
2.20913	59.3029
2.20819	59.3535
2.20725	59.2381
2.20631	59.1562
2.20537	59.2602
2.20444	59.3139
2.2035	59.3398
2.20256	59.4045
2.20163	59.3813
2.20069	59.3151
2.19976	59.2041
2.19883	59.1499
2.19789	59.2077
2.19696	59.2908
2.19603	59.3593
2.1951	59.5146
2.19417	59.357
2.19325	59.3628
2.19232	59.4614
2.19139	59.4629
2.19047	59.4252
2.18954	59.4285
2.18862	59.5074
2.18769	59.6669
2.18677	59.658
2.18585	59.513
2.18493	59.4073
2.18401	59.4783
2.18309	59.5983
2.18217	59.5307
2.18125	59.4782
2.18033	59.4714
2.17942	59.4247
2.1785	59.5842
2.17759	59.7945
2.17667	59.8085
2.17576	59.6763
2.17485	59.6092
2.17393	59.4716
2.17302	59.328
2.17211	59.2548
2.1712	59.4832
2.17029	59.6561
2.16939	59.5552
2.16848	59.4851
2.16757	59.6057
2.16667	59.7575
2.16576	59.7344
2.16486	59.6517
2.16395	59.6334
2.16305	59.6085
2.16215	59.5766
2.16125	59.6019
2.16035	59.7662
2.15945	59.8687
2.15855	59.72
2.15765	59.5889
2.15675	59.6075
2.15586	59.7087
2.15496	59.7289
2.15406	59.6597
2.15317	59.8803
2.15228	59.9524
2.15138	59.9442
2.15049	60.0248
2.1496	59.9839
2.14871	59.7598
2.14782	59.6135
2.14693	59.5407
2.14604	59.6205
2.14515	59.6332
2.14427	59.6996
2.14338	59.6774
2.14249	59.6927
2.14161	59.7834
2.14072	59.8371
2.13984	59.8999
2.13896	59.8415
2.13808	59.7502
2.13719	59.6246
2.13631	59.5849
2.13543	59.7145
2.13455	59.8139
2.13368	59.7232
2.1328	59.6721
2.13192	59.7549
2.13105	59.6485
2.13017	59.4833
2.1293	59.5679
2.12842	59.6953
2.12755	59.7308
2.12668	59.7959
2.1258	59.746
2.12493	59.7483
2.12406	59.6996
2.12319	59.8844
2.12232	59.9329
2.12145	59.8152
2.12059	59.7246
2.11972	59.5012
2.11885	59.6851
2.11799	59.7485
2.11712	59.6697
2.11626	59.7407
2.1154	59.7994
2.11453	59.8395
2.11367	59.6943
2.11281	59.6086
2.11195	59.5921
2.11109	59.6795
2.11023	59.7728
2.10937	59.9493
2.10851	59.9336
2.10766	59.8436
2.1068	59.8088
2.10594	59.7256
2.10509	59.6323
2.10423	59.7862
2.10338	59.8476
2.10253	59.7455
2.10168	59.8386
2.10082	59.9182
2.09997	59.8066
2.09912	59.615
2.09827	59.6245
2.09742	59.8188
2.09658	60.004
2.09573	60.0888
2.09488	60.0948
2.09404	59.8769
2.09319	59.7396
2.09235	59.7176
2.0915	59.7875
2.09066	59.8947
2.08982	59.9012
2.08897	59.9512
2.08813	59.944
2.08729	59.9534
2.08645	59.902
2.08561	59.8314
2.08477	59.7952
2.08394	59.7953
2.0831	59.7339
2.08226	59.7493
2.08143	59.9207
2.08059	59.8684
2.07976	59.7164
2.07892	59.6131
2.07809	59.6812
2.07726	59.8956
2.07643	59.9755
2.07559	59.9518
2.07476	59.8282
2.07393	59.7284
2.0731	59.8807
2.07228	59.9756
2.07145	60
2.07062	59.9807
2.06979	59.9152
2.06897	59.7966
2.06814	59.5711
2.06732	59.7441
2.06649	59.9928
2.06567	60.1507
2.06485	60.2049
2.06403	59.9806
2.0632	60.1284
2.06238	60.1223
2.06156	59.8576
2.06074	59.6668
2.05993	59.9255
2.05911	59.7673
2.05829	59.2861
2.05747	59.623
2.05666	60.1084
2.05584	60.2147
2.05503	59.9642
2.05421	59.9022
2.0534	59.9277
2.05259	59.8279
2.05177	59.7837
2.05096	59.8393
2.05015	60.0067
2.04934	60.0309
2.04853	59.8031
2.04772	59.6499
2.04691	59.483
2.04611	59.769
2.0453	59.9706
2.04449	59.6821
2.04369	59.5263
2.04288	59.6183
2.04208	59.5892
2.04127	59.772
2.04047	59.942
2.03967	59.9497
2.03886	59.9837
2.03806	59.9311
2.03726	59.842
2.03646	59.8034
2.03566	59.715
2.03486	59.875
2.03407	59.9246
2.03327	59.7517
2.03247	59.572
2.03167	59.7126
2.03088	59.8776
2.03008	60.0137
2.02929	60.1426
2.0285	60.0261
2.0277	59.9179
2.02691	59.8954
2.02612	59.934
2.02533	59.7342
2.02453	59.7627
2.02374	59.8486
2.02295	59.8163
2.02217	59.8629
2.02138	59.9341
2.02059	60.017
2.0198	59.9988
2.01902	60.0097
2.01823	60.0145
2.01744	59.957
2.01666	59.9258
2.01588	59.8406
2.01509	59.758
2.01431	59.7297
2.01353	59.8427
2.01275	60.0719
2.01196	60.0705
2.01118	59.8648
2.0104	59.8608
2.00963	59.8671
2.00885	59.847
2.00807	59.8517
2.00729	59.8751
2.00651	59.8086
2.00574	59.8549
2.00496	59.9119
2.00419	59.7298
2.00341	59.6091
2.00264	59.7136
2.00187	59.7883
2.00109	59.8069
2.00032	59.8134
