Name: Basalt
Type: Rock
Class: Igneous
Subclass: Mafic
Particle Size: Whole rock chips
Sample No.: Me13
Owner: Lawrence Rowan, USGS Reston
Wavelength range: 0.40 - 14.05 um
Origin: Abu Matar, Middle East

Description: Basalt bowl base, cut surface





Measurement: Directional Hemispherical Reflectance
First Column: X
Second Column: Y
X Units: Wavelength (micrometers)
Y Units: Reflectance (percent)
First X Value: 14.05105
Last X Value: 0.40000
Number of X Values: 2231
Additional Information: me13ba.txt

 14.051  11.6390
 14.013  11.5566
 13.975  11.8244
 13.938  11.7317
 13.900  11.7111
 13.863  11.7214
 13.826  11.8244
 13.790  11.8965
 13.753  12.0098
 13.717  11.8965
 13.680  11.8244
 13.644  11.7729
 13.609  11.9377
 13.573  11.9274
 13.538  12.0304
 13.502  12.0201
 13.467  12.0098
 13.432  12.0098
 13.398  12.1128
 13.363  12.0510
 13.329  12.0510
 13.295  12.0510
 13.261  12.0613
 13.227  11.9686
 13.193  12.0304
 13.160  12.0098
 13.126  12.0304
 13.093  11.9274
 13.060  12.0304
 13.027  12.0304
 12.995  12.1128
 12.962  12.0922
 12.930  12.0819
 12.898  12.0304
 12.866  12.1437
 12.834  12.1231
 12.802  12.1231
 12.771  12.0510
 12.739  12.1540
 12.708  12.0922
 12.677  12.0819
 12.646  12.0098
 12.616  12.0922
 12.585  12.1540
 12.554  12.1746
 12.524  12.1128
 12.494  12.1231
 12.464  12.1025
 12.434  12.2158
 12.404  12.2158
 12.375  12.3188
 12.345  12.3497
 12.316  12.3703
 12.287  12.3291
 12.258  12.4836
 12.229  12.5969
 12.200  12.6690
 12.171  12.6278
 12.143  12.6999
 12.115  12.7102
 12.086  12.7514
 12.058  12.7205
 12.030  12.9162
 12.002  12.9471
 11.975  12.9265
 11.947  12.8544
 11.920  12.9368
 11.892  13.0192
 11.865  13.1737
 11.838  13.1634
 11.811  13.1737
 11.784  13.1943
 11.757  13.3179
 11.731  13.3591
 11.704  13.4003
 11.678  13.4312
 11.652  13.6475
 11.626  13.6990
 11.600  13.7711
 11.574  13.8020
 11.548  13.8535
 11.522  13.8741
 11.497  13.9565
 11.471  13.8947
 11.446  13.9359
 11.421  14.0080
 11.396  14.1625
 11.371  14.2449
 11.346  14.3273
 11.321  14.3994
 11.297  14.4818
 11.272  14.4921
 11.248  14.5848
 11.223  14.5745
 11.199  14.6260
 11.175  14.6672
 11.151  14.6981
 11.127  14.6260
 11.103  14.7187
 11.079  14.7187
 11.056  14.8320
 11.032  14.9350
 11.009  14.9968
 10.985  14.9556
 10.962  15.0174
 10.939  15.0071
 10.916  15.1101
 10.893  15.1307
 10.870  15.2131
 10.848  15.2234
 10.825  15.1925
 10.802  15.1204
 10.780  15.1616
 10.758  15.1719
 10.735  15.1822
 10.713  15.1204
 10.691  15.1204
 10.669  15.1616
 10.647  15.2955
 10.625  15.2749
 10.604  15.2440
 10.582  15.1513
 10.560  15.1410
 10.539  15.0586
 10.518  15.0380
 10.496  14.9556
 10.475  15.0174
 10.454  15.0483
 10.433  15.0483
 10.412  14.9865
 10.391  15.0174
 10.370  14.9968
 10.350  14.9865
 10.329  14.8938
 10.309  14.9144
 10.288  14.8938
 10.268  14.8732
 10.247  14.8217
 10.227  14.8835
 10.207  14.8526
 10.187  14.8835
 10.167  14.9453
 10.147  14.9968
 10.127  14.8629
 10.108  14.8835
 10.088  14.9247
 10.068  15.0071
 10.049  15.0174
 10.029  15.0277
 10.010  15.0586
  9.991  15.1307
  9.972  15.0998
  9.952  15.2337
  9.933  15.1513
  9.914  15.1719
  9.895  15.2852
  9.877  15.3779
  9.858  15.2955
  9.839  15.2852
  9.821  15.3058
  9.802  15.3058
  9.783  15.2131
  9.765  15.2543
  9.747  15.2955
  9.728  15.3367
  9.710  15.3367
  9.692  15.3367
  9.674  15.3573
  9.656  15.3882
  9.638  15.3264
  9.620  15.4500
  9.602  15.4706
  9.585  15.4397
  9.567  15.4706
  9.549  15.5221
  9.532  15.3058
  9.514  15.2749
  9.497  15.3882
  9.479  15.4706
  9.462  15.3470
  9.445  15.3779
  9.428  15.2955
  9.411  15.2440
  9.394  15.2440
  9.377  15.2337
  9.360  15.1719
  9.343  15.1513
  9.326  15.0586
  9.309  15.0380
  9.293  15.0380
  9.276  15.0071
  9.259  14.9144
  9.243  14.9350
  9.226  14.8423
  9.210  14.8526
  9.194  14.9144
  9.178  15.0071
  9.161  14.9453
  9.145  14.8835
  9.129  14.8423
  9.113  14.9350
  9.097  14.9453
  9.081  15.0071
  9.065  15.0380
  9.049  15.0380
  9.034  15.0174
  9.018  15.0792
  9.002  15.0998
  8.987  15.2440
  8.971  15.1513
  8.956  15.0792
  8.940  15.0689
  8.925  15.1307
  8.909  15.0792
  8.894  15.1719
  8.879  15.1719
  8.864  15.2028
  8.849  15.1616
  8.834  15.1410
  8.819  15.0998
  8.804  15.0277
  8.789  14.9041
  8.774  14.9144
  8.759  14.8938
  8.744  14.8423
  8.730  14.6878
  8.715  14.6569
  8.700  14.7084
  8.686  14.6054
  8.671  14.4818
  8.657  14.5230
  8.642  14.4921
  8.628  14.5230
  8.614  14.5539
  8.599  14.4818
  8.585  14.3994
  8.571  14.4406
  8.557  14.2964
  8.543  14.1934
  8.529  14.2037
  8.515  14.2655
  8.501  14.2140
  8.487  14.2037
  8.473  14.1934
  8.459  14.2861
  8.445  14.2037
  8.431  14.1831
  8.418  14.1625
  8.404  14.1213
  8.391  14.0286
  8.377  14.0492
  8.363  13.9256
  8.350  13.8329
  8.337  13.8329
  8.323  13.7814
  8.310  13.6681
  8.297  13.5239
  8.283  13.3385
  8.270  13.2355
  8.257  13.0604
  8.244  12.9059
  8.231  12.7102
  8.218  12.5557
  8.205  12.3806
  8.192  12.1849
  8.179  12.0098
  8.166  11.9068
  8.153  11.7729
  8.140  11.6493
  8.128  11.5154
  8.115  11.4742
  8.102  11.3815
  8.090  11.2991
  8.077  11.1961
  8.064  11.1858
  8.052  11.1858
  8.039  11.1755
  8.027  11.0931
  8.015  11.0416
  8.002  10.9695
  7.990  10.9386
  7.978  10.8871
  7.965  10.8974
  7.953  10.8562
  7.941  10.8871
  7.929  10.8871
  7.917  10.8562
  7.905  10.8150
  7.893  10.8253
  7.881  10.8047
  7.869  10.8150
  7.857  10.8047
  7.845  10.8768
  7.833  10.8665
  7.821  10.8356
  7.809  10.7944
  7.798  10.7944
  7.786  10.8356
  7.774  10.9180
  7.763  10.8562
  7.751  10.9077
  7.739  10.9180
  7.728  10.8768
  7.716  10.8253
  7.705  10.8253
  7.694  10.7944
  7.682  10.7944
  7.671  10.7944
  7.659  10.8974
  7.648  10.9386
  7.637  10.9592
  7.626  10.9695
  7.614  10.9489
  7.603  10.9386
  7.592  10.9489
  7.581  10.9386
  7.570  10.9798
  7.559  10.9798
  7.548  10.9901
  7.537  11.0004
  7.526  10.9798
  7.515  10.9283
  7.504  10.9283
  7.493  10.8871
  7.483  10.8871
  7.472  10.8871
  7.461  10.9283
  7.450  10.9386
  7.440  11.0004
  7.429  11.0313
  7.418  11.0107
  7.408  11.0107
  7.397  11.0416
  7.387  11.0519
  7.376  11.0519
  7.366  11.0313
  7.355  11.0004
  7.345  10.9695
  7.334  11.0313
  7.324  11.0519
  7.314  11.0210
  7.303  11.0004
  7.293  11.0725
  7.283  11.1240
  7.273  11.0931
  7.263  11.0210
  7.252  11.0210
  7.242  11.0004
  7.232  11.0931
  7.222  11.0725
  7.212  11.0519
  7.202  11.0519
  7.192  11.0828
  7.182  11.1137
  7.172  11.0725
  7.162  10.9901
  7.152  11.0107
  7.143  10.9901
  7.133  11.0622
  7.123  11.1240
  7.113  11.1549
  7.103  11.1858
  7.094  11.2064
  7.084  11.2064
  7.074  11.1961
  7.065  11.1343
  7.055  11.1549
  7.046  11.1446
  7.036  11.1549
  7.026  11.1446
  7.017  11.1446
  7.007  11.1446
  6.998  11.1961
  6.989  11.2270
  6.979  11.2682
  6.970  11.2270
  6.960  11.1652
  6.951  11.1549
  6.942  11.2579
  6.932  11.2682
  6.923  11.2373
  6.914  11.2579
  6.905  11.2682
  6.896  11.2785
  6.886  11.2476
  6.877  11.1858
  6.868  11.1755
  6.859  11.1961
  6.850  11.2373
  6.841  11.2476
  6.832  11.2167
  6.823  11.1858
  6.814  11.2373
  6.805  11.2579
  6.796  11.2991
  6.787  11.2888
  6.778  11.3506
  6.770  11.3403
  6.761  11.3506
  6.752  11.3712
  6.743  11.3815
  6.734  11.3197
  6.726  11.2991
  6.717  11.3506
  6.708  11.4227
  6.700  11.4124
  6.691  11.4536
  6.682  11.4433
  6.674  11.4433
  6.665  11.4639
  6.657  11.4536
  6.648  11.4021
  6.640  11.4124
  6.631  11.4845
  6.623  11.5154
  6.614  11.4536
  6.606  11.4124
  6.597  11.4124
  6.589  11.4433
  6.581  11.4330
  6.572  11.3918
  6.564  11.4330
  6.556  11.5051
  6.547  11.4948
  6.539  11.5154
  6.531  11.4948
  6.523  11.4330
  6.514  11.4433
  6.506  11.4639
  6.498  11.4330
  6.490  11.4845
  6.482  11.4948
  6.474  11.4948
  6.466  11.4845
  6.458  11.5154
  6.450  11.5051
  6.442  11.4948
  6.434  11.4330
  6.426  11.4536
  6.418  11.4330
  6.410  11.4124
  6.402  11.4330
  6.394  11.4536
  6.386  11.4433
  6.378  11.4021
  6.370  11.3712
  6.363  11.4639
  6.355  11.4536
  6.347  11.4021
  6.339  11.4330
  6.332  11.4639
  6.324  11.4021
  6.316  11.3712
  6.308  11.3918
  6.301  11.4433
  6.293  11.4536
  6.286  11.4124
  6.278  11.3815
  6.270  11.4124
  6.263  11.4021
  6.255  11.3918
  6.248  11.4227
  6.240  11.4639
  6.233  11.4433
  6.225  11.4227
  6.218  11.3506
  6.210  11.3094
  6.203  11.2476
  6.195  11.2373
  6.188  11.2682
  6.181  11.3609
  6.173  11.3815
  6.166  11.3197
  6.159  11.2373
  6.151  11.2373
  6.144  11.2064
  6.137  11.2064
  6.130  11.2167
  6.122  11.2167
  6.115  11.2476
  6.108  11.3094
  6.101  11.3094
  6.094  11.2682
  6.086  11.2373
  6.079  11.1961
  6.072  11.2270
  6.065  11.3300
  6.058  11.3300
  6.051  11.2064
  6.044  11.2270
  6.037  11.3197
  6.030  11.3197
  6.023  11.3094
  6.016  11.2785
  6.009  11.2991
  6.002  11.2888
  5.995  11.2579
  5.988  11.2991
  5.981  11.3300
  5.974  11.2991
  5.967  11.2579
  5.960  11.2785
  5.954  11.2476
  5.947  11.2064
  5.940  11.1652
  5.933  11.1137
  5.926  11.1961
  5.920  11.2579
  5.913  11.2682
  5.906  11.2579
  5.899  11.2682
  5.893  11.2888
  5.886  11.2991
  5.879  11.2991
  5.873  11.4639
  5.866  11.4433
  5.859  11.3918
  5.853  11.3815
  5.846  11.4330
  5.840  11.4845
  5.833  11.4845
  5.827  11.4227
  5.820  11.4845
  5.813  11.5875
  5.807  11.5875
  5.800  11.5463
  5.794  11.5978
  5.788  11.5978
  5.781  11.6081
  5.775  11.5978
  5.768  11.5978
  5.762  11.6287
  5.755  11.6596
  5.749  11.6596
  5.743  11.7626
  5.736  11.7729
  5.730  11.7214
  5.724  11.7214
  5.717  11.7317
  5.711  11.7008
  5.705  11.7523
  5.698  11.8141
  5.692  11.8141
  5.686  11.8038
  5.680  11.8244
  5.674  11.8450
  5.667  11.8759
  5.661  11.8450
  5.655  11.8450
  5.649  11.8862
  5.643  11.9171
  5.637  11.9686
  5.630  11.9789
  5.624  11.9686
  5.618  11.9583
  5.612  11.8965
  5.606  11.8759
  5.600  11.9171
  5.594  11.9583
  5.588  11.9892
  5.582  11.9892
  5.576  11.9480
  5.570  11.9995
  5.564  11.9789
  5.558  11.9583
  5.552  12.0407
  5.546  12.0613
  5.540  12.0201
  5.534  12.0201
  5.528  12.0510
  5.523  12.0819
  5.517  12.0613
  5.511  12.0613
  5.505  12.1128
  5.499  12.1437
  5.493  12.1437
  5.487  12.1437
  5.482  12.1231
  5.476  12.1231
  5.470  12.1231
  5.464  12.1746
  5.459  12.1849
  5.453  12.2055
  5.447  12.2055
  5.441  12.1952
  5.436  12.2364
  5.430  12.2879
  5.424  12.2467
  5.419  12.2673
  5.413  12.3188
  5.407  12.2879
  5.402  12.2570
  5.396  12.2673
  5.390  12.2570
  5.385  12.2982
  5.379  12.3291
  5.374  12.3394
  5.368  12.3497
  5.363  12.3497
  5.357  12.3600
  5.352  12.3394
  5.346  12.3703
  5.341  12.4424
  5.335  12.4321
  5.330  12.3909
  5.324  12.4321
  5.319  12.4424
  5.313  12.4939
  5.308  12.5145
  5.302  12.4836
  5.297  12.4836
  5.291  12.4733
  5.286  12.4630
  5.281  12.4527
  5.275  12.5557
  5.270  12.6175
  5.265  12.5969
  5.259  12.5454
  5.254  12.5248
  5.249  12.5660
  5.243  12.6072
  5.238  12.6484
  5.233  12.6381
  5.227  12.6587
  5.222  12.7205
  5.217  12.7308
  5.212  12.7308
  5.206  12.7720
  5.201  12.7617
  5.196  12.7411
  5.191  12.7926
  5.186  12.8132
  5.180  12.7926
  5.175  12.7617
  5.170  12.7720
  5.165  12.8029
  5.160  12.8853
  5.155  12.8853
  5.150  12.8338
  5.145  12.8235
  5.139  12.8235
  5.134  12.8544
  5.129  12.9265
  5.124  12.9265
  5.119  12.9368
  5.114  12.9368
  5.109  12.9162
  5.104  12.9471
  5.099  13.0089
  5.094  13.0604
  5.089  13.0501
  5.084  12.9883
  5.079  12.9780
  5.074  13.0501
  5.069  13.0913
  5.064  13.0913
  5.059  13.1119
  5.054  13.1325
  5.049  13.1428
  5.044  13.1634
  5.040  13.2252
  5.035  13.2252
  5.030  13.2046
  5.025  13.2355
  5.020  13.2252
  5.015  13.1737
  5.010  13.2046
  5.005  13.2870
  5.001  13.3179
  4.996  13.3179
  4.991  13.3591
  4.986  13.3591
  4.981  13.3385
  4.977  13.3488
  4.972  13.3488
  4.967  13.3488
  4.962  13.3900
  4.958  13.4518
  4.953  13.4106
  4.948  13.4621
  4.943  13.5033
  4.939  13.5136
  4.934  13.5342
  4.929  13.5754
  4.925  13.6166
  4.920  13.6269
  4.915  13.6063
  4.911  13.5960
  4.906  13.5960
  4.901  13.6372
  4.897  13.6887
  4.892  13.6784
  4.888  13.6578
  4.883  13.6681
  4.878  13.6887
  4.874  13.6990
  4.869  13.7402
  4.865  13.7711
  4.860  13.7402
  4.856  13.7608
  4.851  13.8638
  4.846  13.8638
  4.842  13.7917
  4.837  13.8226
  4.833  13.8947
  4.828  13.9359
  4.824  13.9153
  4.819  13.9359
  4.815  13.9462
  4.810  13.8947
  4.806  13.8844
  4.802  13.8947
  4.797  13.9359
  4.793  13.9462
  4.788  13.9771
  4.784  13.9874
  4.779  13.9668
  4.775  13.9668
  4.771  13.9874
  4.766  14.0492
  4.762  14.0492
  4.758  14.0080
  4.753  13.9668
  4.749  13.9771
  4.744  13.9874
  4.740  13.9256
  4.736  13.9359
  4.731  13.9771
  4.727  14.0183
  4.723  14.0904
  4.719  14.1316
  4.714  14.1419
  4.710  14.1316
  4.706  14.1522
  4.701  14.1728
  4.697  14.1831
  4.693  14.1625
  4.689  14.2037
  4.684  14.2449
  4.680  14.2758
  4.676  14.2964
  4.672  14.2861
  4.668  14.2964
  4.663  14.3479
  4.659  14.4097
  4.655  14.4509
  4.651  14.4715
  4.647  14.4818
  4.643  14.4509
  4.638  14.4509
  4.634  14.4818
  4.630  14.5333
  4.626  14.5745
  4.622  14.6260
  4.618  14.5951
  4.614  14.5745
  4.610  14.5951
  4.605  14.6775
  4.601  14.6981
  4.597  14.7187
  4.593  14.7599
  4.589  14.7702
  4.585  14.7496
  4.581  14.7290
  4.577  14.7599
  4.573  14.7908
  4.569  14.7393
  4.565  14.7084
  4.561  14.7084
  4.557  14.7084
  4.553  14.7599
  4.549  14.7702
  4.545  14.7702
  4.541  14.8320
  4.537  14.8938
  4.533  14.9247
  4.529  14.8629
  4.525  14.8423
  4.521  14.8629
  4.517  14.9453
  4.513  14.9453
  4.509  14.9556
  4.505  14.9968
  4.502  15.0174
  4.498  15.0277
  4.494  15.1101
  4.490  15.0895
  4.486  15.0586
  4.482  15.1101
  4.478  15.1616
  4.474  15.1101
  4.470  15.1513
  4.467  15.1925
  4.463  15.1719
  4.459  15.2131
  4.455  15.2131
  4.451  15.2234
  4.447  15.2955
  4.444  15.3367
  4.440  15.3676
  4.436  15.3573
  4.432  15.3573
  4.428  15.3882
  4.425  15.4500
  4.421  15.4706
  4.417  15.5221
  4.413  15.5427
  4.410  15.5324
  4.406  15.5633
  4.402  15.5942
  4.398  15.5942
  4.395  15.6354
  4.391  15.6766
  4.387  15.6766
  4.384  15.6972
  4.380  15.7075
  4.376  15.7281
  4.372  15.7487
  4.369  15.8105
  4.365  15.9032
  4.361  15.8620
  4.358  15.8311
  4.354  15.8620
  4.350  15.9547
  4.347  15.8929
  4.343  15.9032
  4.340  16.0268
  4.336  16.0371
  4.332  15.9959
  4.329  16.0268
  4.325  16.0371
  4.321  16.1195
  4.318  16.2225
  4.314  16.2328
  4.311  16.2431
  4.307  16.3049
  4.304  16.3358
  4.300  16.3358
  4.296  16.2843
  4.293  16.3358
  4.289  16.3461
  4.286  16.3770
  4.282  16.4594
  4.279  16.5212
  4.275  16.5212
  4.272  16.4594
  4.268  16.5212
  4.265  16.6036
  4.261  16.6345
  4.258  16.6036
  4.254  16.5624
  4.251  16.5830
  4.247  16.5933
  4.244  16.6036
  4.240  16.6345
  4.237  16.7066
  4.233  16.7684
  4.230  16.8508
  4.226  16.8714
  4.223  16.8714
  4.219  16.9332
  4.216  16.9229
  4.213  16.9332
  4.209  16.9538
  4.206  16.9847
  4.202  17.0465
  4.199  17.1392
  4.196  17.1598
  4.192  17.1083
  4.189  17.1186
  4.185  17.1186
  4.182  17.1804
  4.179  17.1495
  4.175  17.1495
  4.172  17.1701
  4.169  17.2216
  4.165  17.2113
  4.162  17.1907
  4.159  17.1804
  4.155  17.2422
  4.152  17.3246
  4.149  17.3143
  4.145  17.2628
  4.142  17.2422
  4.139  17.2525
  4.135  17.3246
  4.132  17.3555
  4.129  17.4070
  4.126  17.4379
  4.122  17.3967
  4.119  17.2937
  4.116  17.3246
  4.112  17.4173
  4.109  17.4482
  4.106  17.4379
  4.103  17.5409
  4.099  17.5100
  4.096  17.4276
  4.093  17.4276
  4.090  17.4791
  4.086  17.4997
  4.083  17.5203
  4.080  17.5409
  4.077  17.5821
  4.074  17.5821
  4.070  17.5512
  4.067  17.5512
  4.064  17.6439
  4.061  17.7572
  4.058  17.7469
  4.055  17.7366
  4.051  17.7057
  4.048  17.6233
  4.045  17.6645
  4.042  17.7263
  4.039  17.6645
  4.036  17.6645
  4.032  17.7469
  4.029  17.7160
  4.026  17.7263
  4.023  17.6851
  4.020  17.7057
  4.017  17.6954
  4.014  17.6233
  4.011  17.6233
  4.008  17.6954
  4.004  17.6748
  4.001  17.7366
  3.998  17.7572
  3.995  17.7366
  3.992  17.6954
  3.989  17.7469
  3.986  17.7572
  3.983  17.7366
  3.980  17.6954
  3.977  17.6233
  3.974  17.5924
  3.971  17.6027
  3.968  17.6336
  3.965  17.7366
  3.962  17.7057
  3.959  17.6439
  3.956  17.6645
  3.953  17.7057
  3.950  17.7366
  3.947  17.8087
  3.944  17.7675
  3.941  17.7366
  3.938  17.8087
  3.935  17.8808
  3.932  17.8190
  3.929  17.7984
  3.926  17.8087
  3.923  17.9014
  3.920  17.9014
  3.917  17.9117
  3.914  17.9529
  3.911  18.0044
  3.908  17.9735
  3.905  17.8808
  3.902  17.9117
  3.899  18.0353
  3.896  18.0044
  3.893  18.0353
  3.890  17.9632
  3.887  17.9117
  3.884  17.9117
  3.882  17.9632
  3.879  17.9529
  3.876  17.9735
  3.873  18.0456
  3.870  18.0765
  3.867  18.0456
  3.864  18.0456
  3.861  18.0044
  3.858  17.9838
  3.856  18.0044
  3.853  18.0662
  3.850  18.0559
  3.847  17.9529
  3.844  17.9632
  3.841  18.0147
  3.838  17.9941
  3.836  18.0662
  3.833  18.0353
  3.830  18.0662
  3.827  18.0353
  3.824  18.0147
  3.822  18.0147
  3.819  17.9941
  3.816  18.0147
  3.813  18.1074
  3.810  18.1898
  3.807  18.1898
  3.805  18.0559
  3.802  18.0662
  3.799  18.0765
  3.796  18.1280
  3.794  18.1692
  3.791  18.1486
  3.788  18.1486
  3.785  18.1280
  3.782  18.0353
  3.780  18.0250
  3.777  18.1589
  3.774  18.2001
  3.771  18.1074
  3.769  18.1177
  3.766  18.1074
  3.763  18.1177
  3.761  18.1177
  3.758  18.1589
  3.755  18.2104
  3.752  18.1177
  3.750  18.0559
  3.747  18.0662
  3.744  18.1280
  3.742  18.2001
  3.739  18.1589
  3.736  18.1486
  3.733  18.0971
  3.731  18.0559
  3.728  18.1383
  3.725  18.1898
  3.723  18.1692
  3.720  18.1486
  3.717  18.1177
  3.715  18.1589
  3.712  18.1177
  3.709  18.1486
  3.707  18.1589
  3.704  18.1486
  3.702  18.1074
  3.699  18.0765
  3.696  18.1177
  3.694  18.1898
  3.691  18.1383
  3.688  18.0868
  3.686  18.0250
  3.683  18.0044
  3.680  18.0559
  3.678  18.0250
  3.675  17.9735
  3.673  18.0353
  3.670  18.0147
  3.667  17.9838
  3.665  17.9735
  3.662  18.0353
  3.660  18.0147
  3.657  17.9529
  3.655  17.8911
  3.652  17.8911
  3.649  17.9838
  3.647  18.0250
  3.644  17.9838
  3.642  18.0044
  3.639  17.9632
  3.637  17.9323
  3.634  17.9941
  3.632  18.0044
  3.629  17.8911
  3.626  17.9220
  3.624  18.0147
  3.621  17.9735
  3.619  17.8705
  3.616  17.8602
  3.614  17.8499
  3.611  17.8911
  3.609  17.8087
  3.606  17.7881
  3.604  17.8190
  3.601  17.8911
  3.599  17.8396
  3.596  17.7469
  3.594  17.7778
  3.591  17.8499
  3.589  17.7469
  3.586  17.6851
  3.584  17.7263
  3.581  17.7263
  3.579  17.6748
  3.576  17.7160
  3.574  17.6748
  3.571  17.6542
  3.569  17.6542
  3.567  17.6645
  3.564  17.5512
  3.562  17.5100
  3.559  17.5718
  3.557  17.5203
  3.554  17.5615
  3.552  17.7057
  3.549  17.6027
  3.547  17.4482
  3.545  17.3761
  3.542  17.4482
  3.540  17.4276
  3.537  17.3143
  3.535  17.2422
  3.533  17.1804
  3.530  17.1495
  3.528  17.1392
  3.525  17.0465
  3.523  16.9641
  3.521  16.8611
  3.518  16.7272
  3.516  16.5212
  3.513  16.4491
  3.511  16.2843
  3.509  15.9238
  3.506  15.7487
  3.504  15.8620
  3.502  15.9135
  3.499  16.0577
  3.497  16.1298
  3.494  16.2740
  3.492  16.4079
  3.490  16.5521
  3.487  16.5727
  3.485  16.5006
  3.483  16.4800
  3.480  16.5418
  3.478  16.5315
  3.476  16.5830
  3.473  16.5933
  3.471  16.5109
  3.469  16.5212
  3.466  16.5418
  3.464  16.5315
  3.462  16.5418
  3.460  16.4903
  3.457  16.5315
  3.455  16.4594
  3.453  16.4182
  3.450  16.4079
  3.448  16.4079
  3.446  16.2637
  3.443  16.1504
  3.441  16.0577
  3.439  15.9238
  3.437  15.7693
  3.434  15.7178
  3.432  15.7178
  3.430  15.4809
  3.428  15.2852
  3.425  15.2852
  3.423  15.1822
  3.421  15.1204
  3.418  15.0792
  3.416  15.0689
  3.414  15.2852
  3.412  15.4500
  3.409  15.4191
  3.407  15.5530
  3.405  15.6560
  3.403  15.7075
  3.401  15.7384
  3.398  15.8517
  3.396  15.9650
  3.394  16.0783
  3.392  15.9547
  3.389  15.9341
  3.387  16.0062
  3.385  15.9547
  3.383  15.9650
  3.381  16.0577
  3.378  15.9753
  3.376  15.9547
  3.374  16.1607
  3.372  16.2740
  3.370  16.1607
  3.367  16.0783
  3.365  16.0886
  3.363  16.1092
  3.361  16.1813
  3.359  16.3461
  3.357  16.3770
  3.354  16.4182
  3.352  16.3461
  3.350  16.3049
  3.348  16.3461
  3.346  16.3976
  3.344  16.3255
  3.341  16.2637
  3.339  16.1813
  3.337  16.3049
  3.335  16.3667
  3.333  16.4388
  3.331  16.4491
  3.329  16.3667
  3.326  16.1710
  3.324  16.1916
  3.322  16.2946
  3.320  16.4182
  3.318  16.4182
  3.316  16.2843
  3.314  16.1401
  3.312  16.1710
  3.309  16.1813
  3.307  16.2431
  3.305  16.2534
  3.303  16.1298
  3.301  16.1607
  3.299  16.3152
  3.297  16.2225
  3.295  16.1092
  3.293  16.0268
  3.291  16.0371
  3.288  16.0577
  3.286  16.0989
  3.284  16.0268
  3.282  15.9753
  3.280  15.9444
  3.278  15.9238
  3.276  15.7693
  3.274  15.7899
  3.272  15.8723
  3.270  15.9856
  3.268  15.9959
  3.266  15.9238
  3.264  15.8414
  3.262  15.8105
  3.259  15.8311
  3.257  15.8002
  3.255  15.8311
  3.253  15.7487
  3.251  15.6560
  3.249  15.8105
  3.247  15.8002
  3.245  15.8311
  3.243  15.7796
  3.241  15.7384
  3.239  15.7899
  3.237  15.7384
  3.235  15.6766
  3.233  15.6457
  3.231  15.6148
  3.229  15.7796
  3.227  15.8208
  3.225  15.6869
  3.223  15.5324
  3.221  15.4706
  3.219  15.6251
  3.217  15.6663
  3.215  15.4603
  3.213  15.4191
  3.211  15.4809
  3.209  15.6045
  3.207  15.5427
  3.205  15.4294
  3.203  15.2852
  3.201  15.3985
  3.199  15.4397
  3.197  15.4294
  3.195  15.4397
  3.193  15.3470
  3.191  15.2543
  3.189  15.3161
  3.187  15.3161
  3.185  15.2337
  3.183  15.1307
  3.182  15.2337
  3.180  15.2955
  3.178  15.3470
  3.176  15.3058
  3.174  15.2234
  3.172  15.1925
  3.170  15.2131
  3.168  15.0895
  3.166  15.0483
  3.164  15.0792
  3.162  15.1822
  3.160  15.1719
  3.158  15.0586
  3.156  15.0380
  3.154  15.1410
  3.152  15.0792
  3.151  14.9041
  3.149  14.7908
  3.147  14.7805
  3.145  14.8011
  3.143  14.8320
  3.141  14.7290
  3.139  14.7290
  3.137  14.8526
  3.135  14.9659
  3.133  14.8629
  3.132  14.8011
  3.130  14.7393
  3.128  14.6878
  3.126  14.5539
  3.124  14.5745
  3.122  14.6054
  3.120  14.6672
  3.118  14.6569
  3.117  14.6466
  3.115  14.6672
  3.113  14.6981
  3.111  14.5848
  3.109  14.5127
  3.107  14.4818
  3.105  14.5951
  3.103  14.4921
  3.102  14.4818
  3.100  14.4715
  3.098  14.5127
  3.096  14.5333
  3.094  14.3891
  3.092  14.1934
  3.091  14.1728
  3.089  14.2552
  3.087  14.3067
  3.085  14.3376
  3.083  14.3891
  3.081  14.3891
  3.079  14.4612
  3.078  14.4097
  3.076  14.2552
  3.074  14.1934
  3.072  14.1934
  3.070  14.1625
  3.069  14.2037
  3.067  14.0389
  3.065  14.0698
  3.063  14.2037
  3.061  14.2346
  3.060  14.1110
  3.058  14.1831
  3.056  14.3891
  3.054  14.5024
  3.052  14.3788
  3.051  14.2758
  3.049  14.2758
  3.047  14.2552
  3.045  14.2037
  3.043  14.1213
  3.042  14.1110
  3.040  14.1625
  3.038  14.1934
  3.036  14.2037
  3.034  14.0904
  3.033  14.1419
  3.031  14.2346
  3.029  14.1728
  3.027  14.1007
  3.026  14.1625
  3.024  14.1213
  3.022  14.1831
  3.020  14.2140
  3.019  14.1625
  3.017  14.0080
  3.015  14.0080
  3.013  14.1419
  3.012  14.1316
  3.010  13.9977
  3.008  14.0595
  3.006  14.0595
  3.005  14.0698
  3.003  14.0492
  3.001  14.0595
  2.999  14.0698
  2.998  14.1625
  2.996  14.1007
  2.994  14.0492
  2.992  13.9977
  2.991  14.0904
  2.989  14.0183
  2.987  13.9050
  2.986  13.9874
  2.984  14.1316
  2.982  14.0080
  2.980  13.9668
  2.979  13.9462
  2.977  13.9565
  2.975  13.9153
  2.974  14.0080
  2.972  13.9771
  2.970  13.9668
  2.968  13.8638
  2.967  13.7093
  2.965  13.6578
  2.963  13.7917
  2.962  13.9050
  2.960  14.1110
  2.958  13.9771
  2.957  13.7608
  2.955  13.7814
  2.953  13.8844
  2.952  13.8226
  2.950  13.7917
  2.948  13.8123
  2.947  13.9668
  2.945  14.1110
  2.943  14.1213
  2.942  14.1110
  2.940  14.1831
  2.938  14.0286
  2.937  13.7402
  2.935  13.6990
  2.933  13.8741
  2.932  13.8947
  2.930  13.8947
  2.928  13.7402
  2.927  13.6681
  2.925  13.8638
  2.923  14.1625
  2.922  14.0595
  2.920  13.8947
  2.918  13.8226
  2.917  13.9977
  2.915  14.0183
  2.913  13.9874
  2.912  14.1007
  2.910  14.1522
  2.909  14.0080
  2.907  14.0080
  2.905  13.9153
  2.904  13.9771
  2.902  13.9462
  2.900  13.9359
  2.899  13.8638
  2.897  13.9153
  2.896  14.0080
  2.894  14.0904
  2.892  14.0492
  2.891  14.0698
  2.889  14.0904
  2.887  14.2037
  2.886  14.1316
  2.884  13.9565
  2.883  14.0183
  2.881  14.3170
  2.879  14.2346
  2.878  14.0183
  2.876  14.0286
  2.875  14.1419
  2.873  14.0595
  2.871  14.1110
  2.870  14.2655
  2.868  14.2758
  2.867  14.1831
  2.865  13.8844
  2.864  13.7917
  2.862  13.9977
  2.860  14.2243
  2.859  14.3582
  2.857  14.1934
  2.856  14.2346
  2.854  14.1831
  2.853  14.1522
  2.851  13.8844
  2.849  13.7093
  2.848  14.0698
  2.846  14.4303
  2.845  14.3788
  2.843  14.2243
  2.842  14.1419
  2.840  14.1007
  2.838  14.0286
  2.837  14.1728
  2.835  14.0801
  2.834  14.1316
  2.832  14.2037
  2.831  14.1213
  2.829  14.0698
  2.828  14.1007
  2.826  13.8432
  2.825  13.8226
  2.823  13.9359
  2.821  13.9977
  2.820  13.9668
  2.818  14.1522
  2.817  14.1522
  2.815  13.9977
  2.814  14.0286
  2.812  14.1522
  2.811  14.2758
  2.809  14.3479
  2.808  14.2346
  2.806  14.0492
  2.805  13.9977
  2.803  14.0286
  2.802  14.0698
  2.800  14.1110
  2.799  14.0698
  2.797  14.1419
  2.796  14.1831
  2.794  14.1110
  2.793  14.0801
  2.791  14.1316
  2.790  14.2346
  2.788  14.4818
  2.787  14.4406
  2.785  14.4612
  2.784  14.4818
  2.782  14.3170
  2.781  14.1110
  2.779  14.2346
  2.778  14.2964
  2.776  14.3891
  2.775  14.5024
  2.773  14.8011
  2.772  14.7908
  2.770  14.5642
  2.769  14.5436
  2.767  14.7084
  2.766  14.5539
  2.764  14.3170
  2.763  14.4406
  2.761  14.6054
  2.760  14.2964
  2.758  14.3376
  2.757  14.3891
  2.756  14.5539
  2.754  14.7290
  2.753  14.6981
  2.751  14.8835
  2.750  15.3161
  2.748  15.5427
  2.747  15.5633
  2.745  15.3985
  2.744  15.3161
  2.742  15.2028
  2.741  15.2955
  2.740  15.5839
  2.738  15.6663
  2.737  15.4809
  2.735  15.5633
  2.734  15.6045
  2.732  15.7075
  2.731  15.7796
  2.729  15.8517
  2.728  16.1298
  2.727  16.4800
  2.725  16.3873
  2.724  16.3358
  2.722  16.5006
  2.721  16.7478
  2.719  16.8508
  2.718  16.9641
  2.717  17.1907
  2.715  17.2834
  2.714  17.1701
  2.712  17.0980
  2.711  17.0877
  2.709  17.0980
  2.708  17.1701
  2.707  17.1701
  2.705  17.2113
  2.704  17.4585
  2.702  17.4997
  2.701  17.9735
  2.700  18.3546
  2.698  18.4370
  2.697  18.3443
  2.695  18.8490
  2.694  19.1992
  2.693  19.4876
  2.691  19.6009
  2.690  19.7039
  2.688  19.6524
  2.687  19.9408
  2.686  20.0335
  2.684  20.2601
  2.683  20.3219
  2.681  20.0026
  2.680  20.0232
  2.679  20.5279
  2.677  20.6515
  2.676  20.6824
  2.675  20.6309
  2.673  20.7442
  2.672  20.8678
  2.670  21.2283
  2.669  21.3519
  2.668  21.3004
  2.666  21.3004
  2.665  21.3416
  2.664  21.2489
  2.662  21.2695
  2.661  21.5167
  2.659  21.6918
  2.658  21.6094
  2.657  21.3416
  2.655  21.1459
  2.654  21.4549
  2.653  21.5888
  2.651  21.5888
  2.650  21.6403
  2.649  21.7124
  2.647  21.5888
  2.646  21.5373
  2.645  21.6094
  2.643  21.5991
  2.642  21.7330
  2.640  21.9596
  2.639  22.0008
  2.638  21.7639
  2.636  21.5373
  2.635  21.5991
  2.634  21.6506
  2.632  21.7124
  2.631  21.8875
  2.630  21.7742
  2.628  21.5991
  2.627  22.0008
  2.626  21.8566
  2.624  21.7124
  2.623  21.7124
  2.622  21.8051
  2.620  21.8978
  2.619  22.0832
  2.618  21.8875
  2.617  21.8875
  2.615  21.9184
  2.614  21.8875
  2.613  22.0935
  2.611  22.2274
  2.610  22.0111
  2.609  21.7948
  2.607  21.6197
  2.606  21.8051
  2.605  22.0420
  2.603  22.0111
  2.602  22.0111
  2.601  22.1038
  2.599  22.0111
  2.598  22.0935
  2.597  21.9596
  2.596  21.8257
  2.594  21.8978
  2.593  22.2480
  2.592  22.3510
  2.590  22.1141
  2.589  21.8875
  2.588  22.2377
  2.586  22.3304
  2.585  22.3407
  2.584  22.0935
  2.583  21.7639
  2.581  22.0214
  2.580  22.5570
  2.579  22.2068
  2.577  21.7948
  2.576  21.8360
  2.575  21.8360
  2.574  21.8154
  2.572  22.0935
  2.571  22.2583
  2.570  22.4334
  2.569  22.4437
  2.567  22.2377
  2.566  21.9081
  2.565  22.0214
  2.563  22.1347
  2.562  22.0420
  2.561  21.9905
  2.560  22.2583
  2.558  22.3716
  2.557  22.7424
  2.556  22.6291
  2.555  22.3922
  2.553  22.0523
  2.552  22.1141
  2.551  22.1553
  2.550  22.2686
  2.548  22.0111
  2.547  21.9184
  2.546  21.8772
  2.545  22.0420
  2.543  21.8978
  2.542  21.8978
  2.541  22.1141
  2.540  22.3510
  2.538  22.0626
  2.537  22.1038
  2.536  22.2377
  2.535  22.1450
  2.533  21.9596
  2.532  22.0523
  2.531  22.1656
  2.530  22.4437
  2.528  22.1965
  2.527  22.0214
  2.526  22.2686
  2.525  22.7218
  2.524  22.5570
  2.522  22.2892
  2.521  22.3613
  2.520  22.2995
  2.519  21.8566
  2.517  22.0626
  2.516  22.2686
  2.515  22.3098
  2.514  22.2377
  2.513  22.0111
  2.511  21.8360
  2.510  22.0008
  2.509  22.4128
  2.508  22.4643
  2.506  22.2171
  2.505  22.3407
  2.504  22.4334
  2.503  22.6600
  2.502  22.4128
  2.500  22.2583
  2.496  22.3240
  2.492  21.8891
  2.488  22.0537
  2.484  21.9240
  2.480  21.6637
  2.476  22.0940
  2.472  22.0366
  2.468  22.0768
  2.464  21.8059
  2.460  21.7046
  2.456  21.9978
  2.452  21.6413
  2.448  22.4501
  2.444  22.4527
  2.440  22.5105
  2.436  21.5913
  2.432  21.7615
  2.428  21.9939
  2.424  22.1599
  2.420  22.6048
  2.416  22.0375
  2.412  22.1116
  2.408  22.0770
  2.404  22.1435
  2.400  22.0001
  2.396  22.1861
  2.392  22.4059
  2.388  22.4806
  2.384  22.2395
  2.380  22.3312
  2.376  22.3450
  2.372  22.4129
  2.368  22.7786
  2.364  22.5851
  2.360  22.5146
  2.356  22.5145
  2.352  22.2911
  2.348  22.2432
  2.344  22.7331
  2.340  22.5318
  2.336  22.6635
  2.332  22.6706
  2.328  22.6480
  2.324  22.5406
  2.320  22.4434
  2.316  22.7268
  2.312  22.2709
  2.308  22.4948
  2.304  22.6180
  2.300  22.6447
  2.296  22.6402
  2.292  22.5699
  2.288  22.5652
  2.284  22.6528
  2.280  22.7197
  2.276  22.7264
  2.272  22.4267
  2.268  22.5847
  2.264  22.6148
  2.260  22.6834
  2.256  22.8893
  2.252  22.9780
  2.248  22.7400
  2.244  22.6357
  2.240  22.6930
  2.236  22.8652
  2.232  22.9598
  2.228  22.9059
  2.224  22.9184
  2.220  23.0055
  2.216  23.0319
  2.212  23.1276
  2.208  23.0236
  2.204  22.9875
  2.200  23.1219
  2.196  23.2317
  2.192  23.1462
  2.188  23.2745
  2.184  23.3428
  2.180  23.4205
  2.176  23.4250
  2.172  23.4376
  2.168  23.4318
  2.164  23.5586
  2.160  23.5458
  2.156  23.4533
  2.152  23.5885
  2.148  23.6803
  2.144  23.7002
  2.140  23.6777
  2.136  23.7177
  2.132  23.6463
  2.128  23.6322
  2.124  23.6539
  2.120  23.6774
  2.116  23.7129
  2.112  23.6267
  2.108  23.5763
  2.104  23.6278
  2.100  23.5947
  2.096  23.5955
  2.092  23.6798
  2.088  23.7376
  2.084  23.7401
  2.080  23.7601
  2.076  23.7046
  2.072  23.7673
  2.068  23.8478
  2.064  23.8219
  2.060  23.8090
  2.056  23.9075
  2.052  23.9569
  2.048  23.9613
  2.044  23.9507
  2.040  23.9905
  2.036  24.0352
  2.032  24.0741
  2.028  24.0357
  2.024  24.0731
  2.020  24.1113
  2.016  24.0953
  2.012  24.1520
  2.008  24.1396
  2.004  24.0943
  2.000  24.0994
  1.996  24.1112
  1.992  24.0865
  1.988  24.1103
  1.984  24.0921
  1.980  24.0781
  1.976  24.1030
  1.972  24.0729
  1.968  24.0209
  1.964  24.0712
  1.960  24.0459
  1.956  24.0157
  1.952  24.0586
  1.948  24.0780
  1.944  24.0460
  1.940  23.9324
  1.936  23.9108
  1.932  23.9331
  1.928  23.9995
  1.924  24.0775
  1.920  23.9643
  1.916  23.9291
  1.912  23.9461
  1.908  23.9021
  1.904  24.0478
  1.900  24.1638
  1.896  24.1998
  1.892  24.3595
  1.888  24.4705
  1.884  24.5432
  1.880  24.6675
  1.876  24.7135
  1.872  24.7329
  1.868  24.7568
  1.864  24.7993
  1.860  24.8334
  1.856  24.8490
  1.852  24.8750
  1.848  24.9038
  1.844  24.9395
  1.840  24.9415
  1.836  24.9319
  1.832  24.9594
  1.828  24.9687
  1.824  24.9440
  1.820  24.9262
  1.816  24.9605
  1.812  25.0197
  1.808  25.0417
  1.804  25.0086
  1.800  24.9876
  1.796  25.0281
  1.792  25.0562
  1.788  25.1252
  1.784  25.1426
  1.780  25.1225
  1.776  25.1618
  1.772  25.1811
  1.768  25.1353
  1.764  25.1055
  1.760  25.0967
  1.756  25.1094
  1.752  25.1450
  1.748  25.1649
  1.744  25.1264
  1.740  25.1456
  1.736  25.1614
  1.732  25.1508
  1.728  25.1406
  1.724  25.1849
  1.720  25.2108
  1.716  25.1687
  1.712  25.1687
  1.708  25.1714
  1.704  25.1798
  1.700  25.1933
  1.696  25.2022
  1.692  25.1841
  1.688  25.1894
  1.684  25.2707
  1.680  25.2891
  1.676  25.2688
  1.672  25.2401
  1.668  25.2203
  1.664  25.2066
  1.660  25.1520
  1.656  25.1049
  1.652  25.1268
  1.648  25.1460
  1.644  25.1322
  1.640  25.1349
  1.636  25.1091
  1.632  25.0909
  1.628  25.0857
  1.624  25.0583
  1.620  25.0669
  1.616  25.0580
  1.612  25.0724
  1.608  25.0181
  1.604  25.0252
  1.600  25.0374
  1.596  24.9942
  1.592  24.9399
  1.588  24.9732
  1.584  24.9807
  1.580  24.9706
  1.576  24.9172
  1.572  24.8925
  1.568  24.9135
  1.564  24.8583
  1.560  24.8506
  1.556  24.8557
  1.552  24.8186
  1.548  24.7676
  1.544  24.7604
  1.540  24.7539
  1.536  24.7797
  1.532  24.7394
  1.528  24.6703
  1.524  24.6216
  1.520  24.6332
  1.516  24.6318
  1.512  24.6281
  1.508  24.6164
  1.504  24.5313
  1.500  24.4737
  1.496  24.5179
  1.492  24.5020
  1.488  24.4374
  1.484  24.4542
  1.480  24.4115
  1.476  24.4062
  1.472  24.3605
  1.468  24.3847
  1.464  24.3133
  1.460  24.3330
  1.456  24.2428
  1.452  24.2972
  1.448  24.2139
  1.444  24.2139
  1.440  24.1710
  1.436  24.1310
  1.432  24.1119
  1.428  24.0741
  1.424  24.1079
  1.420  24.0332
  1.416  23.9981
  1.412  23.9493
  1.408  23.9967
  1.404  23.9943
  1.400  23.9685
  1.396  23.9888
  1.392  23.9310
  1.388  23.9493
  1.384  24.0043
  1.380  23.9592
  1.376  23.8732
  1.372  23.8576
  1.368  23.9309
  1.364  23.9346
  1.360  23.9192
  1.356  23.7716
  1.352  23.7317
  1.348  23.7714
  1.344  23.7896
  1.340  23.8398
  1.336  23.8609
  1.332  23.7968
  1.328  23.7186
  1.324  23.6931
  1.320  23.6851
  1.316  23.6596
  1.312  23.6680
  1.308  23.6542
  1.304  23.6694
  1.300  23.6447
  1.296  23.6311
  1.292  23.6623
  1.288  23.6239
  1.284  23.5737
  1.280  23.6108
  1.276  23.6807
  1.272  23.5724
  1.268  23.6006
  1.264  23.6033
  1.260  23.5822
  1.256  23.5603
  1.252  23.5754
  1.248  23.6457
  1.244  23.5690
  1.240  23.5330
  1.236  23.5937
  1.232  23.6184
  1.228  23.5459
  1.224  23.5372
  1.220  23.5670
  1.216  23.5199
  1.212  23.5717
  1.208  23.5436
  1.204  23.5639
  1.200  23.5832
  1.196  23.5390
  1.192  23.5681
  1.188  23.5035
  1.184  23.5612
  1.180  23.5765
  1.176  23.5564
  1.172  23.5981
  1.168  23.6067
  1.164  23.5962
  1.160  23.5608
  1.156  23.5919
  1.152  23.5935
  1.148  23.5588
  1.144  23.5492
  1.140  23.5226
  1.136  23.5374
  1.132  23.5258
  1.128  23.5052
  1.124  23.4723
  1.120  23.4950
  1.116  23.4454
  1.112  23.4587
  1.108  23.4338
  1.104  23.4649
  1.100  23.4026
  1.096  23.4215
  1.092  23.4016
  1.088  23.3742
  1.084  23.3536
  1.080  23.4084
  1.076  23.4122
  1.072  23.3698
  1.068  23.3928
  1.064  23.3690
  1.060  23.3836
  1.056  23.4303
  1.052  23.4791
  1.048  23.4894
  1.044  23.4846
  1.040  23.4642
  1.036  23.5061
  1.032  23.4981
  1.028  23.5686
  1.024  23.5966
  1.020  23.6356
  1.016  23.6789
  1.012  23.7217
  1.008  23.7458
  1.004  23.7737
  1.000  23.8121
  0.996  23.8787
  0.992  23.8844
  0.988  23.9482
  0.984  24.0298
  0.980  24.0791
  0.976  24.0948
  0.972  24.1967
  0.968  24.2207
  0.964  24.2806
  0.960  24.3741
  0.956  24.4086
  0.952  24.4948
  0.948  24.5808
  0.944  24.6318
  0.940  24.6674
  0.936  24.7575
  0.932  24.8226
  0.928  24.9580
  0.924  25.1295
  0.920  25.2703
  0.916  25.3022
  0.912  25.3674
  0.908  25.4165
  0.904  25.4820
  0.900  25.4947
  0.896  25.4878
  0.892  25.6041
  0.888  25.7612
  0.884  25.6990
  0.880  25.7089
  0.876  25.8914
  0.872  25.8570
  0.868  25.7017
  0.864  25.8415
  0.860  26.0032
  0.856  26.1505
  0.852  25.7062
  0.848  24.3935
  0.844  24.6860
  0.840  25.0629
  0.836  25.2964
  0.832  25.4331
  0.828  25.5547
  0.824  25.5733
  0.820  25.6460
  0.816  25.7108
  0.812  25.7570
  0.808  25.7940
  0.804  25.7551
  0.800  25.7623
  0.796  25.7727
  0.792  25.7489
  0.788  25.7470
  0.784  25.8043
  0.780  25.7930
  0.776  25.8084
  0.772  25.8229
  0.768  25.8360
  0.764  25.8251
  0.760  25.8655
  0.756  25.8847
  0.752  25.8895
  0.748  25.8662
  0.744  25.8554
  0.740  25.8909
  0.736  25.9216
  0.732  25.9287
  0.728  25.9431
  0.724  25.9390
  0.720  25.9464
  0.716  25.9434
  0.712  25.9382
  0.708  25.9457
  0.704  25.9472
  0.700  25.9244
  0.696  25.9221
  0.692  25.9400
  0.688  25.9292
  0.684  25.9040
  0.680  25.8922
  0.676  25.8670
  0.672  25.8625
  0.668  25.8722
  0.664  25.8706
  0.660  25.8590
  0.656  25.8590
  0.652  25.8745
  0.648  25.8697
  0.644  25.8589
  0.640  25.8749
  0.636  25.8659
  0.632  25.8537
  0.628  25.8488
  0.624  25.8653
  0.620  25.8618
  0.616  25.8674
  0.612  25.8679
  0.608  25.8514
  0.604  25.8291
  0.600  25.8310
  0.596  25.8227
  0.592  25.7762
  0.588  25.7324
  0.584  25.7182
  0.580  25.6846
  0.576  25.6456
  0.572  25.5854
  0.568  25.5246
  0.564  25.4644
  0.560  25.3914
  0.556  25.3380
  0.552  25.2450
  0.548  25.1782
  0.544  25.1236
  0.540  25.0461
  0.536  24.9742
  0.532  24.8953
  0.528  24.8161
  0.524  24.7415
  0.520  24.6615
  0.516  24.5664
  0.512  24.4804
  0.508  24.3767
  0.504  24.2772
  0.500  24.1838
  0.496  24.0714
  0.492  23.9702
  0.488  23.8773
  0.484  23.7843
  0.480  23.7040
  0.476  23.6699
  0.472  23.6369
  0.468  23.5883
  0.464  23.5402
  0.460  23.4921
  0.456  23.4201
  0.452  23.3377
  0.448  23.2452
  0.444  23.1385
  0.440  23.0108
  0.436  22.8883
  0.432  22.7898
  0.428  22.6511
  0.424  22.5258
  0.420  22.4300
  0.416  22.3207
  0.412  22.1868
  0.408  22.0825
  0.404  21.9846
  0.400  21.8698
