Name: Rhyolite
Type: Rock
Class: Igneous
Subclass: Felsic
Particle Size: Whole Rock Chips
Sample No.: AP-981-176
Owner: United States Geological Survey, L. C. Rowan
Wavelength range: 0.405 - 14.05 um
Origin: Iberian Pyrite Belt, Spain

Description: Rhyolite, tan, paragonitic





Measurement: Directional Hemispherical Reflectance
First Column: X
Second Column: Y
X Units: Wavelength (micrometers)
Y Units: Reflectance (percent)
First X Value: 14.05105
Last X Value: 0.40500
Number of X Values: 2530
Additional Information: rhy176a.txt

 14.051   2.7604
 14.013   2.7604
 13.975   2.8840
 13.938   2.9973
 13.900   3.1106
 13.863   2.9252
 13.826   2.9767
 13.790   2.8325
 13.753   2.7604
 13.717   2.7192
 13.680   3.0694
 13.644   3.0385
 13.609   2.9458
 13.573   2.8634
 13.538   3.0076
 13.502   3.0900
 13.467   3.1415
 13.432   3.0591
 13.398   3.0797
 13.363   3.0076
 13.329   3.1209
 13.295   3.0900
 13.261   3.2033
 13.227   3.1724
 13.193   3.2239
 13.160   3.3578
 13.126   3.4299
 13.093   3.2857
 13.060   3.3166
 13.027   3.2857
 12.995   3.2960
 12.962   3.2960
 12.930   3.4093
 12.898   3.3887
 12.866   3.4917
 12.834   3.6050
 12.802   3.8213
 12.771   3.8522
 12.739   3.7595
 12.708   3.4917
 12.677   3.2651
 12.646   3.0385
 12.616   3.0282
 12.585   2.9870
 12.554   3.0900
 12.524   3.1621
 12.494   3.2342
 12.464   3.2548
 12.434   3.2033
 12.404   2.9046
 12.375   2.6574
 12.345   2.3896
 12.316   2.2763
 12.287   2.1012
 12.258   2.0497
 12.229   2.1115
 12.200   2.3278
 12.171   2.4308
 12.143   2.5441
 12.115   2.5750
 12.086   2.7707
 12.058   2.8531
 12.030   2.9561
 12.002   2.9870
 11.975   3.1518
 11.947   3.1930
 11.920   3.2960
 11.892   3.3578
 11.865   3.5123
 11.838   3.5535
 11.811   3.6977
 11.784   3.7801
 11.757   3.8831
 11.731   3.8419
 11.704   3.9243
 11.678   3.9861
 11.652   4.1509
 11.626   4.2333
 11.600   4.3157
 11.574   4.2230
 11.548   4.3363
 11.522   4.4187
 11.497   4.5217
 11.471   4.5320
 11.446   4.5629
 11.421   4.5011
 11.396   4.5114
 11.371   4.4908
 11.346   4.5629
 11.321   4.5526
 11.297   4.6865
 11.272   4.6968
 11.248   4.7277
 11.223   4.7174
 11.199   4.7689
 11.175   4.7586
 11.151   4.8513
 11.127   4.9234
 11.103   5.0470
 11.079   4.9440
 11.056   4.8719
 11.032   4.9440
 11.009   5.0676
 10.985   5.0161
 10.962   4.9955
 10.939   5.0058
 10.916   5.0779
 10.893   5.0058
 10.870   5.0367
 10.848   5.0264
 10.825   4.9543
 10.802   4.8925
 10.780   4.9337
 10.758   4.8822
 10.735   4.8410
 10.713   4.7895
 10.691   4.9234
 10.669   4.9646
 10.647   4.9955
 10.625   4.9543
 10.604   4.9337
 10.582   4.8822
 10.560   4.9131
 10.539   4.8616
 10.518   4.8719
 10.496   4.9234
 10.475   5.0779
 10.454   5.0367
 10.433   5.0573
 10.412   5.0264
 10.391   5.0573
 10.370   5.0573
 10.350   5.0985
 10.329   5.0985
 10.309   5.2118
 10.288   5.2427
 10.268   5.3354
 10.247   5.3663
 10.227   5.4693
 10.207   5.4693
 10.187   5.5414
 10.167   5.6444
 10.147   5.8298
 10.127   5.8195
 10.108   5.8401
 10.088   5.9019
 10.068   6.0255
 10.049   6.0461
 10.029   6.2109
 10.010   6.2933
  9.991   6.3551
  9.972   6.3860
  9.952   6.5508
  9.933   6.6435
  9.914   6.7259
  9.895   6.7465
  9.877   6.7980
  9.858   6.8289
  9.839   6.8495
  9.821   6.7362
  9.802   6.6744
  9.783   6.6229
  9.765   6.6847
  9.747   6.8289
  9.728   7.1791
  9.710   7.4675
  9.692   7.7250
  9.674   7.9516
  9.656   8.1988
  9.638   8.3327
  9.620   8.4254
  9.602   8.4048
  9.585   8.4872
  9.567   8.5387
  9.549   8.6108
  9.532   8.5799
  9.514   8.5799
  9.497   8.5078
  9.479   8.5387
  9.462   8.5593
  9.445   8.7035
  9.428   8.8168
  9.411   8.9919
  9.394   9.2597
  9.377   9.6511
  9.360   9.9807
  9.343  10.3515
  9.326  10.6708
  9.309  11.0004
  9.293  11.1446
  9.276  11.1343
  9.259  11.0107
  9.243  10.9798
  9.226  10.9386
  9.210  11.0210
  9.194  10.9386
  9.178  10.8768
  9.161  10.7429
  9.145  10.5472
  9.129  10.3927
  9.113  10.2176
  9.097   9.9704
  9.081   9.8262
  9.065   9.5893
  9.049   9.4142
  9.034   9.2288
  9.018   9.1876
  9.002   9.1464
  8.987   9.1979
  8.971   9.1876
  8.956   9.3421
  8.940   9.5275
  8.925   9.6305
  8.909   9.6614
  8.894   9.6820
  8.879   9.6202
  8.864   9.7232
  8.849   9.8159
  8.834   9.8365
  8.819   9.7026
  8.804   9.5687
  8.789   9.4142
  8.774   9.3112
  8.759   9.2700
  8.744   9.2803
  8.730   9.1670
  8.715   9.1052
  8.700   9.0022
  8.686   8.8683
  8.671   8.6108
  8.657   8.3739
  8.642   8.0031
  8.628   7.6735
  8.614   7.4366
  8.599   7.6632
  8.585   8.0958
  8.571   8.5696
  8.557   8.8683
  8.543   9.0743
  8.529   9.1876
  8.515   9.3833
  8.501   9.4760
  8.487   9.4863
  8.473   9.4245
  8.459   9.4348
  8.445   9.4657
  8.431   9.6099
  8.418   9.6820
  8.404   9.8571
  8.391   9.9601
  8.377  10.0013
  8.363   9.9807
  8.350  10.0322
  8.337  10.1455
  8.323  10.2382
  8.310  10.2588
  8.297  10.3824
  8.283  10.4545
  8.270  10.5472
  8.257  10.6502
  8.244  10.8562
  8.231  11.0107
  8.218  11.1343
  8.205  11.2373
  8.192  11.3300
  8.179  11.3094
  8.166  11.1961
  8.153  10.9283
  8.140  10.6296
  8.128  10.1661
  8.115   9.7438
  8.102   9.2185
  8.090   8.6623
  8.077   8.1164
  8.064   7.6838
  8.052   7.2100
  8.039   6.8083
  8.027   6.3654
  8.015   6.0152
  8.002   5.6959
  7.990   5.3663
  7.978   4.9852
  7.965   4.6968
  7.953   4.4805
  7.941   4.2230
  7.929   3.8728
  7.917   3.6256
  7.905   3.3784
  7.893   3.1930
  7.881   2.9767
  7.869   2.8634
  7.857   2.6677
  7.845   2.5235
  7.833   2.3793
  7.821   2.2660
  7.809   2.1527
  7.798   2.1527
  7.786   2.0806
  7.774   2.0394
  7.763   2.0085
  7.751   1.9879
  7.739   1.9261
  7.728   1.9879
  7.716   1.9570
  7.705   1.8746
  7.694   1.8025
  7.682   1.7201
  7.671   1.5965
  7.659   1.5862
  7.648   1.5656
  7.637   1.5965
  7.626   1.5141
  7.614   1.4729
  7.603   1.4214
  7.592   1.3699
  7.581   1.3184
  7.570   1.3493
  7.559   1.3596
  7.548   1.3287
  7.537   1.2978
  7.526   1.3699
  7.515   1.3493
  7.504   1.3596
  7.493   1.3081
  7.483   1.2154
  7.472   1.1536
  7.461   1.2360
  7.450   1.2566
  7.440   1.2360
  7.429   1.1948
  7.418   1.2772
  7.408   1.2772
  7.397   1.3184
  7.387   1.2978
  7.376   1.1742
  7.366   1.0815
  7.355   1.1536
  7.345   1.2154
  7.334   1.2257
  7.324   1.2566
  7.314   1.2978
  7.303   1.2875
  7.293   1.2566
  7.283   1.2154
  7.273   1.2360
  7.263   1.1948
  7.252   1.2154
  7.242   1.2772
  7.232   1.3184
  7.222   1.3081
  7.212   1.3699
  7.202   1.3699
  7.192   1.3905
  7.182   1.3493
  7.172   1.3390
  7.162   1.2875
  7.152   1.3184
  7.143   1.3390
  7.133   1.3699
  7.123   1.3596
  7.113   1.4008
  7.103   1.4008
  7.094   1.4111
  7.084   1.3596
  7.074   1.3596
  7.065   1.3596
  7.055   1.3699
  7.046   1.3493
  7.036   1.3596
  7.026   1.3905
  7.017   1.4935
  7.007   1.4935
  6.998   1.4523
  6.989   1.4420
  6.979   1.4626
  6.970   1.4523
  6.960   1.4729
  6.951   1.4935
  6.942   1.5656
  6.932   1.5553
  6.923   1.5759
  6.914   1.5862
  6.905   1.5862
  6.896   1.5759
  6.886   1.6377
  6.877   1.6480
  6.868   1.6171
  6.859   1.5965
  6.850   1.5862
  6.841   1.6068
  6.832   1.6789
  6.823   1.6686
  6.814   1.6789
  6.805   1.6789
  6.796   1.7304
  6.787   1.7716
  6.778   1.7716
  6.770   1.7098
  6.761   1.7407
  6.752   1.7304
  6.743   1.7922
  6.734   1.8128
  6.726   1.7819
  6.717   1.7613
  6.708   1.7819
  6.700   1.8025
  6.691   1.8437
  6.682   1.8437
  6.674   1.8437
  6.665   1.8643
  6.657   1.9364
  6.648   1.9158
  6.640   1.8746
  6.631   1.8849
  6.623   1.9261
  6.614   1.9364
  6.606   1.9879
  6.597   1.9982
  6.589   2.0188
  6.581   2.0085
  6.572   2.0394
  6.564   2.0188
  6.556   2.0600
  6.547   2.0394
  6.539   2.0394
  6.531   2.0806
  6.523   2.0909
  6.514   2.0909
  6.506   2.1012
  6.498   2.1527
  6.490   2.1527
  6.482   2.1733
  6.474   2.2866
  6.466   2.3278
  6.458   2.3381
  6.450   2.3587
  6.442   2.3896
  6.434   2.4102
  6.426   2.4308
  6.418   2.4205
  6.410   2.4411
  6.402   2.4514
  6.394   2.4308
  6.386   2.4514
  6.378   2.4514
  6.370   2.4102
  6.363   2.3896
  6.355   2.3278
  6.347   2.3175
  6.339   2.3175
  6.332   2.3278
  6.324   2.3072
  6.316   2.2969
  6.308   2.2866
  6.301   2.2557
  6.293   2.2042
  6.286   2.2454
  6.278   2.2454
  6.270   2.2145
  6.263   2.1424
  6.255   2.1321
  6.248   2.1321
  6.240   2.1321
  6.233   2.0497
  6.225   2.0291
  6.218   2.0806
  6.210   2.1424
  6.203   2.1630
  6.195   2.1836
  6.188   2.1424
  6.181   2.1218
  6.173   2.0909
  6.166   2.1321
  6.159   2.1939
  6.151   2.2145
  6.144   2.2145
  6.137   2.2763
  6.130   2.3072
  6.122   2.3690
  6.115   2.3690
  6.108   2.3072
  6.101   2.3587
  6.094   2.4514
  6.086   2.4617
  6.079   2.5235
  6.072   2.5338
  6.065   2.5338
  6.058   2.5441
  6.051   2.5750
  6.044   2.5441
  6.037   2.5338
  6.030   2.5441
  6.023   2.5544
  6.016   2.5750
  6.009   2.5956
  6.002   2.5956
  5.995   2.5956
  5.988   2.5956
  5.981   2.6471
  5.974   2.6677
  5.967   2.6059
  5.960   2.5750
  5.954   2.5750
  5.947   2.5441
  5.940   2.5441
  5.933   2.5647
  5.926   2.6059
  5.920   2.6471
  5.913   2.6677
  5.906   2.6677
  5.899   2.6883
  5.893   2.7089
  5.886   2.7604
  5.879   2.8119
  5.873   2.8634
  5.866   2.8634
  5.859   2.9046
  5.853   2.9458
  5.846   3.0179
  5.840   3.0591
  5.833   3.1003
  5.827   3.1209
  5.820   3.1415
  5.813   3.1621
  5.807   3.2239
  5.800   3.2136
  5.794   3.2136
  5.788   3.2548
  5.781   3.2960
  5.775   3.3578
  5.768   3.4299
  5.762   3.3578
  5.755   3.3166
  5.749   3.3784
  5.743   3.3887
  5.736   3.4093
  5.730   3.4814
  5.724   3.5329
  5.717   3.5123
  5.711   3.4196
  5.705   3.3990
  5.698   3.4299
  5.692   3.4917
  5.686   3.5020
  5.680   3.4711
  5.674   3.4711
  5.667   3.4608
  5.661   3.4299
  5.655   3.4093
  5.649   3.3681
  5.643   3.3578
  5.637   3.3681
  5.630   3.3681
  5.624   3.3063
  5.618   3.2857
  5.612   3.2445
  5.606   3.2033
  5.600   3.2239
  5.594   3.2754
  5.588   3.2651
  5.582   3.2445
  5.576   3.2239
  5.570   3.2136
  5.564   3.1930
  5.558   3.2136
  5.552   3.2445
  5.546   3.3063
  5.540   3.3372
  5.534   3.3372
  5.528   3.3681
  5.523   3.4093
  5.517   3.4505
  5.511   3.4814
  5.505   3.4917
  5.499   3.5535
  5.493   3.6153
  5.487   3.6771
  5.482   3.7080
  5.476   3.7389
  5.470   3.8007
  5.464   3.8213
  5.459   3.8316
  5.453   3.8728
  5.447   3.8934
  5.441   3.9243
  5.436   3.9552
  5.430   3.9449
  5.424   3.9140
  5.419   3.8728
  5.413   3.8419
  5.407   3.8007
  5.402   3.7286
  5.396   3.6771
  5.390   3.6565
  5.385   3.6050
  5.379   3.5226
  5.374   3.4505
  5.368   3.4402
  5.363   3.4505
  5.357   3.4093
  5.352   3.3784
  5.346   3.3475
  5.341   3.2857
  5.335   3.3372
  5.330   3.3990
  5.324   3.4196
  5.319   3.4505
  5.313   3.4814
  5.308   3.5123
  5.302   3.4917
  5.297   3.5226
  5.291   3.5329
  5.286   3.5329
  5.281   3.5844
  5.275   3.6359
  5.270   3.6977
  5.265   3.7492
  5.259   3.7595
  5.254   3.8213
  5.249   3.8728
  5.243   3.9964
  5.238   4.1200
  5.233   4.1818
  5.227   4.2024
  5.222   4.2539
  5.217   4.3260
  5.212   4.4187
  5.206   4.4702
  5.201   4.5217
  5.196   4.5629
  5.191   4.5732
  5.186   4.6041
  5.180   4.6659
  5.175   4.6247
  5.170   4.5938
  5.165   4.6247
  5.160   4.6865
  5.155   4.7174
  5.150   4.7071
  5.145   4.6968
  5.139   4.7277
  5.134   4.7586
  5.129   4.7380
  5.124   4.6968
  5.119   4.7174
  5.114   4.7483
  5.109   4.7998
  5.104   4.8101
  5.099   4.8307
  5.094   4.8513
  5.089   4.8513
  5.084   4.7998
  5.079   4.7483
  5.074   4.7586
  5.069   4.8101
  5.064   4.8307
  5.059   4.8204
  5.054   4.7895
  5.049   4.7895
  5.044   4.8101
  5.040   4.8101
  5.035   4.7998
  5.030   4.8101
  5.025   4.8204
  5.020   4.8307
  5.015   4.8307
  5.010   4.8101
  5.005   4.8513
  5.001   4.8925
  4.996   4.9028
  4.991   4.8719
  4.986   4.8925
  4.981   5.0161
  4.977   5.1088
  4.972   5.1603
  4.967   5.2839
  4.962   5.3972
  4.958   5.5002
  4.953   5.6238
  4.948   5.7165
  4.943   5.7783
  4.939   5.8195
  4.934   5.9019
  4.929   5.9431
  4.925   5.9225
  4.920   5.9637
  4.915   6.0667
  4.911   6.1697
  4.906   6.2830
  4.901   6.4272
  4.897   6.5714
  4.892   6.7156
  4.888   6.9010
  4.883   7.0967
  4.878   7.2615
  4.874   7.4469
  4.869   7.5911
  4.865   7.6735
  4.860   7.7353
  4.856   7.8177
  4.851   7.9207
  4.846   8.0031
  4.842   8.1164
  4.837   8.2091
  4.833   8.3018
  4.828   8.3636
  4.824   8.3739
  4.819   8.4357
  4.815   8.5078
  4.810   8.5696
  4.806   8.6417
  4.802   8.6314
  4.797   8.5902
  4.793   8.6005
  4.788   8.5902
  4.784   8.6211
  4.779   8.6314
  4.775   8.6726
  4.771   8.7035
  4.766   8.7138
  4.762   8.7447
  4.758   8.8168
  4.753   8.9198
  4.749   9.0125
  4.744   9.0949
  4.740   9.1464
  4.736   9.1979
  4.731   9.2700
  4.727   9.2803
  4.723   9.2700
  4.719   9.3524
  4.714   9.4039
  4.710   9.3833
  4.706   9.3421
  4.701   9.3730
  4.697   9.4348
  4.693   9.4451
  4.689   9.3936
  4.684   9.3833
  4.680   9.3627
  4.676   9.4245
  4.672   9.5275
  4.668   9.5996
  4.663   9.6820
  4.659   9.7541
  4.655   9.7850
  4.651   9.8571
  4.647   9.9292
  4.643  10.0528
  4.638  10.2176
  4.634  10.2794
  4.630  10.3515
  4.626  10.4751
  4.622  10.5781
  4.618  10.6399
  4.614  10.7429
  4.610  10.8665
  4.605  10.9283
  4.601  10.9901
  4.597  11.0107
  4.593  11.0931
  4.589  11.2064
  4.585  11.2167
  4.581  11.2476
  4.577  11.2888
  4.573  11.3609
  4.569  11.4124
  4.565  11.4742
  4.561  11.5257
  4.557  11.5463
  4.553  11.5360
  4.549  11.5669
  4.545  11.5669
  4.541  11.5566
  4.537  11.5566
  4.533  11.5257
  4.529  11.5051
  4.525  11.4742
  4.521  11.3815
  4.517  11.2682
  4.513  11.2064
  4.509  11.1858
  4.505  11.1549
  4.502  11.1034
  4.498  11.0004
  4.494  11.0004
  4.490  11.0004
  4.486  10.9695
  4.482  10.9901
  4.478  10.9901
  4.474  10.9592
  4.470  10.9489
  4.467  10.9077
  4.463  10.9695
  4.459  11.0416
  4.455  11.1446
  4.451  11.2888
  4.447  11.4227
  4.444  11.4536
  4.440  11.5154
  4.436  11.5566
  4.432  11.5669
  4.428  11.6184
  4.425  11.7523
  4.421  11.8656
  4.417  11.9686
  4.413  12.0613
  4.410  12.1128
  4.406  12.1540
  4.402  12.2570
  4.398  12.3909
  4.395  12.4939
  4.391  12.5866
  4.387  12.6381
  4.384  12.6793
  4.380  12.8647
  4.376  13.0707
  4.372  13.1840
  4.369  13.2252
  4.365  13.3282
  4.361  13.3900
  4.358  13.4930
  4.354  13.5651
  4.350  13.6887
  4.347  13.8226
  4.343  13.9050
  4.340  13.9359
  4.336  13.9771
  4.332  13.9977
  4.329  14.1213
  4.325  14.2037
  4.321  14.1625
  4.318  14.1007
  4.314  14.1625
  4.311  14.2655
  4.307  14.2861
  4.304  14.2758
  4.300  14.2861
  4.296  14.2758
  4.293  14.2346
  4.289  14.2964
  4.286  14.3273
  4.282  14.3376
  4.279  14.3273
  4.275  14.3479
  4.272  14.3788
  4.268  14.3685
  4.265  14.3994
  4.261  14.4612
  4.258  14.6363
  4.254  14.7908
  4.251  14.7908
  4.247  14.8217
  4.244  14.9247
  4.240  14.9247
  4.237  14.8423
  4.233  14.7908
  4.230  14.7908
  4.226  14.8938
  4.223  14.9968
  4.219  15.0174
  4.216  15.0483
  4.213  15.1101
  4.209  15.1513
  4.206  15.1822
  4.202  15.2852
  4.199  15.3058
  4.196  15.3470
  4.192  15.3470
  4.189  15.2955
  4.185  15.2955
  4.182  15.3676
  4.179  15.4294
  4.175  15.4500
  4.172  15.4706
  4.169  15.5942
  4.165  15.6045
  4.162  15.6766
  4.159  15.7590
  4.155  15.7075
  4.152  15.6457
  4.149  15.7281
  4.145  15.7590
  4.142  15.8311
  4.139  15.8620
  4.135  15.8414
  4.132  15.8723
  4.129  16.0062
  4.126  16.0268
  4.122  16.0165
  4.119  16.0680
  4.116  16.1092
  4.112  16.0680
  4.109  16.2328
  4.106  16.3564
  4.103  16.3049
  4.099  16.3667
  4.096  16.4079
  4.093  16.3976
  4.090  16.4491
  4.086  16.4388
  4.083  16.4903
  4.080  16.4594
  4.077  16.4182
  4.074  16.5006
  4.070  16.6036
  4.067  16.6551
  4.064  16.6345
  4.061  16.5727
  4.058  16.5624
  4.055  16.6036
  4.051  16.6860
  4.048  16.6757
  4.045  16.6654
  4.042  16.7272
  4.039  16.6654
  4.036  16.5418
  4.032  16.5830
  4.029  16.7066
  4.026  16.7581
  4.023  16.7375
  4.020  16.7375
  4.017  16.6654
  4.014  16.5727
  4.011  16.5315
  4.008  16.5830
  4.004  16.6757
  4.001  16.7478
  3.998  16.7066
  3.995  16.7169
  3.992  16.7684
  3.989  16.7684
  3.986  16.7478
  3.983  16.8817
  3.980  16.9126
  3.977  16.9023
  3.974  16.8920
  3.971  16.8405
  3.968  16.7890
  3.965  16.8199
  3.962  16.8817
  3.959  16.9744
  3.956  17.0774
  3.953  17.1804
  3.950  17.1907
  3.947  17.1083
  3.944  17.0053
  3.941  17.0671
  3.938  17.1083
  3.935  17.1289
  3.932  17.0774
  3.929  17.1392
  3.926  17.1289
  3.923  17.1804
  3.920  17.2113
  3.917  17.2010
  3.914  17.2113
  3.911  17.2319
  3.908  17.2422
  3.905  17.3143
  3.902  17.3452
  3.899  17.3555
  3.896  17.2422
  3.893  17.2113
  3.890  17.2525
  3.887  17.3143
  3.884  17.2422
  3.882  17.1907
  3.879  17.1495
  3.876  17.1701
  3.873  17.2113
  3.870  17.1186
  3.867  17.0465
  3.864  17.1907
  3.861  17.2113
  3.858  17.1804
  3.856  17.1083
  3.853  17.1289
  3.850  17.2010
  3.847  17.1907
  3.844  17.0671
  3.841  17.0568
  3.838  17.1083
  3.836  17.0877
  3.833  17.1083
  3.830  17.2834
  3.827  17.3040
  3.824  17.2113
  3.822  17.1289
  3.819  17.1289
  3.816  17.1495
  3.813  17.1598
  3.810  17.0980
  3.807  17.1598
  3.805  17.1804
  3.802  17.1701
  3.799  17.0774
  3.796  17.0259
  3.794  17.0362
  3.791  17.0568
  3.788  17.0465
  3.785  17.0671
  3.782  17.0259
  3.780  17.0465
  3.777  17.0465
  3.774  17.0877
  3.771  17.0053
  3.769  16.8405
  3.766  16.7684
  3.763  16.7890
  3.761  16.7787
  3.758  16.7684
  3.755  16.7993
  3.752  16.7581
  3.750  16.6654
  3.747  16.6860
  3.744  16.6139
  3.742  16.5624
  3.739  16.6345
  3.736  16.6757
  3.733  16.6448
  3.731  16.6551
  3.728  16.5933
  3.725  16.4903
  3.723  16.3873
  3.720  16.3770
  3.717  16.4182
  3.715  16.4800
  3.712  16.5006
  3.709  16.4903
  3.707  16.4697
  3.704  16.4594
  3.702  16.3667
  3.699  16.3358
  3.696  16.3770
  3.694  16.4697
  3.691  16.4697
  3.688  16.3976
  3.686  16.2431
  3.683  16.2122
  3.680  16.2843
  3.678  16.3564
  3.675  16.2946
  3.673  16.2740
  3.670  16.2843
  3.667  16.2843
  3.665  16.1916
  3.662  16.3049
  3.660  16.2843
  3.657  16.1607
  3.655  16.0474
  3.652  16.0268
  3.649  15.9650
  3.647  15.8929
  3.644  15.8723
  3.642  15.9032
  3.639  15.8929
  3.637  15.8826
  3.634  15.8002
  3.632  15.7590
  3.629  15.7075
  3.626  15.7075
  3.624  15.7075
  3.621  15.6663
  3.619  15.5633
  3.616  15.5015
  3.614  15.5015
  3.611  15.4809
  3.609  15.4294
  3.606  15.4088
  3.604  15.3573
  3.601  15.2543
  3.599  15.1616
  3.596  15.2028
  3.594  15.2028
  3.591  15.2234
  3.589  15.1204
  3.586  14.9453
  3.584  14.8732
  3.581  14.9350
  3.579  14.9041
  3.576  14.7599
  3.574  14.7187
  3.571  14.7805
  3.569  14.7084
  3.567  14.6672
  3.564  14.6157
  3.562  14.5951
  3.559  14.5230
  3.557  14.4612
  3.554  14.3479
  3.552  14.3479
  3.549  14.3891
  3.547  14.4097
  3.545  14.2655
  3.542  14.1419
  3.540  14.1213
  3.537  14.1831
  3.535  14.1934
  3.533  14.1831
  3.530  14.1213
  3.528  14.0698
  3.525  14.0492
  3.523  14.0492
  3.521  13.9050
  3.518  13.8535
  3.516  13.8741
  3.513  13.9359
  3.511  13.8329
  3.509  13.7711
  3.506  13.7917
  3.504  13.8020
  3.502  13.8226
  3.499  13.8432
  3.497  13.8329
  3.494  13.8020
  3.492  13.7814
  3.490  13.7093
  3.487  13.5960
  3.485  13.6475
  3.483  13.6887
  3.480  13.7196
  3.478  13.6578
  3.476  13.5960
  3.473  13.5342
  3.471  13.4930
  3.469  13.4827
  3.466  13.5239
  3.464  13.4621
  3.462  13.3694
  3.460  13.2973
  3.457  13.2561
  3.455  13.3076
  3.453  13.4106
  3.450  13.2973
  3.448  13.1119
  3.446  13.0913
  3.443  13.1634
  3.441  13.0398
  3.439  13.0398
  3.437  13.0089
  3.434  12.9780
  3.432  12.9471
  3.430  12.9677
  3.428  12.8441
  3.425  12.7926
  3.423  12.7411
  3.421  12.6484
  3.418  12.6072
  3.416  12.5248
  3.414  12.5145
  3.412  12.5763
  3.409  12.5248
  3.407  12.4733
  3.405  12.3291
  3.403  12.2776
  3.401  12.3497
  3.398  12.4115
  3.396  12.3394
  3.394  12.2158
  3.392  12.1231
  3.389  12.1540
  3.387  12.1746
  3.385  12.0922
  3.383  11.9686
  3.381  12.0201
  3.378  12.0716
  3.376  12.0304
  3.374  11.8759
  3.372  11.7935
  3.370  11.7420
  3.367  11.7626
  3.365  11.6493
  3.363  11.6184
  3.361  11.6596
  3.359  11.5463
  3.357  11.5051
  3.354  11.5875
  3.352  11.5875
  3.350  11.5154
  3.348  11.5051
  3.346  11.6390
  3.344  11.6184
  3.341  11.4433
  3.339  11.3712
  3.337  11.3609
  3.335  11.2579
  3.333  11.1961
  3.331  11.1137
  3.329  11.1137
  3.326  11.1446
  3.324  11.1858
  3.322  11.0828
  3.320  11.0931
  3.318  11.1034
  3.316  11.0004
  3.314  10.9180
  3.312  10.9283
  3.309  10.9695
  3.307  10.9283
  3.305  10.7532
  3.303  10.6914
  3.301  10.7429
  3.299  10.8562
  3.297  10.8459
  3.295  10.7635
  3.293  10.6399
  3.291  10.6090
  3.288  10.5987
  3.286  10.5678
  3.284  10.5472
  3.282  10.6914
  3.280  10.6605
  3.278  10.5781
  3.276  10.5060
  3.274  10.5060
  3.272  10.4854
  3.270  10.5163
  3.268  10.4648
  3.266  10.3721
  3.264  10.2897
  3.262  10.3000
  3.259  10.2691
  3.257  10.2897
  3.255  10.3618
  3.253  10.3721
  3.251  10.3103
  3.249  10.4030
  3.247  10.3515
  3.245  10.2279
  3.243  10.1764
  3.241  10.2794
  3.239  10.3000
  3.237  10.2588
  3.235  10.2279
  3.233  10.2588
  3.231  10.2073
  3.229  10.1558
  3.227  10.0837
  3.225  10.0322
  3.223  10.0116
  3.221   9.9189
  3.219   9.8159
  3.217   9.8365
  3.215   9.9086
  3.213   9.9395
  3.211   9.9292
  3.209   9.9807
  3.207  10.0219
  3.205  10.0219
  3.203   9.8983
  3.201   9.7335
  3.199   9.6511
  3.197   9.7747
  3.195   9.7850
  3.193   9.6511
  3.191   9.5893
  3.189   9.5996
  3.187   9.5996
  3.185   9.6408
  3.183   9.6408
  3.182   9.6408
  3.180   9.5584
  3.178   9.5275
  3.176   9.3936
  3.174   9.4142
  3.172   9.5378
  3.170   9.4966
  3.168   9.3627
  3.166   9.3524
  3.164   9.2906
  3.162   9.3318
  3.160   9.3524
  3.158   9.4039
  3.156   9.2803
  3.154   9.1155
  3.152   9.0434
  3.151   9.0949
  3.149   9.0434
  3.147   9.1052
  3.145   9.1567
  3.143   9.1773
  3.141   9.0949
  3.139   9.0743
  3.137   9.0743
  3.135   9.0022
  3.133   8.9610
  3.132   8.9507
  3.130   8.8992
  3.128   8.9610
  3.126   9.0331
  3.124   9.0022
  3.122   8.9301
  3.120   8.9816
  3.118   8.9404
  3.117   8.9610
  3.115   8.8889
  3.113   8.8786
  3.111   8.8683
  3.109   8.8477
  3.107   8.8168
  3.105   8.7035
  3.103   8.6520
  3.102   8.7035
  3.100   8.6829
  3.098   8.7653
  3.096   8.7756
  3.094   8.7344
  3.092   8.7241
  3.091   8.6623
  3.089   8.5799
  3.087   8.6932
  3.085   8.6932
  3.083   8.6005
  3.081   8.4975
  3.079   8.6314
  3.078   8.5696
  3.076   8.5799
  3.074   8.4872
  3.072   8.5799
  3.070   8.7447
  3.069   8.7344
  3.067   8.5490
  3.065   8.5078
  3.063   8.4872
  3.061   8.5078
  3.060   8.5181
  3.058   8.6108
  3.056   8.5078
  3.054   8.4048
  3.052   8.4460
  3.051   8.5078
  3.049   8.5078
  3.047   8.3945
  3.045   8.3430
  3.043   8.4872
  3.042   8.5902
  3.040   8.5593
  3.038   8.4769
  3.036   8.4769
  3.034   8.4151
  3.033   8.4048
  3.031   8.4460
  3.029   8.5593
  3.027   8.6623
  3.026   8.6108
  3.024   8.4666
  3.022   8.4048
  3.020   8.4460
  3.019   8.4872
  3.017   8.4048
  3.015   8.4460
  3.013   8.4254
  3.012   8.3842
  3.010   8.3945
  3.008   8.4666
  3.006   8.3430
  3.005   8.4769
  3.003   8.5902
  3.001   8.5387
  2.999   8.4769
  2.998   8.3945
  2.996   8.3224
  2.994   8.4357
  2.992   8.5078
  2.991   8.4357
  2.989   8.2194
  2.987   8.2400
  2.986   8.3018
  2.984   8.4666
  2.982   8.5181
  2.980   8.6314
  2.979   8.5181
  2.977   8.3533
  2.975   8.3739
  2.974   8.5696
  2.972   8.4872
  2.970   8.5284
  2.968   8.6005
  2.967   8.5181
  2.965   8.5387
  2.963   8.7138
  2.962   8.6520
  2.960   8.5799
  2.958   8.3121
  2.957   8.3121
  2.955   8.3842
  2.953   8.3636
  2.952   8.4151
  2.950   8.6005
  2.948   8.6623
  2.947   8.5284
  2.945   8.3636
  2.943   8.5799
  2.942   8.6005
  2.940   8.5799
  2.938   8.5490
  2.937   8.5284
  2.935   8.4563
  2.933   8.3842
  2.932   8.4357
  2.930   8.6520
  2.928   8.7138
  2.927   8.7756
  2.925   8.7035
  2.923   8.8477
  2.922   8.6726
  2.920   8.4254
  2.918   8.5181
  2.917   8.7241
  2.915   8.9404
  2.913   8.9816
  2.912   8.8786
  2.910   8.8683
  2.909   8.8065
  2.907   8.7756
  2.905   8.7962
  2.904   8.6520
  2.902   8.5284
  2.900   8.6623
  2.899   8.7344
  2.897   8.7859
  2.896   8.7241
  2.894   8.7653
  2.892   8.7859
  2.891   8.7756
  2.889   8.7756
  2.887   9.0125
  2.886   9.0640
  2.884   8.9919
  2.883   8.9610
  2.881   9.0125
  2.879   9.1361
  2.878   9.0331
  2.876   8.8477
  2.875   8.8580
  2.873   8.9507
  2.871   9.2391
  2.870   9.2185
  2.868   9.2391
  2.867   9.0228
  2.865   9.1258
  2.864   9.2700
  2.862   9.2185
  2.860   9.0640
  2.859   9.0743
  2.857   9.1052
  2.856   9.1155
  2.854   9.0846
  2.853   9.1052
  2.851   9.3215
  2.849   9.3524
  2.848   9.2597
  2.846   9.2700
  2.845   9.1361
  2.843   9.1979
  2.842   9.2185
  2.840   9.2494
  2.838   9.0846
  2.837   9.2288
  2.835   9.4760
  2.834   9.5481
  2.832   9.4451
  2.831   9.3112
  2.829   9.2700
  2.828   9.4348
  2.826   9.3215
  2.825   9.1361
  2.823   9.1567
  2.821   9.1773
  2.820   9.1670
  2.818   9.1979
  2.817   9.3009
  2.815   9.4966
  2.814   9.3524
  2.812   9.2494
  2.811   9.1773
  2.809   9.4966
  2.808   9.5069
  2.806   9.3112
  2.805   9.0743
  2.803   9.2700
  2.802   9.3009
  2.800   9.1567
  2.799   9.2185
  2.797   9.2391
  2.796   9.1773
  2.794   9.1258
  2.793   8.8683
  2.791   8.7859
  2.790   8.7241
  2.788   8.6520
  2.787   8.4151
  2.785   8.3945
  2.784   8.3739
  2.782   8.2194
  2.781   7.9413
  2.779   8.0752
  2.778   7.9722
  2.776   7.5602
  2.775   7.5087
  2.773   7.8074
  2.772   7.6117
  2.770   7.3130
  2.769   7.2718
  2.767   7.0967
  2.766   6.5817
  2.764   6.5096
  2.763   6.6744
  2.761   6.6435
  2.760   6.4787
  2.758   6.7053
  2.757   6.7362
  2.756   6.5405
  2.754   6.6126
  2.753   7.0761
  2.751   7.2615
  2.750   6.9422
  2.748   6.8186
  2.747   7.1997
  2.745   7.2924
  2.744   7.2615
  2.742   7.5190
  2.741   7.7559
  2.740   7.6941
  2.738   7.6426
  2.737   7.6529
  2.735   7.6117
  2.734   7.4572
  2.732   7.6529
  2.731   8.1370
  2.729   8.3945
  2.728   8.5387
  2.727   8.7035
  2.725   8.7138
  2.724   9.1361
  2.722   9.4348
  2.721   9.4966
  2.719   9.4966
  2.718   9.8056
  2.717  10.1455
  2.715  10.3618
  2.714  10.5163
  2.712  10.6296
  2.711  10.3515
  2.709  10.1764
  2.708  10.1455
  2.707  10.3206
  2.705  10.3721
  2.704  10.0940
  2.702   9.9601
  2.701  10.2794
  2.700  10.7532
  2.698  11.1652
  2.697  11.7420
  2.695  12.6999
  2.694  13.4827
  2.693  14.1831
  2.691  15.0689
  2.690  15.6972
  2.688  16.2328
  2.687  17.0980
  2.686  17.8499
  2.684  18.4679
  2.683  19.1065
  2.681  19.4464
  2.680  19.7451
  2.679  20.3013
  2.677  20.7339
  2.676  21.0841
  2.675  21.3725
  2.673  21.8875
  2.672  22.2480
  2.670  22.5776
  2.669  22.8557
  2.668  23.1338
  2.666  23.1132
  2.665  23.0926
  2.664  23.4531
  2.662  24.1638
  2.661  24.6685
  2.659  24.8024
  2.658  24.8436
  2.657  25.2556
  2.655  25.2762
  2.654  25.2144
  2.653  25.6161
  2.651  26.1002
  2.650  25.9148
  2.649  25.9560
  2.647  26.1311
  2.646  26.1929
  2.645  26.3989
  2.643  26.7285
  2.642  26.7903
  2.640  26.8109
  2.639  26.7388
  2.638  26.6770
  2.636  26.7285
  2.635  27.0581
  2.634  27.3980
  2.632  27.3568
  2.631  27.2332
  2.630  27.4186
  2.628  27.5113
  2.627  27.4186
  2.626  27.1096
  2.624  27.4186
  2.623  27.8409
  2.622  28.1602
  2.620  28.0778
  2.619  27.8100
  2.618  27.9851
  2.617  28.0984
  2.615  27.9645
  2.614  28.3044
  2.613  28.1396
  2.611  27.9954
  2.610  28.1499
  2.609  28.2323
  2.607  28.1808
  2.606  28.0984
  2.605  28.0675
  2.603  28.3971
  2.602  28.6546
  2.601  28.8297
  2.599  28.8400
  2.598  28.9121
  2.597  29.1902
  2.596  29.1078
  2.594  28.6752
  2.593  28.6443
  2.592  28.7885
  2.590  29.1181
  2.589  29.3035
  2.588  29.3962
  2.586  29.3241
  2.585  29.6434
  2.584  29.5919
  2.583  29.4271
  2.581  29.5301
  2.580  29.6331
  2.579  29.6434
  2.577  29.7464
  2.576  29.5816
  2.575  29.5610
  2.574  29.7155
  2.572  29.8185
  2.571  29.9318
  2.570  30.0245
  2.569  29.8700
  2.567  29.7979
  2.566  29.9009
  2.565  30.1172
  2.563  30.0657
  2.562  30.1893
  2.561  30.1687
  2.560  30.1378
  2.558  30.0348
  2.557  30.1996
  2.556  30.2099
  2.555  30.2305
  2.553  30.3335
  2.552  30.1996
  2.551  30.2511
  2.550  30.4880
  2.548  30.2099
  2.547  30.1275
  2.546  30.3953
  2.545  30.5395
  2.543  30.7352
  2.542  30.6219
  2.541  30.5807
  2.540  30.8073
  2.538  30.7043
  2.537  30.7558
  2.536  30.7764
  2.535  30.8382
  2.533  30.9000
  2.532  31.0236
  2.531  30.9515
  2.530  30.6734
  2.528  30.6734
  2.527  31.2090
  2.526  31.3841
  2.525  31.2605
  2.524  31.2914
  2.522  31.4356
  2.521  31.4150
  2.520  31.2090
  2.519  31.2090
  2.517  31.3223
  2.516  31.2296
  2.515  31.2708
  2.514  30.9515
  2.513  30.9206
  2.511  31.2399
  2.510  31.0648
  2.509  30.9309
  2.508  30.9000
  2.506  30.6940
  2.505  30.9309
  2.504  31.0133
  2.503  31.3532
  2.502  31.3635
  2.500  31.4047
  2.497  31.4047
  2.493  30.9047
  2.489  30.9047
  2.485  30.8047
  2.481  30.4047
  2.477  30.2047
  2.473  30.3047
  2.469  30.2047
  2.465  30.3047
  2.461  30.3047
  2.457  30.0047
  2.453  30.0047
  2.449  30.3047
  2.445  30.4047
  2.441  30.4047
  2.437  30.7047
  2.433  30.8047
  2.429  31.0047
  2.425  31.4047
  2.421  31.8047
  2.417  31.8047
  2.413  32.1047
  2.409  32.5047
  2.405  32.5047
  2.401  32.6047
  2.397  33.1047
  2.393  33.1047
  2.389  33.2047
  2.385  33.2047
  2.381  33.2047
  2.377  33.3047
  2.373  33.1047
  2.369  33.2047
  2.365  33.1047
  2.361  33.3047
  2.357  33.3047
  2.353  33.3047
  2.349  33.5047
  2.345  33.7047
  2.341  33.7047
  2.337  33.7047
  2.333  34.0047
  2.329  34.2047
  2.325  34.6047
  2.321  34.7047
  2.317  35.1047
  2.313  35.5047
  2.309  35.9047
  2.305  36.0047
  2.301  38.3047
  2.297  38.1047
  2.293  37.7047
  2.289  38.2047
  2.285  38.8047
  2.281  39.9047
  2.277  39.9047
  2.273  40.1047
  2.269  40.2047
  2.265  40.1047
  2.261  39.9047
  2.257  39.8047
  2.253  39.8047
  2.249  39.8047
  2.245  39.7047
  2.241  39.2047
  2.237  39.0047
  2.233  38.7047
  2.229  38.2047
  2.225  36.9047
  2.221  36.1047
  2.217  35.2047
  2.213  34.4047
  2.209  33.8047
  2.205  33.3047
  2.201  33.3047
  2.197  33.5047
  2.193  33.6047
  2.189  34.3047
  2.185  34.9047
  2.181  35.7047
  2.177  36.1047
  2.173  37.0047
  2.169  37.7047
  2.165  38.3047
  2.161  39.1047
  2.157  39.8047
  2.153  40.4047
  2.149  40.9047
  2.145  41.3047
  2.141  41.8047
  2.137  42.4047
  2.133  42.5047
  2.129  42.6047
  2.125  42.6047
  2.121  42.9047
  2.117  43.4047
  2.113  43.6047
  2.109  44.0047
  2.105  44.0047
  2.101  44.1047
  2.097  44.5047
  2.093  44.8047
  2.089  45.1047
  2.085  45.3047
  2.081  45.3047
  2.077  45.4047
  2.073  45.4047
  2.069  45.6047
  2.065  45.4047
  2.061  45.3047
  2.057  45.6047
  2.053  45.6047
  2.049  45.7047
  2.045  45.8047
  2.041  45.9047
  2.037  45.8047
  2.033  45.8047
  2.029  45.7047
  2.025  45.3047
  2.021  44.9047
  2.017  44.9047
  2.013  45.1047
  2.009  44.9047
  2.005  44.6047
  2.001  44.6047
  1.997  44.6047
  1.993  44.6047
  1.989  44.5047
  1.985  44.2047
  1.981  44.1047
  1.977  44.1047
  1.973  43.6047
  1.969  43.5047
  1.965  43.6047
  1.961  43.5047
  1.957  43.2047
  1.953  42.9047
  1.949  42.6047
  1.945  42.6047
  1.941  42.5047
  1.937  42.3047
  1.933  42.1047
  1.929  42.3047
  1.925  41.8047
  1.921  41.5047
  1.917  41.3047
  1.913  41.3047
  1.909  41.6047
  1.905  42.4047
  1.901  42.9047
  1.897  43.8047
  1.893  44.9047
  1.889  46.0047
  1.885  47.1047
  1.881  48.8047
  1.877  50.2047
  1.873  50.6047
  1.869  50.4047
  1.865  50.3047
  1.861  50.8047
  1.857  51.7047
  1.853  52.4047
  1.849  52.6047
  1.845  52.8047
  1.841  53.0047
  1.837  53.1047
  1.833  52.5047
  1.829  52.4047
  1.825  52.6047
  1.821  52.6047
  1.817  53.0047
  1.813  52.8047
  1.809  52.5047
  1.805  52.6047
  1.801  53.0047
  1.797  52.8047
  1.793  53.0047
  1.789  53.2047
  1.785  53.4047
  1.781  53.2047
  1.777  53.4047
  1.773  53.5047
  1.769  53.4047
  1.765  53.5047
  1.761  53.6047
  1.757  53.6047
  1.753  53.5047
  1.749  53.4047
  1.745  53.5047
  1.741  53.5047
  1.737  53.6047
  1.733  53.7047
  1.729  54.0047
  1.725  54.0047
  1.721  53.5047
  1.717  53.7047
  1.713  54.0047
  1.709  53.9047
  1.705  53.9047
  1.701  54.1047
  1.697  54.2047
  1.693  54.3047
  1.689  54.0047
  1.685  54.0047
  1.681  54.1047
  1.677  54.0047
  1.673  54.2047
  1.669  54.3047
  1.665  54.5047
  1.661  54.5047
  1.657  54.0047
  1.653  54.0047
  1.649  54.3047
  1.645  54.0047
  1.641  54.2047
  1.637  54.0047
  1.633  54.0047
  1.629  54.0047
  1.625  53.9047
  1.621  54.0047
  1.617  54.0047
  1.613  54.0047
  1.609  54.0047
  1.605  53.9047
  1.601  54.0047
  1.597  54.2047
  1.593  53.9047
  1.589  53.6047
  1.585  53.9047
  1.581  54.0047
  1.577  54.0047
  1.573  54.1047
  1.569  54.2047
  1.565  54.2047
  1.561  54.1047
  1.557  54.1047
  1.553  53.7047
  1.549  53.5047
  1.545  53.2047
  1.541  53.4047
  1.537  53.2047
  1.533  53.4047
  1.529  53.4047
  1.525  53.5047
  1.521  53.7047
  1.517  53.6047
  1.513  53.5047
  1.509  53.4047
  1.505  53.1047
  1.501  52.8047
  1.497  53.1047
  1.493  53.0047
  1.489  53.1047
  1.485  53.0047
  1.481  52.9047
  1.477  52.8047
  1.473  52.5047
  1.469  52.6047
  1.465  52.5047
  1.461  52.3047
  1.457  52.0047
  1.453  52.0047
  1.449  52.0047
  1.445  51.9047
  1.441  51.4047
  1.437  51.0047
  1.433  50.8047
  1.429  50.1047
  1.425  49.1047
  1.421  47.9047
  1.417  46.2047
  1.413  44.2047
  1.409  43.7047
  1.405  43.7047
  1.401  44.1047
  1.397  45.4047
  1.393  46.9047
  1.389  47.6047
  1.385  49.0047
  1.381  50.2047
  1.377  50.4047
  1.373  51.8047
  1.369  53.0047
  1.365  53.2047
  1.361  52.6047
  1.357  53.2047
  1.353  53.5047
  1.349  53.6047
  1.345  54.0047
  1.341  54.3047
  1.337  54.6047
  1.333  54.0047
  1.329  53.7047
  1.325  53.9047
  1.321  54.0047
  1.317  54.0047
  1.313  54.0047
  1.309  54.1047
  1.305  54.0047
  1.301  54.0047
  1.297  54.0047
  1.293  54.0047
  1.289  54.0047
  1.285  53.7047
  1.281  53.6047
  1.277  53.5047
  1.273  53.4047
  1.269  53.2047
  1.265  53.1047
  1.261  53.0047
  1.257  52.6047
  1.253  52.5047
  1.249  52.8047
  1.245  52.6047
  1.241  52.6047
  1.237  52.4047
  1.233  52.5047
  1.229  53.4047
  1.225  53.4047
  1.221  53.2047
  1.217  52.9047
  1.213  52.4047
  1.209  52.1047
  1.205  52.0047
  1.201  51.9047
  1.197  51.9047
  1.193  51.8047
  1.189  51.7047
  1.185  51.5047
  1.181  51.5047
  1.177  51.3047
  1.173  51.2047
  1.169  51.0047
  1.165  51.0047
  1.161  51.2047
  1.157  51.7047
  1.153  51.7047
  1.149  51.5047
  1.145  51.3047
  1.141  51.5047
  1.137  51.4047
  1.133  51.2047
  1.129  51.0047
  1.125  50.6047
  1.121  50.9047
  1.117  50.6047
  1.113  50.3047
  1.109  50.2047
  1.105  50.3047
  1.101  50.4047
  1.097  50.3047
  1.093  49.9047
  1.089  49.6047
  1.085  49.8047
  1.081  49.7047
  1.077  49.6047
  1.073  49.6047
  1.069  49.6047
  1.065  49.5047
  1.061  49.2047
  1.057  49.0047
  1.053  49.0047
  1.049  49.1047
  1.045  48.8047
  1.041  49.3047
  1.037  49.2047
  1.033  49.1047
  1.029  48.8047
  1.025  48.6047
  1.021  48.2047
  1.017  48.4047
  1.013  48.2047
  1.009  48.4047
  1.005  48.4047
  1.001  48.1047
  0.997  48.1047
  0.993  48.5047
  0.989  48.5047
  0.985  48.1047
  0.981  47.9047
  0.977  47.9047
  0.973  47.6047
  0.969  47.7047
  0.965  47.6047
  0.961  47.9047
  0.957  47.6047
  0.953  47.5047
  0.949  47.5047
  0.945  47.5047
  0.941  47.5047
  0.937  47.3047
  0.933  47.5047
  0.929  47.4047
  0.925  47.4047
  0.921  47.3047
  0.917  47.3047
  0.913  47.0047
  0.909  47.1047
  0.905  47.0047
  0.901  47.1047
  0.897  47.0047
  0.893  47.0047
  0.889  46.9047
  0.885  46.8047
  0.881  46.5047
  0.877  46.7047
  0.873  46.8047
  0.869  46.9047
  0.865  46.8047
  0.861  46.7047
  0.857  46.7047
  0.853  46.8047
  0.849  46.4047
  0.845  46.5047
  0.841  46.5047
  0.837  46.8047
  0.833  46.8047
  0.829  46.8047
  0.825  47.0047
  0.821  46.9047
  0.817  47.4047
  0.813  47.5047
  0.809  47.7047
  0.805  47.5047
  0.804  48.6047
  0.803  48.6047
  0.802  48.4047
  0.801  48.6047
  0.800  48.4047
  0.799  48.4047
  0.798  48.1047
  0.797  48.4047
  0.796  48.5047
  0.795  48.2047
  0.794  48.6047
  0.793  48.1047
  0.792  48.2047
  0.791  48.7047
  0.790  48.7047
  0.789  48.5047
  0.788  48.5047
  0.787  48.4047
  0.786  48.4047
  0.785  48.5047
  0.784  48.4047
  0.783  48.4047
  0.782  48.2047
  0.781  48.6047
  0.780  48.7047
  0.779  48.5047
  0.778  48.5047
  0.777  48.7047
  0.776  48.7047
  0.775  48.7047
  0.774  48.5047
  0.773  48.4047
  0.772  48.4047
  0.771  48.2047
  0.770  48.2047
  0.769  48.5047
  0.768  48.1047
  0.767  48.2047
  0.766  48.2047
  0.765  48.5047
  0.764  48.5047
  0.763  48.6047
  0.762  47.9047
  0.761  48.0047
  0.760  48.1047
  0.759  48.1047
  0.758  47.6047
  0.757  47.7047
  0.756  47.9047
  0.755  47.7047
  0.754  47.6047
  0.753  47.5047
  0.752  47.4047
  0.751  47.6047
  0.750  47.6047
  0.749  47.6047
  0.748  47.6047
  0.747  47.5047
  0.746  47.7047
  0.745  47.5047
  0.744  47.6047
  0.743  47.5047
  0.742  47.6047
  0.741  47.4047
  0.740  47.1047
  0.739  47.4047
  0.738  47.6047
  0.737  47.5047
  0.736  46.9047
  0.735  47.1047
  0.734  47.3047
  0.733  47.1047
  0.732  46.9047
  0.731  47.0047
  0.730  47.0047
  0.729  47.0047
  0.728  47.0047
  0.727  46.9047
  0.726  46.8047
  0.725  46.9047
  0.724  46.9047
  0.723  46.5047
  0.722  46.8047
  0.721  46.9047
  0.720  46.4047
  0.719  46.2047
  0.718  46.2047
  0.717  46.3047
  0.716  46.4047
  0.715  46.2047
  0.714  46.0047
  0.713  46.2047
  0.712  45.8047
  0.711  45.7047
  0.710  45.7047
  0.709  45.7047
  0.708  45.6047
  0.707  45.9047
  0.706  45.3047
  0.705  45.3047
  0.704  45.4047
  0.703  44.7047
  0.702  44.7047
  0.701  44.7047
  0.700  44.8047
  0.699  44.9047
  0.698  44.7047
  0.697  44.8047
  0.696  44.5047
  0.695  44.6047
  0.694  44.6047
  0.693  44.6047
  0.692  44.9047
  0.691  45.2047
  0.690  44.7047
  0.689  44.5047
  0.688  44.3047
  0.687  44.3047
  0.686  44.3047
  0.685  44.1047
  0.684  44.5047
  0.683  44.7047
  0.682  44.3047
  0.681  44.3047
  0.680  44.0047
  0.679  44.0047
  0.678  44.0047
  0.677  44.5047
  0.676  44.2047
  0.675  43.7047
  0.674  43.8047
  0.673  44.1047
  0.672  44.2047
  0.671  44.1047
  0.670  44.1047
  0.669  43.8047
  0.668  44.0047
  0.667  44.0047
  0.666  43.5047
  0.665  43.6047
  0.664  43.6047
  0.663  43.4047
  0.662  43.4047
  0.661  43.4047
  0.660  43.4047
  0.659  43.6047
  0.658  43.7047
  0.657  43.8047
  0.656  43.5047
  0.655  43.2047
  0.654  43.4047
  0.653  43.5047
  0.652  43.2047
  0.651  43.2047
  0.650  43.0047
  0.649  43.0047
  0.648  43.0047
  0.647  42.6047
  0.646  42.7047
  0.645  43.2047
  0.644  43.1047
  0.643  42.7047
  0.642  42.9047
  0.641  43.1047
  0.640  42.9047
  0.639  42.7047
  0.638  42.4047
  0.637  42.9047
  0.636  42.5047
  0.635  42.6047
  0.634  42.5047
  0.633  42.3047
  0.632  42.3047
  0.631  42.4047
  0.630  42.4047
  0.629  42.3047
  0.628  41.9047
  0.627  42.0047
  0.626  42.0047
  0.625  42.3047
  0.624  42.3047
  0.623  42.4047
  0.622  42.4047
  0.621  42.4047
  0.620  42.4047
  0.619  42.5047
  0.618  42.0047
  0.617  42.3047
  0.616  42.1047
  0.615  42.3047
  0.614  42.3047
  0.613  42.1047
  0.612  42.0047
  0.611  41.8047
  0.610  41.8047
  0.609  41.5047
  0.608  41.5047
  0.607  41.6047
  0.606  41.5047
  0.605  41.4047
  0.604  41.6047
  0.603  42.0047
  0.602  41.4047
  0.601  41.4047
  0.600  41.3047
  0.599  41.2047
  0.598  41.2047
  0.597  41.0047
  0.596  40.9047
  0.595  40.8047
  0.594  40.7047
  0.593  40.7047
  0.592  40.4047
  0.591  40.2047
  0.590  40.2047
  0.589  39.9047
  0.588  39.9047
  0.587  40.2047
  0.586  40.2047
  0.585  39.9047
  0.584  40.1047
  0.583  39.7047
  0.582  39.4047
  0.581  39.3047
  0.580  39.6047
  0.579  39.6047
  0.578  39.3047
  0.577  39.2047
  0.576  39.1047
  0.575  39.1047
  0.574  39.0047
  0.573  39.1047
  0.572  39.0047
  0.571  38.7047
  0.570  38.6047
  0.569  38.6047
  0.568  38.6047
  0.567  38.3047
  0.566  38.1047
  0.565  38.1047
  0.564  37.7047
  0.563  38.5047
  0.562  38.5047
  0.561  38.3047
  0.560  38.0047
  0.559  37.9047
  0.558  37.9047
  0.557  37.6047
  0.556  37.2047
  0.555  37.0047
  0.554  36.3047
  0.553  36.3047
  0.552  36.0047
  0.551  36.3047
  0.550  36.1047
  0.549  36.0047
  0.548  35.4047
  0.547  35.7047
  0.546  35.4047
  0.545  35.4047
  0.544  35.1047
  0.543  34.4047
  0.542  34.4047
  0.541  34.6047
  0.540  34.2047
  0.539  33.8047
  0.538  33.7047
  0.537  33.7047
  0.536  33.6047
  0.535  33.0047
  0.534  32.9047
  0.533  32.7047
  0.532  32.6047
  0.531  32.4047
  0.530  32.0047
  0.529  31.8047
  0.528  31.3047
  0.527  31.1047
  0.526  31.4047
  0.525  31.3047
  0.524  31.0047
  0.523  30.8047
  0.522  30.4047
  0.521  30.4047
  0.520  29.9047
  0.519  29.8047
  0.518  30.0047
  0.517  29.7047
  0.516  29.4047
  0.515  29.2047
  0.514  29.6047
  0.513  29.3047
  0.512  29.2047
  0.511  29.2047
  0.510  28.8047
  0.509  28.7047
  0.508  28.7047
  0.507  28.5047
  0.506  28.2047
  0.505  27.8047
  0.504  28.0047
  0.503  27.8047
  0.502  27.4047
  0.501  27.7047
  0.500  27.6047
  0.499  27.0047
  0.498  27.1047
  0.497  27.2047
  0.496  27.0047
  0.495  27.2047
  0.494  26.7047
  0.493  26.7047
  0.492  26.5047
  0.491  26.3047
  0.490  26.1047
  0.489  25.5047
  0.488  25.8047
  0.487  26.1047
  0.486  26.0047
  0.485  25.9047
  0.484  25.5047
  0.483  25.5047
  0.482  25.9047
  0.481  26.1047
  0.480  25.9047
  0.479  25.5047
  0.478  25.6047
  0.477  25.6047
  0.476  25.9047
  0.475  25.6047
  0.474  25.5047
  0.473  25.4047
  0.472  25.3047
  0.471  25.4047
  0.470  25.8047
  0.469  25.6047
  0.468  25.4047
  0.467  25.4047
  0.466  25.5047
  0.465  25.4047
  0.464  24.9047
  0.463  25.3047
  0.462  25.0047
  0.461  24.7047
  0.460  24.7047
  0.459  24.6047
  0.458  24.8047
  0.457  24.6047
  0.456  24.3047
  0.455  24.7047
  0.454  24.4047
  0.453  24.6047
  0.452  24.3047
  0.451  24.3047
  0.450  24.3047
  0.449  24.3047
  0.448  24.4047
  0.447  24.1047
  0.446  23.7047
  0.445  23.6047
  0.444  23.3047
  0.443  23.6047
  0.442  23.5047
  0.441  23.2047
  0.440  23.3047
  0.439  23.2047
  0.438  23.0047
  0.437  23.1047
  0.436  22.8047
  0.435  22.7047
  0.434  22.2047
  0.433  22.4047
  0.432  22.2047
  0.431  22.2047
  0.430  22.5047
  0.429  22.2047
  0.428  22.1047
  0.427  22.0047
  0.426  22.0047
  0.425  21.7047
  0.424  21.7047
  0.423  21.6047
  0.422  21.4047
  0.421  21.5047
  0.420  21.4047
  0.419  21.0047
  0.418  21.1047
  0.417  21.3047
  0.416  21.3047
  0.415  21.0047
  0.414  21.0047
  0.413  21.1047
  0.412  21.0047
  0.411  20.9047
  0.410  20.9047
  0.409  21.1047
  0.408  20.9047
  0.407  21.0047
  0.406  20.8047
  0.405  20.4047
