Name: Basalt
Type: Rock
Class: Igneous
Subclass: Mafic
Particle Size: Whole rock chips
Sample No.: Me41
Owner: Lawrence Rowan, USGS Reston
Wavelength range: 0.40 - 14.05 um
Origin: Middle East

Description: Basalt





Measurement: Directional Hemispherical Reflectance
First Column: X
Second Column: Y
X Units: Wavelength (micrometers)
Y Units: Reflectance (percent)
First X Value: 14.05105
Last X Value: 0.40000
Number of X Values: 2231
Additional Information: me41a.txt

 14.051   2.3999
 14.013   2.2866
 13.975   2.4514
 13.938   2.5544
 13.900   2.6368
 13.863   2.5338
 13.826   2.6368
 13.790   2.5544
 13.753   2.6471
 13.717   2.6677
 13.680   2.7398
 13.644   2.6986
 13.609   2.7707
 13.573   2.6986
 13.538   2.7913
 13.502   2.7398
 13.467   2.7707
 13.432   2.7089
 13.398   2.7707
 13.363   2.8119
 13.329   2.8016
 13.295   2.7501
 13.261   2.8119
 13.227   2.7398
 13.193   2.8222
 13.160   2.7604
 13.126   2.7398
 13.093   2.6986
 13.060   2.8016
 13.027   2.8531
 12.995   2.9046
 12.962   2.8222
 12.930   2.8737
 12.898   2.8016
 12.866   2.8428
 12.834   2.8737
 12.802   2.9149
 12.771   2.8428
 12.739   2.9149
 12.708   2.8840
 12.677   2.8634
 12.646   2.9252
 12.616   3.0488
 12.585   2.9767
 12.554   3.1209
 12.524   3.1518
 12.494   3.1621
 12.464   3.1415
 12.434   3.2033
 12.404   3.2445
 12.375   3.3990
 12.345   3.5123
 12.316   3.5638
 12.287   3.5741
 12.258   3.6874
 12.229   3.6565
 12.200   3.7492
 12.171   3.8110
 12.143   3.8831
 12.115   3.9037
 12.086   4.0685
 12.058   4.1097
 12.030   4.2024
 12.002   4.1921
 11.975   4.2230
 11.947   4.2024
 11.920   4.2024
 11.892   4.1612
 11.865   4.3363
 11.838   4.4290
 11.811   4.4599
 11.784   4.4908
 11.757   4.7071
 11.731   4.7483
 11.704   4.7895
 11.678   4.8410
 11.652   4.9749
 11.626   5.0779
 11.600   5.2221
 11.574   5.2427
 11.548   5.3457
 11.522   5.4487
 11.497   5.5517
 11.471   5.5414
 11.446   5.6856
 11.421   5.8401
 11.396   5.9431
 11.371   5.9740
 11.346   6.1079
 11.321   6.0770
 11.297   6.0564
 11.272   6.0976
 11.248   6.2315
 11.223   6.2830
 11.199   6.4169
 11.175   6.4890
 11.151   6.5199
 11.127   6.4993
 11.103   6.6126
 11.079   6.5817
 11.056   6.6126
 11.032   6.5920
 11.009   6.6126
 10.985   6.5714
 10.962   6.5714
 10.939   6.5714
 10.916   6.6847
 10.893   6.6744
 10.870   6.6538
 10.848   6.6641
 10.825   6.7053
 10.802   6.6332
 10.780   6.6744
 10.758   6.5714
 10.735   6.5096
 10.713   6.5302
 10.691   6.5817
 10.669   6.5302
 10.647   6.5405
 10.625   6.5508
 10.604   6.5611
 10.582   6.4993
 10.560   6.5405
 10.539   6.4375
 10.518   6.3551
 10.496   6.3448
 10.475   6.4169
 10.454   6.3963
 10.433   6.4375
 10.412   6.3860
 10.391   6.3860
 10.370   6.3860
 10.350   6.4375
 10.329   6.3963
 10.309   6.4272
 10.288   6.3654
 10.268   6.3757
 10.247   6.3551
 10.227   6.3242
 10.207   6.2521
 10.187   6.2624
 10.167   6.2109
 10.147   6.2315
 10.127   6.1800
 10.108   6.2830
 10.088   6.3345
 10.068   6.2933
 10.049   6.3345
 10.029   6.4375
 10.010   6.4684
  9.991   6.4890
  9.972   6.4993
  9.952   6.4478
  9.933   6.4169
  9.914   6.4890
  9.895   6.4787
  9.877   6.4993
  9.858   6.4066
  9.839   6.4169
  9.821   6.4169
  9.802   6.4375
  9.783   6.3757
  9.765   6.3139
  9.747   6.3345
  9.728   6.4478
  9.710   6.3860
  9.692   6.3860
  9.674   6.3860
  9.656   6.3654
  9.638   6.2830
  9.620   6.2521
  9.602   6.2109
  9.585   6.1594
  9.567   6.1594
  9.549   6.1079
  9.532   5.9431
  9.514   5.9431
  9.497   5.9534
  9.479   5.9431
  9.462   5.8092
  9.445   5.7577
  9.428   5.8092
  9.411   5.8504
  9.394   5.7371
  9.377   5.7371
  9.360   5.6547
  9.343   5.6650
  9.326   5.6444
  9.309   5.6341
  9.293   5.5208
  9.276   5.4075
  9.259   5.3354
  9.243   5.4281
  9.226   5.4796
  9.210   5.5723
  9.194   5.5929
  9.178   5.5414
  9.161   5.4899
  9.145   5.5105
  9.129   5.5208
  9.113   5.5105
  9.097   5.3251
  9.081   5.4384
  9.065   5.5311
  9.049   5.5105
  9.034   5.4487
  9.018   5.4899
  9.002   5.5105
  8.987   5.5311
  8.971   5.4590
  8.956   5.4899
  8.940   5.4384
  8.925   5.3972
  8.909   5.2221
  8.894   5.1603
  8.879   5.2324
  8.864   5.2324
  8.849   5.1088
  8.834   5.0264
  8.819   4.9646
  8.804   4.9440
  8.789   4.8101
  8.774   4.8307
  8.759   4.8513
  8.744   4.7998
  8.730   4.7380
  8.715   4.6453
  8.700   4.5835
  8.686   4.6144
  8.671   4.5732
  8.657   4.5835
  8.642   4.6247
  8.628   4.6144
  8.614   4.4908
  8.599   4.4393
  8.585   4.3569
  8.571   4.3878
  8.557   4.3672
  8.543   4.4084
  8.529   4.4702
  8.515   4.4908
  8.501   4.3981
  8.487   4.2745
  8.473   4.2024
  8.459   4.2333
  8.445   4.1406
  8.431   4.0891
  8.418   4.0788
  8.404   4.1715
  8.391   4.0582
  8.377   4.0170
  8.363   3.9552
  8.350   3.9037
  8.337   3.7492
  8.323   3.6771
  8.310   3.5226
  8.297   3.4196
  8.283   3.3063
  8.270   3.1621
  8.257   2.9870
  8.244   2.8325
  8.231   2.5750
  8.218   2.4308
  8.205   2.2969
  8.192   2.1527
  8.179   2.0703
  8.166   2.0291
  8.153   1.8849
  8.140   1.7716
  8.128   1.7304
  8.115   1.6789
  8.102   1.5862
  8.090   1.6377
  8.077   1.6274
  8.064   1.6068
  8.052   1.5450
  8.039   1.5347
  8.027   1.4317
  8.015   1.3596
  8.002   1.3287
  7.990   1.4111
  7.978   1.4935
  7.965   1.5038
  7.953   1.4935
  7.941   1.5038
  7.929   1.4832
  7.917   1.4523
  7.905   1.4111
  7.893   1.4832
  7.881   1.5244
  7.869   1.5141
  7.857   1.4935
  7.845   1.5141
  7.833   1.4935
  7.821   1.5244
  7.809   1.5141
  7.798   1.5450
  7.786   1.5450
  7.774   1.6068
  7.763   1.6686
  7.751   1.7201
  7.739   1.7407
  7.728   1.7098
  7.716   1.5965
  7.705   1.6892
  7.694   1.7304
  7.682   1.7716
  7.671   1.7613
  7.659   1.7613
  7.648   1.8025
  7.637   1.9158
  7.626   1.8849
  7.614   1.8334
  7.603   1.8540
  7.592   1.9055
  7.581   1.9158
  7.570   1.9055
  7.559   1.9158
  7.548   2.0085
  7.537   2.0085
  7.526   1.9776
  7.515   1.9467
  7.504   2.0394
  7.493   2.0085
  7.483   1.9982
  7.472   2.0188
  7.461   2.0394
  7.450   2.0806
  7.440   2.1321
  7.429   2.1115
  7.418   2.1218
  7.408   2.1321
  7.397   2.1321
  7.387   2.1012
  7.376   2.1733
  7.366   2.2248
  7.355   2.2866
  7.345   2.2866
  7.334   2.2454
  7.324   2.3175
  7.314   2.3484
  7.303   2.2969
  7.293   2.3484
  7.283   2.3896
  7.273   2.3793
  7.263   2.3484
  7.252   2.3999
  7.242   2.4308
  7.232   2.4720
  7.222   2.4617
  7.212   2.4720
  7.202   2.4926
  7.192   2.5853
  7.182   2.5956
  7.172   2.5544
  7.162   2.5235
  7.152   2.5750
  7.143   2.5750
  7.133   2.6059
  7.123   2.6471
  7.113   2.6780
  7.103   2.6883
  7.094   2.7295
  7.084   2.7295
  7.074   2.8016
  7.065   2.7913
  7.055   2.7604
  7.046   2.7810
  7.036   2.8531
  7.026   2.7707
  7.017   2.7398
  7.007   2.7810
  6.998   2.8222
  6.989   2.8016
  6.979   2.8325
  6.970   2.8119
  6.960   2.8531
  6.951   2.9149
  6.942   2.9252
  6.932   2.8840
  6.923   2.9252
  6.914   2.9046
  6.905   2.9046
  6.896   2.9046
  6.886   2.9458
  6.877   2.9767
  6.868   3.0385
  6.859   2.9973
  6.850   3.0179
  6.841   3.0591
  6.832   3.0591
  6.823   3.0179
  6.814   3.0900
  6.805   3.1415
  6.796   3.0900
  6.787   3.0694
  6.778   3.0900
  6.770   3.1209
  6.761   3.1518
  6.752   3.1312
  6.743   3.2033
  6.734   3.2136
  6.726   3.1930
  6.717   3.1518
  6.708   3.1724
  6.700   3.1724
  6.691   3.2033
  6.682   3.1930
  6.674   3.2342
  6.665   3.2754
  6.657   3.2651
  6.648   3.2445
  6.640   3.2445
  6.631   3.1827
  6.623   3.2239
  6.614   3.2857
  6.606   3.3166
  6.597   3.2960
  6.589   3.3269
  6.581   3.3475
  6.572   3.3372
  6.564   3.2960
  6.556   3.3269
  6.547   3.3372
  6.539   3.3887
  6.531   3.4196
  6.523   3.3784
  6.514   3.3475
  6.506   3.2960
  6.498   3.3166
  6.490   3.3990
  6.482   3.3887
  6.474   3.3887
  6.466   3.3681
  6.458   3.3887
  6.450   3.3990
  6.442   3.4505
  6.434   3.4299
  6.426   3.4299
  6.418   3.4196
  6.410   3.4299
  6.402   3.4093
  6.394   3.4196
  6.386   3.4402
  6.378   3.4505
  6.370   3.4093
  6.363   3.3990
  6.355   3.3887
  6.347   3.3578
  6.339   3.3578
  6.332   3.4711
  6.324   3.4917
  6.316   3.4711
  6.308   3.4402
  6.301   3.4196
  6.293   3.3578
  6.286   3.3990
  6.278   3.4402
  6.270   3.4505
  6.263   3.4505
  6.255   3.3681
  6.248   3.3475
  6.240   3.3990
  6.233   3.3681
  6.225   3.3681
  6.218   3.3681
  6.210   3.3269
  6.203   3.2548
  6.195   3.2136
  6.188   3.2136
  6.181   3.2342
  6.173   3.2342
  6.166   3.2342
  6.159   3.1621
  6.151   3.1106
  6.144   3.0591
  6.137   3.0488
  6.130   3.0694
  6.122   3.0900
  6.115   3.1312
  6.108   3.1518
  6.101   3.1621
  6.094   3.1518
  6.086   3.1106
  6.079   3.1106
  6.072   3.1518
  6.065   3.1827
  6.058   3.1930
  6.051   3.1621
  6.044   3.1415
  6.037   3.1518
  6.030   3.1827
  6.023   3.2239
  6.016   3.2548
  6.009   3.3269
  6.002   3.3166
  5.995   3.2857
  5.988   3.3475
  5.981   3.4299
  5.974   3.4402
  5.967   3.4505
  5.960   3.4917
  5.954   3.5535
  5.947   3.5638
  5.940   3.5741
  5.933   3.5844
  5.926   3.6359
  5.920   3.7080
  5.913   3.7801
  5.906   3.7801
  5.899   3.7801
  5.893   3.7698
  5.886   3.8007
  5.879   3.8728
  5.873   3.9449
  5.866   3.9964
  5.859   3.9964
  5.853   4.0067
  5.846   4.0685
  5.840   4.0788
  5.833   4.0994
  5.827   4.1200
  5.820   4.1818
  5.813   4.2642
  5.807   4.2745
  5.800   4.2745
  5.794   4.2745
  5.788   4.2745
  5.781   4.3054
  5.775   4.3157
  5.768   4.3363
  5.762   4.3569
  5.755   4.3775
  5.749   4.3878
  5.743   4.4187
  5.736   4.4908
  5.730   4.5011
  5.724   4.4908
  5.717   4.4702
  5.711   4.4599
  5.705   4.4702
  5.698   4.4805
  5.692   4.4908
  5.686   4.4908
  5.680   4.5217
  5.674   4.5732
  5.667   4.6350
  5.661   4.6144
  5.655   4.5732
  5.649   4.6144
  5.643   4.6453
  5.637   4.6556
  5.630   4.6865
  5.624   4.6762
  5.618   4.6659
  5.612   4.6865
  5.606   4.7277
  5.600   4.7483
  5.594   4.7277
  5.588   4.7483
  5.582   4.7998
  5.576   4.7792
  5.570   4.7689
  5.564   4.7998
  5.558   4.8616
  5.552   4.8822
  5.546   4.8616
  5.540   4.8616
  5.534   4.9131
  5.528   4.8925
  5.523   4.9131
  5.517   4.9955
  5.511   5.0161
  5.505   4.9852
  5.499   5.0161
  5.493   5.0264
  5.487   5.0779
  5.482   5.0985
  5.476   5.0985
  5.470   5.0779
  5.464   5.0264
  5.459   5.0264
  5.453   5.1191
  5.447   5.1603
  5.441   5.1603
  5.436   5.1912
  5.430   5.2015
  5.424   5.2221
  5.419   5.2324
  5.413   5.2324
  5.407   5.2942
  5.402   5.2839
  5.396   5.2736
  5.390   5.3251
  5.385   5.3148
  5.379   5.2736
  5.374   5.3045
  5.368   5.3560
  5.363   5.4075
  5.357   5.4590
  5.352   5.4487
  5.346   5.4384
  5.341   5.4487
  5.335   5.4487
  5.330   5.4796
  5.324   5.5517
  5.319   5.5620
  5.313   5.5311
  5.308   5.5208
  5.302   5.5517
  5.297   5.6341
  5.291   5.6856
  5.286   5.7371
  5.281   5.7268
  5.275   5.7371
  5.270   5.7783
  5.265   5.7783
  5.259   5.7886
  5.254   5.8195
  5.249   5.8401
  5.243   5.8607
  5.238   5.8916
  5.233   5.9019
  5.227   5.9431
  5.222   5.9637
  5.217   5.9843
  5.212   6.0152
  5.206   6.0564
  5.201   6.0873
  5.196   6.0873
  5.191   6.0873
  5.186   6.1285
  5.180   6.1491
  5.175   6.2006
  5.170   6.2006
  5.165   6.1800
  5.160   6.2109
  5.155   6.2006
  5.150   6.2315
  5.145   6.2830
  5.139   6.3345
  5.134   6.3757
  5.129   6.4169
  5.124   6.4478
  5.119   6.4478
  5.114   6.4375
  5.109   6.4478
  5.104   6.4581
  5.099   6.4890
  5.094   6.4890
  5.089   6.4890
  5.084   6.6023
  5.079   6.6744
  5.074   6.6641
  5.069   6.6538
  5.064   6.7053
  5.059   6.7156
  5.054   6.7259
  5.049   6.7980
  5.044   6.8392
  5.040   6.8392
  5.035   6.8392
  5.030   6.8701
  5.025   6.8907
  5.020   6.8907
  5.015   6.8598
  5.010   6.9216
  5.005   7.0246
  5.001   7.0761
  4.996   7.0761
  4.991   7.0658
  4.986   7.0967
  4.981   7.1276
  4.977   7.0967
  4.972   7.1173
  4.967   7.1997
  4.962   7.3027
  4.958   7.3439
  4.953   7.3336
  4.948   7.3233
  4.943   7.3233
  4.939   7.3542
  4.934   7.3748
  4.929   7.4366
  4.925   7.4984
  4.920   7.5190
  4.915   7.5087
  4.911   7.5087
  4.906   7.5293
  4.901   7.5293
  4.897   7.5602
  4.892   7.6014
  4.888   7.6117
  4.883   7.6323
  4.878   7.6117
  4.874   7.6529
  4.869   7.7353
  4.865   7.7662
  4.860   7.7662
  4.856   7.8280
  4.851   7.8795
  4.846   7.9104
  4.842   7.9104
  4.837   7.8898
  4.833   7.9104
  4.828   7.9310
  4.824   7.9413
  4.819   7.9722
  4.815   7.9928
  4.810   8.0031
  4.806   8.0031
  4.802   8.0340
  4.797   8.0340
  4.793   8.0443
  4.788   8.0649
  4.784   8.0958
  4.779   8.1267
  4.775   8.1473
  4.771   8.2091
  4.766   8.2194
  4.762   8.2091
  4.758   8.1885
  4.753   8.1885
  4.749   8.2503
  4.744   8.3018
  4.740   8.3121
  4.736   8.3430
  4.731   8.4048
  4.727   8.4151
  4.723   8.4254
  4.719   8.5387
  4.714   8.5078
  4.710   8.4769
  4.706   8.5181
  4.701   8.5490
  4.697   8.6005
  4.693   8.6108
  4.689   8.6108
  4.684   8.6829
  4.680   8.7138
  4.676   8.6623
  4.672   8.6623
  4.668   8.7756
  4.663   8.8374
  4.659   8.8168
  4.655   8.8065
  4.651   8.8168
  4.647   8.8889
  4.643   8.9095
  4.638   8.9198
  4.634   8.9713
  4.630   8.9713
  4.626   8.9816
  4.622   9.0022
  4.618   9.0125
  4.614   9.0434
  4.610   9.1464
  4.605   9.2185
  4.601   9.1979
  4.597   9.1876
  4.593   9.2082
  4.589   9.2185
  4.585   9.2906
  4.581   9.3833
  4.577   9.3730
  4.573   9.3009
  4.569   9.3318
  4.565   9.4760
  4.561   9.5790
  4.557   9.5687
  4.553   9.5172
  4.549   9.5172
  4.545   9.5481
  4.541   9.5790
  4.537   9.6614
  4.533   9.6614
  4.529   9.6408
  4.525   9.7232
  4.521   9.7644
  4.517   9.7850
  4.513   9.8159
  4.509   9.8777
  4.505   9.8777
  4.502   9.8983
  4.498   9.9704
  4.494  10.0013
  4.490   9.9601
  4.486   9.9292
  4.482  10.0116
  4.478  10.0425
  4.474  10.0219
  4.470  10.1146
  4.467  10.2382
  4.463  10.2485
  4.459  10.1455
  4.455  10.1661
  4.451  10.2279
  4.447  10.2073
  4.444  10.1867
  4.440  10.2485
  4.436  10.2588
  4.432  10.3103
  4.428  10.3515
  4.425  10.3103
  4.421  10.3412
  4.417  10.4236
  4.413  10.4648
  4.410  10.5369
  4.406  10.5987
  4.402  10.5575
  4.398  10.5060
  4.395  10.5575
  4.391  10.6090
  4.387  10.6296
  4.384  10.5884
  4.380  10.5575
  4.376  10.5884
  4.372  10.6811
  4.369  10.7223
  4.365  10.7223
  4.361  10.7944
  4.358  10.8253
  4.354  10.7944
  4.350  10.8047
  4.347  10.7841
  4.343  10.8665
  4.340  10.9283
  4.336  10.9180
  4.332  10.9901
  4.329  11.0313
  4.325  10.9283
  4.321  10.9180
  4.318  11.0107
  4.314  11.0622
  4.311  11.0931
  4.307  11.1034
  4.304  11.1446
  4.300  11.0931
  4.296  11.0107
  4.293  11.0725
  4.289  11.1549
  4.286  11.2270
  4.282  11.2682
  4.279  11.2476
  4.275  11.1961
  4.272  11.2476
  4.268  11.2476
  4.265  11.2064
  4.261  11.2785
  4.258  11.3918
  4.254  11.4124
  4.251  11.4124
  4.247  11.3918
  4.244  11.3712
  4.240  11.4227
  4.237  11.4845
  4.233  11.4948
  4.230  11.4639
  4.226  11.4021
  4.223  11.5566
  4.219  11.6493
  4.216  11.6390
  4.213  11.5978
  4.209  11.6287
  4.206  11.7214
  4.202  11.7832
  4.199  11.8141
  4.196  11.8244
  4.192  11.8141
  4.189  11.7214
  4.185  11.7729
  4.182  11.8347
  4.179  11.9068
  4.175  11.9171
  4.172  11.8656
  4.169  11.8759
  4.165  11.9480
  4.162  11.9583
  4.159  12.0201
  4.155  12.1025
  4.152  12.0510
  4.149  12.0819
  4.145  12.1128
  4.142  12.0098
  4.139  11.9686
  4.135  12.0922
  4.132  12.0922
  4.129  12.1643
  4.126  12.2261
  4.122  12.2467
  4.119  12.2570
  4.116  12.2776
  4.112  12.2364
  4.109  12.1334
  4.106  12.1849
  4.103  12.3394
  4.099  12.2982
  4.096  12.3085
  4.093  12.3600
  4.090  12.3909
  4.086  12.4115
  4.083  12.3806
  4.080  12.3909
  4.077  12.3497
  4.074  12.3188
  4.070  12.3703
  4.067  12.3703
  4.064  12.4424
  4.061  12.5454
  4.058  12.5660
  4.055  12.5557
  4.051  12.5660
  4.048  12.6587
  4.045  12.7308
  4.042  12.7411
  4.039  12.6175
  4.036  12.5042
  4.032  12.5557
  4.029  12.6587
  4.026  12.7411
  4.023  12.7514
  4.020  12.6690
  4.017  12.5763
  4.014  12.5969
  4.011  12.6484
  4.008  12.7720
  4.004  12.8029
  4.001  12.8132
  3.998  12.7926
  3.995  12.7926
  3.992  12.7926
  3.989  12.7617
  3.986  12.6587
  3.983  12.7205
  3.980  12.8544
  3.977  12.9471
  3.974  12.9059
  3.971  12.8441
  3.968  12.8235
  3.965  12.8338
  3.962  12.8235
  3.959  12.8647
  3.956  12.8544
  3.953  12.8647
  3.950  12.8750
  3.947  12.9780
  3.944  12.9780
  3.941  12.9780
  3.938  12.9677
  3.935  12.9162
  3.932  12.9883
  3.929  13.0089
  3.926  12.9574
  3.923  12.9368
  3.920  12.9780
  3.917  12.9986
  3.914  13.0089
  3.911  12.9986
  3.908  12.9471
  3.905  12.9162
  3.902  12.8647
  3.899  12.9265
  3.896  12.9368
  3.893  12.9162
  3.890  12.9162
  3.887  12.9162
  3.884  12.9162
  3.882  13.0192
  3.879  13.0192
  3.876  12.9162
  3.873  12.9780
  3.870  13.0398
  3.867  12.9162
  3.864  12.8956
  3.861  12.9368
  3.858  12.9780
  3.856  12.9471
  3.853  12.9265
  3.850  12.9265
  3.847  12.8853
  3.844  12.8853
  3.841  12.9677
  3.838  12.9780
  3.836  12.9677
  3.833  12.9574
  3.830  12.9986
  3.827  12.9471
  3.824  12.9059
  3.822  12.9265
  3.819  12.9162
  3.816  12.8235
  3.813  12.8647
  3.810  12.8956
  3.807  12.9265
  3.805  12.8853
  3.802  12.8647
  3.799  12.8441
  3.796  12.8235
  3.794  12.8750
  3.791  12.9265
  3.788  12.8956
  3.785  12.8750
  3.782  12.8441
  3.780  12.8647
  3.777  12.7823
  3.774  12.7411
  3.771  12.7720
  3.769  12.7514
  3.766  12.6793
  3.763  12.6278
  3.761  12.6072
  3.758  12.6793
  3.755  12.6896
  3.752  12.6381
  3.750  12.6278
  3.747  12.6999
  3.744  12.6999
  3.742  12.6175
  3.739  12.6072
  3.736  12.5969
  3.733  12.6278
  3.731  12.6484
  3.728  12.5557
  3.725  12.5969
  3.723  12.5866
  3.720  12.4836
  3.717  12.5042
  3.715  12.5351
  3.712  12.4012
  3.709  12.3291
  3.707  12.4012
  3.704  12.4115
  3.702  12.3909
  3.699  12.2879
  3.696  12.2261
  3.694  12.3188
  3.691  12.2467
  3.688  12.2158
  3.686  12.2055
  3.683  12.1643
  3.680  12.2055
  3.678  12.3291
  3.675  12.3394
  3.673  12.1746
  3.670  12.1025
  3.667  12.2055
  3.665  12.3085
  3.662  12.2055
  3.660  12.1540
  3.657  12.1746
  3.655  12.1334
  3.652  12.1025
  3.649  12.0613
  3.647  11.9995
  3.644  12.0201
  3.642  12.1540
  3.639  12.0819
  3.637  11.8965
  3.634  11.8862
  3.632  11.9686
  3.629  11.9274
  3.626  11.8141
  3.624  11.7626
  3.621  11.7935
  3.619  11.7832
  3.616  11.8244
  3.614  11.8038
  3.611  11.7523
  3.609  11.7214
  3.606  11.7317
  3.604  11.6596
  3.601  11.6596
  3.599  11.6802
  3.596  11.7008
  3.594  11.6905
  3.591  11.7214
  3.589  11.6493
  3.586  11.5566
  3.584  11.5154
  3.581  11.5463
  3.579  11.5566
  3.576  11.5051
  3.574  11.4845
  3.571  11.5154
  3.569  11.4948
  3.567  11.3918
  3.564  11.3300
  3.562  11.3300
  3.559  11.2991
  3.557  11.3197
  3.554  11.3403
  3.552  11.2682
  3.549  11.1549
  3.547  11.1755
  3.545  11.1961
  3.542  11.2167
  3.540  11.1961
  3.537  11.1549
  3.535  11.1549
  3.533  11.1652
  3.530  11.1137
  3.528  11.1034
  3.525  11.0519
  3.523  10.9489
  3.521  10.8768
  3.518  10.8974
  3.516  10.9180
  3.513  10.9695
  3.511  10.9077
  3.509  10.7429
  3.506  10.7532
  3.504  10.7738
  3.502  10.7120
  3.499  10.7532
  3.497  10.7017
  3.494  10.5781
  3.492  10.5884
  3.490  10.7017
  3.487  10.6502
  3.485  10.6090
  3.483  10.5884
  3.480  10.6399
  3.478  10.6296
  3.476  10.5575
  3.473  10.4648
  3.471  10.5060
  3.469  10.5781
  3.466  10.4957
  3.464  10.4030
  3.462  10.3824
  3.460  10.3515
  3.457  10.4030
  3.455  10.4751
  3.453  10.3309
  3.450  10.1661
  3.448  10.2485
  3.446  10.2485
  3.443  10.2794
  3.441  10.1970
  3.439  10.1249
  3.437  10.2073
  3.434  10.3309
  3.432  10.2073
  3.430  10.0734
  3.428  10.0013
  3.425   9.9189
  3.423   9.9292
  3.421  10.0322
  3.418   9.9704
  3.416   9.9292
  3.414   9.8777
  3.412   9.8777
  3.409   9.8468
  3.407   9.8159
  3.405   9.8056
  3.403   9.8365
  3.401   9.7129
  3.398   9.6820
  3.396   9.6202
  3.394   9.6717
  3.392   9.7850
  3.389   9.7644
  3.387   9.6202
  3.385   9.5790
  3.383   9.5584
  3.381   9.4657
  3.378   9.4142
  3.376   9.5275
  3.374   9.6511
  3.372   9.6614
  3.370   9.6099
  3.367   9.6099
  3.365   9.5172
  3.363   9.4760
  3.361   9.3730
  3.359   9.3730
  3.357   9.4451
  3.354   9.4142
  3.352   9.3833
  3.350   9.4348
  3.348   9.3318
  3.346   9.2494
  3.344   9.3112
  3.341   9.2700
  3.339   9.1876
  3.337   9.2597
  3.335   9.2288
  3.333   9.2082
  3.331   9.1258
  3.329   9.0846
  3.326   9.1979
  3.324   9.2082
  3.322   9.1464
  3.320   9.1258
  3.318   9.0022
  3.316   8.9816
  3.314   8.9301
  3.312   8.9301
  3.309   8.8992
  3.307   8.9507
  3.305   8.9713
  3.303   8.9404
  3.301   8.9507
  3.299   8.9301
  3.297   8.8271
  3.295   8.8786
  3.293   8.9198
  3.291   8.9610
  3.288   8.9095
  3.286   8.7550
  3.284   8.6520
  3.282   8.7344
  3.280   8.8168
  3.278   8.8168
  3.276   8.6211
  3.274   8.5593
  3.272   8.5593
  3.270   8.6314
  3.268   8.6623
  3.266   8.5799
  3.264   8.4872
  3.262   8.6005
  3.259   8.5902
  3.257   8.5284
  3.255   8.4872
  3.253   8.5284
  3.251   8.5284
  3.249   8.5078
  3.247   8.5902
  3.245   8.5490
  3.243   8.3533
  3.241   8.3121
  3.239   8.2915
  3.237   8.3945
  3.235   8.4151
  3.233   8.3121
  3.231   8.2503
  3.229   8.2503
  3.227   8.2503
  3.225   8.2400
  3.223   8.2606
  3.221   8.3018
  3.219   8.2297
  3.217   8.0649
  3.215   8.0134
  3.213   8.1782
  3.211   8.1576
  3.209   8.0958
  3.207   8.0546
  3.205   7.9928
  3.203   7.9516
  3.201   7.9619
  3.199   7.9516
  3.197   7.9928
  3.195   8.0752
  3.193   8.1267
  3.191   8.1164
  3.189   8.1782
  3.187   8.0855
  3.185   8.0340
  3.183   7.7971
  3.182   7.7044
  3.180   7.8177
  3.178   7.8074
  3.176   7.8177
  3.174   7.8074
  3.172   7.7456
  3.170   7.8795
  3.168   7.9104
  3.166   7.8898
  3.164   7.8074
  3.162   7.8074
  3.160   7.6941
  3.158   7.5911
  3.156   7.5808
  3.154   7.6838
  3.152   7.7044
  3.151   7.7353
  3.149   7.7662
  3.147   7.6426
  3.145   7.4572
  3.143   7.6014
  3.141   7.4984
  3.139   7.4366
  3.137   7.6014
  3.135   7.6426
  3.133   7.6529
  3.132   7.6117
  3.130   7.5396
  3.128   7.5190
  3.126   7.5293
  3.124   7.6323
  3.122   7.6632
  3.120   7.5911
  3.118   7.4366
  3.117   7.3542
  3.115   7.3954
  3.113   7.3748
  3.111   7.2924
  3.109   7.4675
  3.107   7.5499
  3.105   7.4984
  3.103   7.3130
  3.102   7.2306
  3.100   7.1894
  3.098   7.3954
  3.096   7.4057
  3.094   7.3439
  3.092   7.3336
  3.091   7.4263
  3.089   7.3542
  3.087   7.2924
  3.085   7.2615
  3.083   7.2821
  3.081   7.2512
  3.079   7.3748
  3.078   7.4160
  3.076   7.3233
  3.074   7.1997
  3.072   7.1482
  3.070   7.1173
  3.069   7.1173
  3.067   7.0761
  3.065   7.1894
  3.063   7.2924
  3.061   7.4160
  3.060   7.4160
  3.058   7.3130
  3.056   7.1688
  3.054   7.0452
  3.052   7.1173
  3.051   7.2409
  3.049   7.2306
  3.047   7.2924
  3.045   7.2615
  3.043   7.2306
  3.042   7.2203
  3.040   7.2718
  3.038   7.2615
  3.036   7.2924
  3.034   7.2100
  3.033   7.2203
  3.031   7.2512
  3.029   7.2718
  3.027   7.1997
  3.026   7.2203
  3.024   7.2924
  3.022   7.2512
  3.020   7.1894
  3.019   7.0658
  3.017   7.0040
  3.015   7.1894
  3.013   7.2615
  3.012   7.1585
  3.010   6.9937
  3.008   7.0761
  3.006   7.1894
  3.005   7.1070
  3.003   7.1585
  3.001   7.3130
  2.999   7.1894
  2.998   6.9834
  2.996   6.9216
  2.994   6.9834
  2.992   7.0452
  2.991   7.2306
  2.989   7.3027
  2.987   7.1173
  2.986   6.9834
  2.984   7.0658
  2.982   7.1070
  2.980   7.1379
  2.979   7.0967
  2.977   7.0967
  2.975   7.1173
  2.974   7.1173
  2.972   7.2203
  2.970   7.3439
  2.968   7.1688
  2.967   7.0143
  2.965   6.9937
  2.963   7.1482
  2.962   7.1894
  2.960   7.0246
  2.958   6.9937
  2.957   7.2100
  2.955   7.1894
  2.953   7.0864
  2.952   6.9628
  2.950   6.9319
  2.948   6.9216
  2.947   7.0040
  2.945   7.0452
  2.943   7.1688
  2.942   7.0658
  2.940   7.0040
  2.938   7.0349
  2.937   7.0246
  2.935   7.0349
  2.933   7.1688
  2.932   7.0452
  2.930   7.0143
  2.928   6.9731
  2.927   7.1173
  2.925   7.2821
  2.923   7.2203
  2.922   6.9937
  2.920   6.8701
  2.918   6.9731
  2.917   7.1894
  2.915   7.1688
  2.913   7.1173
  2.912   7.0349
  2.910   6.9525
  2.909   7.0143
  2.907   7.0555
  2.905   6.9834
  2.904   7.0349
  2.902   7.1791
  2.900   7.1173
  2.899   7.0864
  2.897   7.2512
  2.896   7.3027
  2.894   7.2409
  2.892   7.0143
  2.891   7.0143
  2.889   7.0246
  2.887   7.2409
  2.886   7.4469
  2.884   7.3233
  2.883   7.1379
  2.881   7.1276
  2.879   7.1585
  2.878   7.2924
  2.876   7.2615
  2.875   7.3645
  2.873   7.2203
  2.871   7.1173
  2.870   7.1585
  2.868   7.2512
  2.867   7.3336
  2.865   7.3027
  2.864   7.2409
  2.862   7.3851
  2.860   7.2615
  2.859   7.3851
  2.857   7.3027
  2.856   7.3336
  2.854   7.3645
  2.853   7.5396
  2.851   7.5808
  2.849   7.4984
  2.848   7.6838
  2.846   7.6941
  2.845   7.3851
  2.843   7.1688
  2.842   7.2203
  2.840   7.5087
  2.838   7.5396
  2.837   7.5190
  2.835   7.3542
  2.834   7.3645
  2.832   7.2718
  2.831   7.4057
  2.829   7.6529
  2.828   7.5602
  2.826   7.4881
  2.825   7.6838
  2.823   7.6117
  2.821   7.5190
  2.820   7.6529
  2.818   7.8486
  2.817   7.6632
  2.815   7.6220
  2.814   7.6323
  2.812   7.5602
  2.811   7.4469
  2.809   7.3645
  2.808   7.3645
  2.806   7.4984
  2.805   7.4778
  2.803   7.6529
  2.802   7.7971
  2.800   7.9001
  2.799   7.8589
  2.797   7.9413
  2.796   7.9207
  2.794   8.0237
  2.793   8.0134
  2.791   7.7559
  2.790   7.5293
  2.788   7.6838
  2.787   7.8589
  2.785   8.0443
  2.784   7.8898
  2.782   7.9310
  2.781   7.9722
  2.779   8.0237
  2.778   8.1267
  2.776   8.2297
  2.775   8.3739
  2.773   8.3327
  2.772   7.9413
  2.770   7.9310
  2.769   8.2400
  2.767   8.3533
  2.766   8.3739
  2.764   8.3945
  2.763   8.3224
  2.761   8.3842
  2.760   8.3842
  2.758   8.3533
  2.757   8.6520
  2.756   8.9610
  2.754   8.9713
  2.753   8.9713
  2.751   8.9610
  2.750   9.0228
  2.748   8.8580
  2.747   8.8374
  2.745   9.0434
  2.744   9.3009
  2.742   9.4863
  2.741   9.7644
  2.740   9.8674
  2.738   9.7953
  2.737   9.7232
  2.735  10.0013
  2.734  10.2176
  2.732  10.4854
  2.731  10.5266
  2.729  10.5163
  2.728  10.6090
  2.727  10.7017
  2.725  10.9592
  2.724  11.2991
  2.722  11.4021
  2.721  11.4639
  2.719  11.7729
  2.718  12.0819
  2.717  12.0819
  2.715  12.3909
  2.714  12.7617
  2.712  12.8338
  2.711  12.9368
  2.709  13.4724
  2.708  13.6681
  2.707  13.8741
  2.705  14.3376
  2.704  14.6260
  2.702  14.6157
  2.701  14.6466
  2.700  14.9968
  2.698  15.4809
  2.697  15.5427
  2.695  15.3470
  2.694  15.3161
  2.693  15.7178
  2.691  15.9959
  2.690  16.0371
  2.688  16.2843
  2.687  16.7890
  2.686  16.8405
  2.684  16.6139
  2.683  16.4903
  2.681  16.7993
  2.680  17.0568
  2.679  17.1495
  2.677  17.2422
  2.676  17.2010
  2.675  17.1804
  2.673  17.2937
  2.672  17.5203
  2.670  17.7572
  2.669  17.8602
  2.668  18.3340
  2.666  18.4679
  2.665  18.4782
  2.664  18.4988
  2.662  18.6018
  2.661  18.5194
  2.659  18.5194
  2.658  18.5915
  2.657  18.6121
  2.655  18.9005
  2.654  19.1992
  2.653  18.9314
  2.651  18.7872
  2.650  18.9005
  2.649  19.0962
  2.647  18.9623
  2.646  19.1168
  2.645  19.0344
  2.643  19.0344
  2.642  19.1889
  2.640  19.5185
  2.639  19.4773
  2.638  19.4464
  2.636  19.2301
  2.635  19.0962
  2.634  19.1786
  2.632  19.1683
  2.631  19.1580
  2.630  19.4464
  2.628  19.3949
  2.627  19.2198
  2.626  19.4258
  2.624  19.6524
  2.623  19.6318
  2.622  19.5906
  2.620  19.6524
  2.619  19.6833
  2.618  19.5082
  2.617  19.5494
  2.615  19.4361
  2.614  19.5494
  2.613  19.7039
  2.611  19.7657
  2.610  19.5803
  2.609  19.6215
  2.607  19.5906
  2.606  19.6421
  2.605  19.5803
  2.603  19.6730
  2.602  19.7451
  2.601  19.8584
  2.599  19.7657
  2.598  19.7142
  2.597  19.9202
  2.596  19.8687
  2.594  19.5906
  2.593  19.9408
  2.592  20.3734
  2.590  20.4764
  2.589  20.0541
  2.588  19.7245
  2.586  19.6009
  2.585  19.8172
  2.584  19.6936
  2.583  19.5391
  2.581  19.7760
  2.580  20.0850
  2.579  20.3837
  2.577  20.2189
  2.576  19.8687
  2.575  20.0335
  2.574  19.8687
  2.572  19.8790
  2.571  19.9820
  2.570  20.0747
  2.569  19.9202
  2.567  19.8378
  2.566  19.7760
  2.565  19.9305
  2.563  20.1674
  2.562  20.1880
  2.561  20.0129
  2.560  20.0232
  2.558  20.1056
  2.557  20.3013
  2.556  20.0747
  2.555  19.9408
  2.553  19.9511
  2.552  19.7760
  2.551  19.8687
  2.550  20.1468
  2.548  20.0129
  2.547  19.6627
  2.546  19.2816
  2.545  19.8378
  2.543  20.0438
  2.542  19.8996
  2.541  19.8584
  2.540  20.2086
  2.538  20.3631
  2.537  20.4558
  2.536  20.2086
  2.535  20.1159
  2.533  20.3013
  2.532  20.4043
  2.531  20.1468
  2.530  20.1468
  2.528  20.0953
  2.527  20.0129
  2.526  19.9511
  2.525  20.2395
  2.524  20.2601
  2.522  20.3219
  2.521  20.3837
  2.520  20.4455
  2.519  20.4352
  2.517  20.4970
  2.516  20.4455
  2.515  20.4455
  2.514  20.3013
  2.513  20.4455
  2.511  20.5073
  2.510  20.3837
  2.509  20.3116
  2.508  20.3940
  2.506  20.2395
  2.505  20.1674
  2.504  20.0541
  2.503  20.3528
  2.502  20.5897
  2.500  20.6515
  2.496  19.5502
  2.492  20.2067
  2.488  20.6977
  2.484  20.2671
  2.480  19.7297
  2.476  20.2698
  2.472  20.6825
  2.468  20.5330
  2.464  20.2683
  2.460  21.0894
  2.456  20.5840
  2.452  21.0230
  2.448  21.0190
  2.444  20.7948
  2.440  20.9851
  2.436  21.0301
  2.432  21.2127
  2.428  21.1823
  2.424  20.8141
  2.420  21.5230
  2.416  21.5725
  2.412  21.3497
  2.408  21.4679
  2.404  21.4820
  2.400  21.6849
  2.396  21.7165
  2.392  21.6984
  2.388  21.8563
  2.384  21.7951
  2.380  22.0911
  2.376  21.9866
  2.372  22.2666
  2.368  22.3231
  2.364  22.3909
  2.360  22.3963
  2.356  22.2272
  2.352  22.4729
  2.348  22.3238
  2.344  22.6436
  2.340  22.3815
  2.336  22.3392
  2.332  22.6235
  2.328  22.8448
  2.324  22.5799
  2.320  22.3415
  2.316  22.5015
  2.312  22.7110
  2.308  22.7033
  2.304  22.4971
  2.300  22.6550
  2.296  22.5181
  2.292  22.5018
  2.288  22.6280
  2.284  22.8755
  2.280  22.4769
  2.276  22.6592
  2.272  22.8243
  2.268  22.7800
  2.264  22.7886
  2.260  22.6970
  2.256  22.8804
  2.252  22.9963
  2.248  22.9617
  2.244  23.1335
  2.240  23.0337
  2.236  23.0198
  2.232  22.9865
  2.228  23.0160
  2.224  23.2387
  2.220  23.2949
  2.216  23.2556
  2.212  23.3136
  2.208  23.3361
  2.204  23.6143
  2.200  23.6059
  2.196  23.6781
  2.192  23.8390
  2.188  23.6995
  2.184  23.7568
  2.180  23.9576
  2.176  24.0718
  2.172  24.1642
  2.168  24.2764
  2.164  24.3277
  2.160  24.3751
  2.156  24.4421
  2.152  24.4352
  2.148  24.5244
  2.144  24.6836
  2.140  24.6704
  2.136  24.5392
  2.132  24.4625
  2.128  24.5461
  2.124  24.5366
  2.120  24.5235
  2.116  24.3684
  2.112  24.3966
  2.108  24.4013
  2.104  24.3515
  2.100  24.3071
  2.096  24.3475
  2.092  24.4245
  2.088  24.4361
  2.084  24.4024
  2.080  24.4724
  2.076  24.5833
  2.072  24.4972
  2.068  24.5589
  2.064  24.6053
  2.060  24.6276
  2.056  24.6417
  2.052  24.6575
  2.048  24.6930
  2.044  24.7381
  2.040  24.7322
  2.036  24.7599
  2.032  24.7373
  2.028  24.6911
  2.024  24.7448
  2.020  24.7363
  2.016  24.7415
  2.012  24.7908
  2.008  24.7455
  2.004  24.6899
  2.000  24.7261
  1.996  24.6958
  1.992  24.6612
  1.988  24.6388
  1.984  24.6398
  1.980  24.5918
  1.976  24.5305
  1.972  24.5133
  1.968  24.4819
  1.964  24.4484
  1.960  24.4524
  1.956  24.5240
  1.952  24.3832
  1.948  24.2232
  1.944  24.2881
  1.940  24.2833
  1.936  24.1447
  1.932  23.9672
  1.928  23.8545
  1.924  23.7373
  1.920  23.6348
  1.916  23.5827
  1.912  23.5700
  1.908  23.7110
  1.904  23.8934
  1.900  24.0785
  1.896  24.3868
  1.892  24.7099
  1.888  25.0237
  1.884  25.3467
  1.880  25.6191
  1.876  25.8725
  1.872  26.0541
  1.868  26.0830
  1.864  26.0922
  1.860  26.1630
  1.856  26.2631
  1.852  26.3912
  1.848  26.4799
  1.844  26.5073
  1.840  26.5176
  1.836  26.4976
  1.832  26.4558
  1.828  26.4691
  1.824  26.5031
  1.820  26.5219
  1.816  26.5371
  1.812  26.5737
  1.808  26.5983
  1.804  26.6413
  1.800  26.6573
  1.796  26.6628
  1.792  26.6712
  1.788  26.7062
  1.784  26.7485
  1.780  26.7893
  1.776  26.8194
  1.772  26.8262
  1.768  26.8214
  1.764  26.8251
  1.760  26.8312
  1.756  26.8357
  1.752  26.8336
  1.748  26.8362
  1.744  26.8750
  1.740  26.9009
  1.736  26.9201
  1.732  26.9282
  1.728  26.9375
  1.724  26.9646
  1.720  26.9758
  1.716  26.9846
  1.712  26.9811
  1.708  26.9779
  1.704  26.9684
  1.700  26.9547
  1.696  26.9860
  1.692  26.9983
  1.688  27.0088
  1.684  26.9640
  1.680  26.9530
  1.676  26.9492
  1.672  26.9392
  1.668  26.8874
  1.664  26.8616
  1.660  26.8345
  1.656  26.8116
  1.652  26.8515
  1.648  26.8735
  1.644  26.8253
  1.640  26.7793
  1.636  26.7758
  1.632  26.7833
  1.628  26.7593
  1.624  26.7497
  1.620  26.7258
  1.616  26.7244
  1.612  26.7038
  1.608  26.6748
  1.604  26.6949
  1.600  26.6634
  1.596  26.6586
  1.592  26.6447
  1.588  26.5777
  1.584  26.5737
  1.580  26.5732
  1.576  26.5537
  1.572  26.5239
  1.568  26.5105
  1.564  26.4712
  1.560  26.4682
  1.556  26.4099
  1.552  26.4040
  1.548  26.3909
  1.544  26.3705
  1.540  26.3615
  1.536  26.2893
  1.532  26.2616
  1.528  26.2877
  1.524  26.1956
  1.520  26.1847
  1.516  26.1652
  1.512  26.1354
  1.508  26.0652
  1.504  26.0803
  1.500  26.0320
  1.496  26.0242
  1.492  25.9895
  1.488  25.9187
  1.484  25.8392
  1.480  25.8128
  1.476  25.8440
  1.472  25.7653
  1.468  25.6924
  1.464  25.6210
  1.460  25.6334
  1.456  25.6385
  1.452  25.5780
  1.448  25.5442
  1.444  25.4773
  1.440  25.4345
  1.436  25.3604
  1.432  25.3661
  1.428  25.2877
  1.424  25.2639
  1.420  25.2254
  1.416  25.2168
  1.412  25.1890
  1.408  25.2238
  1.404  25.2153
  1.400  25.2421
  1.396  25.2550
  1.392  25.3017
  1.388  25.3464
  1.384  25.3773
  1.380  25.3808
  1.376  25.2752
  1.372  25.2338
  1.368  25.3401
  1.364  25.4076
  1.360  25.3189
  1.356  25.1218
  1.352  25.0714
  1.348  25.0662
  1.344  25.1468
  1.340  25.1578
  1.336  25.1892
  1.332  25.1535
  1.328  25.0595
  1.324  25.0414
  1.320  25.0099
  1.316  24.9606
  1.312  24.9158
  1.308  24.9134
  1.304  24.8402
  1.300  24.9216
  1.296  24.8713
  1.292  24.7854
  1.288  24.8554
  1.284  24.8054
  1.280  24.7444
  1.276  24.6925
  1.272  24.7578
  1.268  24.6940
  1.264  24.7132
  1.260  24.7095
  1.256  24.6280
  1.252  24.5790
  1.248  24.6018
  1.244  24.6165
  1.240  24.5443
  1.236  24.5262
  1.232  24.5366
  1.228  24.4518
  1.224  24.5298
  1.220  24.4844
  1.216  24.4042
  1.212  24.4114
  1.208  24.4182
  1.204  24.3630
  1.200  24.3446
  1.196  24.3724
  1.192  24.3287
  1.188  24.2973
  1.184  24.2712
  1.180  24.2685
  1.176  24.2633
  1.172  24.2287
  1.168  24.2184
  1.164  24.1921
  1.160  24.2044
  1.156  24.1490
  1.152  24.1543
  1.148  24.1576
  1.144  24.1015
  1.140  24.0095
  1.136  24.0184
  1.132  24.0131
  1.128  23.9907
  1.124  23.9706
  1.120  23.8924
  1.116  23.8307
  1.112  23.8145
  1.108  23.7997
  1.104  23.7916
  1.100  23.7156
  1.096  23.6975
  1.092  23.6412
  1.088  23.6340
  1.084  23.5607
  1.080  23.5700
  1.076  23.4977
  1.072  23.4855
  1.068  23.5376
  1.064  23.4490
  1.060  23.4444
  1.056  23.4495
  1.052  23.4044
  1.048  23.4051
  1.044  23.4682
  1.040  23.4060
  1.036  23.3890
  1.032  23.3868
  1.028  23.3904
  1.024  23.4342
  1.020  23.4224
  1.016  23.4276
  1.012  23.4032
  1.008  23.4333
  1.004  23.4655
  1.000  23.4814
  0.996  23.4748
  0.992  23.4929
  0.988  23.5051
  0.984  23.5014
  0.980  23.5595
  0.976  23.5512
  0.972  23.6118
  0.968  23.6270
  0.964  23.6565
  0.960  23.6747
  0.956  23.7210
  0.952  23.7538
  0.948  23.7935
  0.944  23.8297
  0.940  23.8381
  0.936  23.8490
  0.932  23.9111
  0.928  23.9923
  0.924  24.1299
  0.920  24.3054
  0.916  24.3337
  0.912  24.3786
  0.908  24.4437
  0.904  24.5250
  0.900  24.5324
  0.896  24.5770
  0.892  24.6052
  0.888  24.5745
  0.884  24.7062
  0.880  24.7697
  0.876  24.6924
  0.872  24.6971
  0.868  24.7160
  0.864  24.7365
  0.860  24.9854
  0.856  24.9307
  0.852  24.6103
  0.848  24.3570
  0.844  24.4308
  0.840  24.6395
  0.836  24.8092
  0.832  24.7592
  0.828  24.8315
  0.824  24.8507
  0.820  24.7920
  0.816  24.8400
  0.812  24.8237
  0.808  24.8034
  0.804  24.7850
  0.800  24.7770
  0.796  24.7506
  0.792  24.6927
  0.788  24.6699
  0.784  24.6258
  0.780  24.6569
  0.776  24.6013
  0.772  24.5562
  0.768  24.4967
  0.764  24.4599
  0.760  24.4311
  0.756  24.3861
  0.752  24.3127
  0.748  24.2706
  0.744  24.1495
  0.740  24.1290
  0.736  24.0412
  0.732  23.9224
  0.728  23.8264
  0.724  23.7501
  0.720  23.6676
  0.716  23.5451
  0.712  23.4524
  0.708  23.3777
  0.704  23.2427
  0.700  23.1278
  0.696  23.0549
  0.692  22.9487
  0.688  22.8254
  0.684  22.7125
  0.680  22.5920
  0.676  22.4807
  0.672  22.3949
  0.668  22.3134
  0.664  22.1926
  0.660  22.1172
  0.656  22.0391
  0.652  21.9475
  0.648  21.8672
  0.644  21.7630
  0.640  21.6804
  0.636  21.6204
  0.632  21.5122
  0.628  21.4272
  0.624  21.3529
  0.620  21.2664
  0.616  21.1483
  0.612  21.0667
  0.608  20.9517
  0.604  20.8071
  0.600  20.6839
  0.596  20.5470
  0.592  20.3905
  0.588  20.1820
  0.584  19.9458
  0.580  19.7291
  0.576  19.5062
  0.572  19.2671
  0.568  18.9916
  0.564  18.6906
  0.560  18.4117
  0.556  18.1558
  0.552  17.8868
  0.548  17.6225
  0.544  17.3532
  0.540  17.1031
  0.536  16.8688
  0.532  16.6333
  0.528  16.4345
  0.524  16.2467
  0.520  16.0926
  0.516  15.9256
  0.512  15.7850
  0.508  15.6757
  0.504  15.5813
  0.500  15.5047
  0.496  15.4356
  0.492  15.3667
  0.488  15.2863
  0.484  15.2213
  0.480  15.1702
  0.476  15.1150
  0.472  15.0444
  0.468  14.9796
  0.464  14.8832
  0.460  14.7799
  0.456  14.6530
  0.452  14.5299
  0.448  14.4057
  0.444  14.2734
  0.440  14.1693
  0.436  14.1065
  0.432  14.0240
  0.428  13.9459
  0.424  13.8745
  0.420  13.7943
  0.416  13.7397
  0.412  13.6495
  0.408  13.6241
  0.404  13.5740
  0.400  13.4847
