Name: Rhyolite
Type: Rock
Class: Igneous
Subclass: Felsic
Particle Size: Whole Rock Chips
Sample No.: AP-936-10
Owner: United States Geological Survey, L. C. Rowan
Wavelength range: 0.405 - 14.05 um
Origin: Iberian Pyrite Belt, Spain

Description: Rhyolite, fresh





Measurement: Directional Hemispherical Reflectance
First Column: X
Second Column: Y
X Units: Wavelength (micrometers)
Y Units: Reflectance (percent)
First X Value: 14.05105
Last X Value: 0.40500
Number of X Values: 2530
Additional Information: rhy10a.txt

 14.051   2.5235
 14.013   2.4308
 13.975   2.4617
 13.938   2.4205
 13.900   2.5853
 13.863   2.6471
 13.826   2.7089
 13.790   2.6471
 13.753   2.6265
 13.717   2.5647
 13.680   2.8016
 13.644   2.8119
 13.609   2.8222
 13.573   2.7604
 13.538   2.8016
 13.502   2.8325
 13.467   2.8943
 13.432   2.8016
 13.398   2.8943
 13.363   3.0179
 13.329   3.1209
 13.295   2.9973
 13.261   3.1312
 13.227   3.1415
 13.193   3.1827
 13.160   3.2136
 13.126   3.3578
 13.093   3.4402
 13.060   3.5844
 13.027   3.6256
 12.995   3.7492
 12.962   3.9037
 12.930   4.1406
 12.898   4.2539
 12.866   4.3981
 12.834   4.4702
 12.802   4.5835
 12.771   4.5217
 12.739   4.4187
 12.708   4.1097
 12.677   3.8110
 12.646   3.5947
 12.616   3.7492
 12.585   3.9140
 12.554   4.0582
 12.524   4.0273
 12.494   3.9758
 12.464   3.8831
 12.434   3.7389
 12.404   3.3372
 12.375   2.8943
 12.345   2.3484
 12.316   1.9570
 12.287   1.7098
 12.258   1.7304
 12.229   1.8849
 12.200   2.0703
 12.171   2.1630
 12.143   2.3072
 12.115   2.2660
 12.086   2.3175
 12.058   2.4720
 12.030   2.5544
 12.002   2.5853
 11.975   2.7192
 11.947   2.7913
 11.920   2.9252
 11.892   2.9252
 11.865   2.9870
 11.838   3.0591
 11.811   3.2342
 11.784   3.2754
 11.757   3.3784
 11.731   3.4196
 11.704   3.4608
 11.678   3.4608
 11.652   3.4711
 11.626   3.4711
 11.600   3.5741
 11.574   3.6359
 11.548   3.7904
 11.522   3.7698
 11.497   3.8110
 11.471   3.7801
 11.446   3.8213
 11.421   3.8419
 11.396   3.9140
 11.371   3.9861
 11.346   4.0273
 11.321   4.0273
 11.297   4.1097
 11.272   4.2024
 11.248   4.2230
 11.223   4.1921
 11.199   4.2436
 11.175   4.2127
 11.151   4.2848
 11.127   4.3054
 11.103   4.3157
 11.079   4.3157
 11.056   4.4393
 11.032   4.4908
 11.009   4.5114
 10.985   4.4805
 10.962   4.4805
 10.939   4.4599
 10.916   4.4908
 10.893   4.4084
 10.870   4.4393
 10.848   4.4496
 10.825   4.4290
 10.802   4.3775
 10.780   4.4290
 10.758   4.3466
 10.735   4.3363
 10.713   4.4393
 10.691   4.5526
 10.669   4.4908
 10.647   4.5423
 10.625   4.5835
 10.604   4.7071
 10.582   4.6865
 10.560   4.7277
 10.539   4.7586
 10.518   4.8616
 10.496   4.8719
 10.475   4.8822
 10.454   4.9337
 10.433   4.9955
 10.412   5.0676
 10.391   5.1603
 10.370   5.1912
 10.350   5.2839
 10.329   5.2633
 10.309   5.2839
 10.288   5.3457
 10.268   5.4487
 10.247   5.4796
 10.227   5.6444
 10.207   5.6856
 10.187   5.6959
 10.167   5.7577
 10.147   5.8710
 10.127   5.7886
 10.108   5.8710
 10.088   5.9328
 10.068   6.0358
 10.049   6.1800
 10.029   6.3654
 10.010   6.3860
  9.991   6.4272
  9.972   6.5199
  9.952   6.7465
  9.933   6.7980
  9.914   6.7465
  9.895   6.7877
  9.877   6.8186
  9.858   6.7774
  9.839   6.9628
  9.821   7.0452
  9.802   7.0246
  9.783   7.0761
  9.765   7.2203
  9.747   7.2821
  9.728   7.4881
  9.710   7.7044
  9.692   7.9722
  9.674   8.1473
  9.656   8.2915
  9.638   8.3533
  9.620   8.4563
  9.602   8.5284
  9.585   8.6726
  9.567   8.7447
  9.549   8.9404
  9.532   9.1155
  9.514   9.2391
  9.497   9.2803
  9.479   9.5069
  9.462   9.7129
  9.445  10.0322
  9.428  10.3824
  9.411  10.7841
  9.394  11.2270
  9.377  11.7523
  9.360  12.3291
  9.343  12.8750
  9.326  13.3385
  9.309  13.7711
  9.293  13.9153
  9.276  13.9462
  9.259  13.7917
  9.243  13.6990
  9.226  13.6578
  9.210  13.6372
  9.194  13.5651
  9.178  13.4724
  9.161  13.3076
  9.145  13.2046
  9.129  13.0089
  9.113  12.8029
  9.097  12.6690
  9.081  12.6793
  9.065  12.5351
  9.049  12.3394
  9.034  12.1849
  9.018  12.0613
  9.002  11.9892
  8.987  11.8759
  8.971  11.6802
  8.956  11.6493
  8.940  11.6596
  8.925  11.6287
  8.909  11.5463
  8.894  11.5463
  8.879  11.4330
  8.864  11.3609
  8.849  11.2682
  8.834  11.1858
  8.819  11.0828
  8.804  10.9695
  8.789  10.8356
  8.774  10.8356
  8.759  10.7223
  8.744  10.5369
  8.730  10.4236
  8.715  10.4648
  8.700  10.3412
  8.686  10.1867
  8.671   9.9910
  8.657   9.7644
  8.642   9.2597
  8.628   8.7550
  8.614   8.5078
  8.599   8.7550
  8.585   9.2803
  8.571   9.8365
  8.557  10.1249
  8.543  10.4030
  8.529  10.6811
  8.515  10.8768
  8.501  10.9592
  8.487  11.0004
  8.473  10.9489
  8.459  10.9077
  8.445  10.8665
  8.431  10.9901
  8.418  11.0519
  8.404  11.1240
  8.391  11.1755
  8.377  11.3403
  8.363  11.4433
  8.350  11.5772
  8.337  11.6802
  8.323  11.8038
  8.310  11.8862
  8.297  11.9995
  8.283  12.1849
  8.270  12.4321
  8.257  12.5969
  8.244  12.7514
  8.231  12.8544
  8.218  12.9883
  8.205  13.0192
  8.192  12.9574
  8.179  12.8750
  8.166  12.7514
  8.153  12.4321
  8.140  11.9068
  8.128  11.2476
  8.115  10.5163
  8.102   9.8159
  8.090   9.1876
  8.077   8.5593
  8.064   7.9310
  8.052   7.3027
  8.039   6.7465
  8.027   6.2521
  8.015   5.9122
  8.002   5.5105
  7.990   5.0985
  7.978   4.7586
  7.965   4.5217
  7.953   4.1818
  7.941   3.8419
  7.929   3.5947
  7.917   3.3887
  7.905   3.1724
  7.893   2.9767
  7.881   2.7398
  7.869   2.6059
  7.857   2.4411
  7.845   2.3072
  7.833   2.1939
  7.821   2.1115
  7.809   2.0188
  7.798   1.9673
  7.786   1.9158
  7.774   1.8849
  7.763   1.7922
  7.751   1.7716
  7.739   1.7304
  7.728   1.6789
  7.716   1.6068
  7.705   1.5759
  7.694   1.5759
  7.682   1.5450
  7.671   1.4729
  7.659   1.4523
  7.648   1.4111
  7.637   1.3905
  7.626   1.3905
  7.614   1.3699
  7.603   1.2875
  7.592   1.2978
  7.581   1.2154
  7.570   1.1742
  7.559   1.1845
  7.548   1.1845
  7.537   1.1845
  7.526   1.2154
  7.515   1.1536
  7.504   1.1330
  7.493   1.1536
  7.483   1.1742
  7.472   1.1639
  7.461   1.1639
  7.450   1.1330
  7.440   1.0918
  7.429   1.0403
  7.418   1.1021
  7.408   1.1330
  7.397   1.1330
  7.387   1.1330
  7.376   1.1330
  7.366   1.0815
  7.355   1.1227
  7.345   1.1021
  7.334   1.1021
  7.324   1.0712
  7.314   1.0815
  7.303   1.1227
  7.293   1.1845
  7.283   1.1948
  7.273   1.1948
  7.263   1.1021
  7.252   1.1227
  7.242   1.1742
  7.232   1.1948
  7.222   1.1742
  7.212   1.2051
  7.202   1.2051
  7.192   1.2875
  7.182   1.3184
  7.172   1.2360
  7.162   1.2051
  7.152   1.2772
  7.143   1.3081
  7.133   1.2978
  7.123   1.2875
  7.113   1.3493
  7.103   1.3596
  7.094   1.3596
  7.084   1.3390
  7.074   1.3184
  7.065   1.2772
  7.055   1.3081
  7.046   1.4008
  7.036   1.4729
  7.026   1.4214
  7.017   1.3905
  7.007   1.4317
  6.998   1.5244
  6.989   1.5038
  6.979   1.4729
  6.970   1.4935
  6.960   1.5450
  6.951   1.4935
  6.942   1.4626
  6.932   1.5553
  6.923   1.6480
  6.914   1.6171
  6.905   1.6274
  6.896   1.5965
  6.886   1.6068
  6.877   1.5965
  6.868   1.6068
  6.859   1.5862
  6.850   1.5553
  6.841   1.5553
  6.832   1.6274
  6.823   1.6171
  6.814   1.6171
  6.805   1.6068
  6.796   1.6171
  6.787   1.6068
  6.778   1.6995
  6.770   1.7304
  6.761   1.7201
  6.752   1.6583
  6.743   1.6171
  6.734   1.6171
  6.726   1.6686
  6.717   1.6583
  6.708   1.6583
  6.700   1.6789
  6.691   1.6995
  6.682   1.7304
  6.674   1.7510
  6.665   1.7407
  6.657   1.7922
  6.648   1.7716
  6.640   1.7098
  6.631   1.7201
  6.623   1.7613
  6.614   1.7510
  6.606   1.7922
  6.597   1.7922
  6.589   1.7716
  6.581   1.7201
  6.572   1.7201
  6.564   1.7510
  6.556   1.8025
  6.547   1.8231
  6.539   1.8128
  6.531   1.7613
  6.523   1.7819
  6.514   1.8128
  6.506   1.8334
  6.498   1.8334
  6.490   1.9055
  6.482   1.9673
  6.474   1.9982
  6.466   2.0600
  6.458   2.1115
  6.450   2.0909
  6.442   2.0497
  6.434   2.0188
  6.426   2.0806
  6.418   2.1321
  6.410   2.1115
  6.402   2.0806
  6.394   2.1115
  6.386   2.0909
  6.378   2.0703
  6.370   2.0497
  6.363   2.1012
  6.355   2.0703
  6.347   2.0394
  6.339   1.9982
  6.332   1.9776
  6.324   1.9776
  6.316   1.9982
  6.308   1.9982
  6.301   1.9570
  6.293   1.8952
  6.286   1.8540
  6.278   1.7819
  6.270   1.7819
  6.263   1.7922
  6.255   1.7201
  6.248   1.6892
  6.240   1.7304
  6.233   1.7201
  6.225   1.7510
  6.218   1.7407
  6.210   1.7510
  6.203   1.7613
  6.195   1.7716
  6.188   1.7510
  6.181   1.7510
  6.173   1.6686
  6.166   1.6892
  6.159   1.7716
  6.151   1.7613
  6.144   1.7613
  6.137   1.8334
  6.130   1.8849
  6.122   1.9055
  6.115   1.8643
  6.108   1.9055
  6.101   1.9261
  6.094   1.9879
  6.086   2.0085
  6.079   1.9673
  6.072   1.9570
  6.065   1.9879
  6.058   2.0703
  6.051   2.1218
  6.044   2.0806
  6.037   2.0806
  6.030   2.0806
  6.023   2.1012
  6.016   2.1115
  6.009   2.0909
  6.002   2.0394
  5.995   2.1321
  5.988   2.1630
  5.981   2.1424
  5.974   2.1218
  5.967   2.0806
  5.960   2.0497
  5.954   2.1012
  5.947   2.0909
  5.940   2.0394
  5.933   2.0291
  5.926   2.0703
  5.920   2.0909
  5.913   2.1424
  5.906   2.1939
  5.899   2.2454
  5.893   2.2557
  5.886   2.3175
  5.879   2.4102
  5.873   2.4720
  5.866   2.4720
  5.859   2.4926
  5.853   2.5029
  5.846   2.5750
  5.840   2.6471
  5.833   2.6780
  5.827   2.6883
  5.820   2.6986
  5.813   2.7295
  5.807   2.7913
  5.800   2.8428
  5.794   2.8428
  5.788   2.8325
  5.781   2.8531
  5.775   2.8943
  5.768   2.9870
  5.762   3.0282
  5.755   3.0076
  5.749   3.0179
  5.743   3.0488
  5.736   3.0694
  5.730   3.1003
  5.724   3.0900
  5.717   3.0900
  5.711   3.1003
  5.705   3.1621
  5.698   3.1827
  5.692   3.1621
  5.686   3.1209
  5.680   3.1209
  5.674   3.0900
  5.667   3.0797
  5.661   3.0488
  5.655   2.9664
  5.649   2.9458
  5.643   2.9664
  5.637   2.9046
  5.630   2.8531
  5.624   2.8016
  5.618   2.7501
  5.612   2.7398
  5.606   2.7398
  5.600   2.7192
  5.594   2.7192
  5.588   2.7192
  5.582   2.7295
  5.576   2.7501
  5.570   2.7604
  5.564   2.7398
  5.558   2.7604
  5.552   2.7913
  5.546   2.8222
  5.540   2.8634
  5.534   2.8840
  5.528   2.9149
  5.523   2.9664
  5.517   3.0179
  5.511   3.0694
  5.505   3.1312
  5.499   3.1930
  5.493   3.2651
  5.487   3.3475
  5.482   3.3372
  5.476   3.3166
  5.470   3.3681
  5.464   3.4402
  5.459   3.5020
  5.453   3.5638
  5.447   3.5226
  5.441   3.5020
  5.436   3.5226
  5.430   3.5123
  5.424   3.4814
  5.419   3.4505
  5.413   3.4093
  5.407   3.3475
  5.402   3.2857
  5.396   3.2033
  5.390   3.1209
  5.385   3.0591
  5.379   2.9870
  5.374   2.9458
  5.368   2.8943
  5.363   2.8531
  5.357   2.8325
  5.352   2.8016
  5.346   2.7295
  5.341   2.6986
  5.335   2.7707
  5.330   2.8634
  5.324   2.8737
  5.319   2.8634
  5.313   2.8634
  5.308   2.9149
  5.302   2.9252
  5.297   2.9355
  5.291   2.9355
  5.286   2.9458
  5.281   3.0076
  5.275   3.1209
  5.270   3.1724
  5.265   3.1518
  5.259   3.2239
  5.254   3.3372
  5.249   3.4402
  5.243   3.5638
  5.238   3.6359
  5.233   3.7183
  5.227   3.8419
  5.222   3.9964
  5.217   4.0479
  5.212   4.0788
  5.206   4.1818
  5.201   4.3260
  5.196   4.3569
  5.191   4.3981
  5.186   4.4599
  5.180   4.4908
  5.175   4.4908
  5.170   4.4805
  5.165   4.4702
  5.160   4.4702
  5.155   4.5114
  5.150   4.5114
  5.145   4.4805
  5.139   4.5114
  5.134   4.5629
  5.129   4.5629
  5.124   4.5938
  5.119   4.6247
  5.114   4.6247
  5.109   4.6453
  5.104   4.6659
  5.099   4.6968
  5.094   4.6865
  5.089   4.6556
  5.084   4.6453
  5.079   4.5732
  5.074   4.4908
  5.069   4.4393
  5.064   4.4599
  5.059   4.5629
  5.054   4.5938
  5.049   4.5732
  5.044   4.5629
  5.040   4.5526
  5.035   4.5835
  5.030   4.5732
  5.025   4.5526
  5.020   4.5629
  5.015   4.5423
  5.010   4.5320
  5.005   4.5423
  5.001   4.5732
  4.996   4.6556
  4.991   4.7277
  4.986   4.7586
  4.981   4.8513
  4.977   4.9646
  4.972   5.1088
  4.967   5.2118
  4.962   5.3560
  4.958   5.5414
  4.953   5.6650
  4.948   5.7268
  4.943   5.8504
  4.939   5.9122
  4.934   5.9431
  4.929   6.0255
  4.925   6.1285
  4.920   6.2109
  4.915   6.3345
  4.911   6.5199
  4.906   6.7774
  4.901   7.0349
  4.897   7.3233
  4.892   7.6632
  4.888   7.9619
  4.883   8.2400
  4.878   8.5078
  4.874   8.7859
  4.869   8.9404
  4.865   9.1155
  4.860   9.3524
  4.856   9.5378
  4.851   9.7026
  4.846   9.9086
  4.842  10.0528
  4.837  10.1661
  4.833  10.2382
  4.828  10.2691
  4.824  10.3618
  4.819  10.4751
  4.815  10.5575
  4.810  10.6708
  4.806  10.8047
  4.802  10.8459
  4.797  10.9283
  4.793  10.9592
  4.788  10.9489
  4.784  11.0004
  4.779  11.0416
  4.775  11.0931
  4.771  11.1343
  4.766  11.2579
  4.762  11.3506
  4.758  11.4330
  4.753  11.5257
  4.749  11.5772
  4.744  11.6802
  4.740  11.7523
  4.736  11.7729
  4.731  11.8141
  4.727  11.8450
  4.723  11.8450
  4.719  11.8759
  4.714  11.9171
  4.710  12.0098
  4.706  12.0510
  4.701  11.9995
  4.697  11.9377
  4.693  11.8553
  4.689  11.7626
  4.684  11.6905
  4.680  11.6905
  4.676  11.7420
  4.672  11.8347
  4.668  11.9480
  4.663  12.0819
  4.659  12.2261
  4.655  12.3085
  4.651  12.4321
  4.647  12.6175
  4.643  12.8338
  4.638  12.9986
  4.634  13.2355
  4.630  13.4415
  4.626  13.5136
  4.622  13.5239
  4.618  13.6166
  4.614  13.7814
  4.610  13.9359
  4.605  14.0492
  4.601  14.1625
  4.597  14.3273
  4.593  14.4097
  4.589  14.4818
  4.585  14.5642
  4.581  14.6775
  4.577  14.6981
  4.573  14.7908
  4.569  14.9144
  4.565  14.9762
  4.561  14.9865
  4.557  15.0380
  4.553  15.1307
  4.549  15.1513
  4.545  15.1410
  4.541  15.1204
  4.537  15.0792
  4.533  15.0792
  4.529  15.0277
  4.525  14.9453
  4.521  14.8526
  4.517  14.7908
  4.513  14.7290
  4.509  14.6363
  4.505  14.4612
  4.502  14.2449
  4.498  14.1007
  4.494  14.0389
  4.490  14.0595
  4.486  14.0904
  4.482  14.0492
  4.478  13.9359
  4.474  13.9256
  4.470  14.0080
  4.467  14.0492
  4.463  14.0904
  4.459  14.2243
  4.455  14.4097
  4.451  14.5436
  4.447  14.7187
  4.444  14.9144
  4.440  15.0895
  4.436  15.1719
  4.432  15.2028
  4.428  15.3058
  4.425  15.5324
  4.421  15.7075
  4.417  15.8311
  4.413  15.9959
  4.410  16.1504
  4.406  16.3049
  4.402  16.5418
  4.398  16.7169
  4.395  16.8714
  4.391  17.0877
  4.387  17.3555
  4.384  17.5512
  4.380  17.7778
  4.376  17.9220
  4.372  18.0868
  4.369  18.3237
  4.365  18.5709
  4.361  18.7666
  4.358  18.9314
  4.354  19.0756
  4.350  19.2507
  4.347  19.4464
  4.343  19.6421
  4.340  19.7760
  4.336  19.9820
  4.332  20.2189
  4.329  20.3528
  4.325  20.4249
  4.321  20.5382
  4.318  20.5794
  4.314  20.6309
  4.311  20.6412
  4.307  20.6721
  4.304  20.6824
  4.300  20.7957
  4.296  20.9090
  4.293  20.9090
  4.289  21.0017
  4.286  21.1768
  4.282  21.2592
  4.279  21.2901
  4.275  21.3725
  4.272  21.4961
  4.268  21.6300
  4.265  21.7639
  4.261  21.7639
  4.258  21.7845
  4.254  21.9596
  4.251  22.1244
  4.247  22.1862
  4.244  22.2583
  4.240  22.4025
  4.237  22.4437
  4.233  22.4849
  4.230  22.5364
  4.226  22.6188
  4.223  22.6909
  4.219  22.6703
  4.216  22.6703
  4.213  22.6806
  4.209  22.6497
  4.206  22.6497
  4.202  22.6600
  4.199  22.6703
  4.196  22.7218
  4.192  22.7939
  4.189  22.8660
  4.185  22.9793
  4.182  23.0411
  4.179  23.0823
  4.175  23.2059
  4.172  23.3604
  4.169  23.3501
  4.165  23.3810
  4.162  23.5458
  4.159  23.6591
  4.155  23.7312
  4.152  23.8342
  4.149  23.9475
  4.145  23.9578
  4.142  23.9269
  4.139  23.9681
  4.135  24.1123
  4.132  24.2359
  4.129  24.3389
  4.126  24.4213
  4.122  24.5243
  4.119  24.5140
  4.116  24.5449
  4.112  24.6891
  4.109  24.8745
  4.106  24.9363
  4.103  24.9363
  4.099  25.0393
  4.096  25.1114
  4.093  25.1629
  4.090  25.2041
  4.086  25.2556
  4.083  25.3586
  4.080  25.4719
  4.077  25.5440
  4.074  25.5440
  4.070  25.6573
  4.067  25.7809
  4.064  25.7088
  4.061  25.7397
  4.058  25.8118
  4.055  25.7912
  4.051  25.8324
  4.048  25.8427
  4.045  25.8530
  4.042  25.8633
  4.039  25.8942
  4.036  25.8736
  4.032  25.9045
  4.029  25.8633
  4.026  25.8530
  4.023  25.8633
  4.020  25.8633
  4.017  25.8221
  4.014  25.8839
  4.011  25.9663
  4.008  25.9457
  4.004  25.9457
  4.001  25.9869
  3.998  25.9972
  3.995  25.9663
  3.992  25.9251
  3.989  25.9663
  3.986  26.0281
  3.983  26.1311
  3.980  26.1414
  3.977  26.2135
  3.974  26.2650
  3.971  26.2650
  3.968  26.2856
  3.965  26.3680
  3.962  26.5019
  3.959  26.5431
  3.956  26.5122
  3.953  26.5946
  3.950  26.7182
  3.947  26.8624
  3.944  26.8933
  3.941  26.9654
  3.938  26.9757
  3.935  26.9654
  3.932  26.9551
  3.929  26.9551
  3.926  27.0169
  3.923  27.1405
  3.920  27.1611
  3.917  27.1302
  3.914  27.0787
  3.911  27.0684
  3.908  27.1096
  3.905  27.1199
  3.902  27.1920
  3.899  27.2126
  3.896  27.0993
  3.893  26.9860
  3.890  27.0272
  3.887  27.1508
  3.884  27.0581
  3.882  27.0169
  3.879  26.9757
  3.876  26.8933
  3.873  26.8624
  3.870  26.9139
  3.867  26.8315
  3.864  26.8521
  3.861  26.8727
  3.858  26.8109
  3.856  26.7903
  3.853  26.8315
  3.850  26.8006
  3.847  26.8006
  3.844  26.7594
  3.841  26.7800
  3.838  26.8315
  3.836  26.8418
  3.833  26.8109
  3.830  26.8006
  3.827  26.7903
  3.824  26.8521
  3.822  26.8830
  3.819  26.8521
  3.816  26.8418
  3.813  26.8727
  3.810  26.9139
  3.807  26.8830
  3.805  26.8212
  3.802  26.7491
  3.799  26.7285
  3.796  26.7594
  3.794  26.7388
  3.791  26.7182
  3.788  26.7182
  3.785  26.6976
  3.782  26.6358
  3.780  26.5637
  3.777  26.4916
  3.774  26.4710
  3.771  26.3886
  3.769  26.3268
  3.766  26.3165
  3.763  26.3165
  3.761  26.2650
  3.758  26.1517
  3.755  26.0796
  3.752  26.1105
  3.750  26.1002
  3.747  26.0075
  3.744  25.8839
  3.742  25.7294
  3.739  25.7294
  3.736  25.8427
  3.733  25.8530
  3.731  25.7706
  3.728  25.7191
  3.725  25.6573
  3.723  25.5749
  3.720  25.5852
  3.717  25.6676
  3.715  25.7500
  3.712  25.6779
  3.709  25.6470
  3.707  25.5852
  3.704  25.5646
  3.702  25.5234
  3.699  25.5749
  3.696  25.5749
  3.694  25.5749
  3.691  25.5543
  3.688  25.5852
  3.686  25.6573
  3.683  25.6367
  3.680  25.5543
  3.678  25.6161
  3.675  25.5646
  3.673  25.3586
  3.670  25.2968
  3.667  25.3895
  3.665  25.4410
  3.662  25.3586
  3.660  25.1938
  3.657  25.2041
  3.655  25.2247
  3.652  25.1835
  3.649  25.1320
  3.647  25.1114
  3.644  25.0290
  3.642  24.8951
  3.639  24.7509
  3.637  24.6994
  3.634  24.6376
  3.632  24.6582
  3.629  24.6479
  3.626  24.6994
  3.624  24.6376
  3.621  24.5861
  3.619  24.4728
  3.616  24.4007
  3.614  24.3492
  3.611  24.2977
  3.609  24.0917
  3.606  23.9990
  3.604  23.9681
  3.601  23.8857
  3.599  23.8239
  3.596  23.7827
  3.594  23.6900
  3.591  23.5973
  3.589  23.4634
  3.586  23.3913
  3.584  23.3398
  3.581  23.2883
  3.579  23.1029
  3.576  23.0102
  3.574  22.9896
  3.571  22.9793
  3.569  22.9381
  3.567  22.7836
  3.564  22.6394
  3.562  22.5570
  3.559  22.4231
  3.557  22.4437
  3.554  22.4025
  3.552  22.2686
  3.549  22.1553
  3.547  22.1759
  3.545  22.0214
  3.542  21.8566
  3.540  21.6712
  3.537  21.6197
  3.535  21.5579
  3.533  21.5064
  3.530  21.4755
  3.528  21.3828
  3.525  21.2798
  3.523  21.3313
  3.521  21.1768
  3.518  20.9914
  3.516  20.8987
  3.513  20.7957
  3.511  20.5897
  3.509  20.4249
  3.506  20.3631
  3.504  20.4043
  3.502  20.3219
  3.499  20.1983
  3.497  20.1571
  3.494  20.2395
  3.492  20.3116
  3.490  20.2910
  3.487  20.0747
  3.485  19.9820
  3.483  20.0129
  3.480  19.9923
  3.478  19.9511
  3.476  19.9614
  3.473  19.8996
  3.471  19.8378
  3.469  19.8069
  3.466  19.7657
  3.464  19.7142
  3.462  19.7039
  3.460  19.6627
  3.457  19.5803
  3.455  19.4464
  3.453  19.3537
  3.450  19.3022
  3.448  19.2610
  3.446  19.1786
  3.443  19.0241
  3.441  18.9623
  3.439  18.9520
  3.437  18.7563
  3.434  18.6224
  3.432  18.5297
  3.430  18.4782
  3.428  18.3855
  3.425  18.2310
  3.423  18.0044
  3.421  17.8396
  3.418  17.6954
  3.416  17.5718
  3.414  17.4688
  3.412  17.4997
  3.409  17.5512
  3.407  17.5409
  3.405  17.4276
  3.403  17.4070
  3.401  17.2731
  3.398  17.2319
  3.396  17.3452
  3.394  17.4173
  3.392  17.2628
  3.389  17.1083
  3.387  17.1083
  3.385  17.1083
  3.383  16.9744
  3.381  16.8405
  3.378  16.7478
  3.376  16.7684
  3.374  16.7684
  3.372  16.7478
  3.370  16.6757
  3.367  16.6551
  3.365  16.7066
  3.363  16.6242
  3.361  16.5212
  3.359  16.4800
  3.357  16.4182
  3.354  16.3976
  3.352  16.3564
  3.350  16.3358
  3.348  16.1916
  3.346  16.1401
  3.344  16.1813
  3.341  16.1298
  3.339  16.0474
  3.337  16.0165
  3.335  15.8929
  3.333  15.8517
  3.331  15.8517
  3.329  15.8517
  3.326  15.7281
  3.324  15.6354
  3.322  15.5633
  3.320  15.5530
  3.318  15.5530
  3.316  15.5221
  3.314  15.3779
  3.312  15.2852
  3.309  15.2646
  3.307  15.2337
  3.305  15.1101
  3.303  14.9865
  3.301  14.9556
  3.299  14.9350
  3.297  14.8320
  3.295  14.8011
  3.293  14.7805
  3.291  14.7187
  3.288  14.6466
  3.286  14.5951
  3.284  14.5024
  3.282  14.3891
  3.280  14.2964
  3.278  14.2346
  3.276  14.2346
  3.274  14.2346
  3.272  14.1522
  3.270  14.0698
  3.268  13.9668
  3.266  13.9462
  3.264  13.8947
  3.262  13.8741
  3.259  13.7196
  3.257  13.5857
  3.255  13.4930
  3.253  13.5857
  3.251  13.5754
  3.249  13.6269
  3.247  13.6269
  3.245  13.5651
  3.243  13.4312
  3.241  13.3797
  3.239  13.3282
  3.237  13.1531
  3.235  13.0810
  3.233  13.2046
  3.231  13.1943
  3.229  13.1634
  3.227  13.0604
  3.225  12.9780
  3.223  12.8750
  3.221  12.9162
  3.219  12.8647
  3.217  12.8029
  3.215  12.6999
  3.213  12.6278
  3.211  12.6278
  3.209  12.6381
  3.207  12.5660
  3.205  12.5145
  3.203  12.4012
  3.201  12.4321
  3.199  12.4733
  3.197  12.4012
  3.195  12.2055
  3.193  12.0613
  3.191  11.9995
  3.189  12.2158
  3.187  12.2055
  3.185  11.9995
  3.183  11.8450
  3.182  11.7729
  3.180  11.7214
  3.178  11.7111
  3.176  11.6184
  3.174  11.5772
  3.172  11.5257
  3.170  11.4639
  3.168  11.3506
  3.166  11.3712
  3.164  11.3300
  3.162  11.2373
  3.160  11.2785
  3.158  11.2785
  3.156  11.0416
  3.154  10.8871
  3.152  10.7223
  3.151  10.7944
  3.149  10.8356
  3.147  10.7841
  3.145  10.6811
  3.143  10.6605
  3.141  10.6090
  3.139  10.6502
  3.137  10.6090
  3.135  10.5266
  3.133  10.3824
  3.132  10.3515
  3.130  10.2794
  3.128  10.1146
  3.126   9.9395
  3.124   9.9189
  3.122   9.9498
  3.120   9.9704
  3.118   9.9601
  3.117   9.9086
  3.115   9.7541
  3.113   9.7129
  3.111   9.6614
  3.109   9.6511
  3.107   9.6305
  3.105   9.5378
  3.103   9.4966
  3.102   9.5481
  3.100   9.5687
  3.098   9.5996
  3.096   9.4863
  3.094   9.4142
  3.092   9.3215
  3.091   9.2700
  3.089   9.2288
  3.087   9.1773
  3.085   9.1773
  3.083   9.1670
  3.081   9.1052
  3.079   9.0537
  3.078   8.9198
  3.076   8.9198
  3.074   9.0434
  3.072   9.1567
  3.070   9.1773
  3.069   9.0537
  3.067   8.7859
  3.065   8.8065
  3.063   8.8992
  3.061   8.8786
  3.060   8.8374
  3.058   8.8580
  3.056   8.8168
  3.054   8.9301
  3.052   8.9507
  3.051   8.7550
  3.049   8.6005
  3.047   8.7035
  3.045   8.7138
  3.043   8.6829
  3.042   8.5387
  3.040   8.4872
  3.038   8.6726
  3.036   8.7962
  3.034   8.6932
  3.033   8.7241
  3.031   8.6829
  3.029   8.6005
  3.027   8.5593
  3.026   8.5181
  3.024   8.5902
  3.022   8.7550
  3.020   8.7138
  3.019   8.6829
  3.017   8.5387
  3.015   8.4254
  3.013   8.3636
  3.012   8.4563
  3.010   8.4357
  3.008   8.3327
  3.006   8.3636
  3.005   8.5387
  3.003   8.5696
  3.001   8.5799
  2.999   8.5696
  2.998   8.4975
  2.996   8.4563
  2.994   8.3636
  2.992   8.3842
  2.991   8.5284
  2.989   8.4048
  2.987   8.2400
  2.986   8.2091
  2.984   8.3224
  2.982   8.1988
  2.980   8.1782
  2.979   8.1988
  2.977   8.3121
  2.975   8.3945
  2.974   8.4048
  2.972   8.2709
  2.970   8.2606
  2.968   8.1885
  2.967   8.1576
  2.965   8.1576
  2.963   8.2915
  2.962   8.2091
  2.960   7.8486
  2.958   7.6941
  2.957   7.9207
  2.955   8.0134
  2.953   8.0546
  2.952   8.0752
  2.950   8.1988
  2.948   8.1164
  2.947   7.9310
  2.945   7.8074
  2.943   7.7559
  2.942   7.6632
  2.940   7.8280
  2.938   7.8486
  2.937   7.7559
  2.935   7.6735
  2.933   7.7147
  2.932   7.7868
  2.930   7.9001
  2.928   7.8589
  2.927   7.7765
  2.925   7.8898
  2.923   8.0031
  2.922   7.9413
  2.920   8.1267
  2.918   8.1885
  2.917   8.1473
  2.915   7.9310
  2.913   7.9104
  2.912   7.9928
  2.910   8.0649
  2.909   8.2297
  2.907   8.4666
  2.905   8.4563
  2.904   8.5902
  2.902   8.6520
  2.900   8.4872
  2.899   8.4254
  2.897   8.4666
  2.896   8.4254
  2.894   8.5593
  2.892   8.5181
  2.891   8.5902
  2.889   8.4357
  2.887   8.3327
  2.886   8.4769
  2.884   8.5181
  2.883   8.4769
  2.881   8.5284
  2.879   8.3739
  2.878   8.2400
  2.876   8.4872
  2.875   8.7138
  2.873   8.6211
  2.871   8.6211
  2.870   8.4460
  2.868   8.4563
  2.867   8.4975
  2.865   8.5078
  2.864   8.4357
  2.862   8.3533
  2.860   8.4151
  2.859   8.4975
  2.857   8.5696
  2.856   8.7344
  2.854   8.7859
  2.853   8.7550
  2.851   8.8374
  2.849   8.7859
  2.848   8.4357
  2.846   8.4151
  2.845   8.4666
  2.843   8.6108
  2.842   8.6726
  2.840   8.7138
  2.838   8.7035
  2.837   8.4048
  2.835   8.1267
  2.834   8.2503
  2.832   8.5490
  2.831   8.5902
  2.829   8.3224
  2.828   8.2503
  2.826   7.9619
  2.825   7.9516
  2.823   8.3224
  2.821   8.3430
  2.820   8.0855
  2.818   8.1164
  2.817   8.1473
  2.815   8.0443
  2.814   7.8383
  2.812   7.8589
  2.811   7.7971
  2.809   7.6426
  2.808   7.5602
  2.806   7.5808
  2.805   7.4263
  2.803   7.3851
  2.802   7.3233
  2.800   7.3645
  2.799   7.3542
  2.797   7.2615
  2.796   7.1688
  2.794   7.2512
  2.793   7.1276
  2.791   6.8804
  2.790   6.8289
  2.788   6.7362
  2.787   6.6229
  2.785   6.6641
  2.784   6.6538
  2.782   6.4169
  2.781   5.9740
  2.779   5.9431
  2.778   5.9843
  2.776   5.7886
  2.775   5.5826
  2.773   5.4281
  2.772   5.6444
  2.770   5.7680
  2.769   5.5517
  2.767   5.6135
  2.766   5.7062
  2.764   5.3766
  2.763   5.0779
  2.761   4.8822
  2.760   4.8410
  2.758   5.0470
  2.757   5.2015
  2.756   5.2015
  2.754   5.1603
  2.753   5.5105
  2.751   5.7680
  2.750   5.9637
  2.748   6.0358
  2.747   6.0770
  2.745   6.0976
  2.744   6.0873
  2.742   5.9637
  2.741   6.1079
  2.740   6.3757
  2.738   6.4581
  2.737   6.4581
  2.735   6.7053
  2.734   6.6229
  2.732   6.6847
  2.731   6.8392
  2.729   7.0967
  2.728   7.4160
  2.727   7.6632
  2.725   7.9310
  2.724   8.1061
  2.722   8.4872
  2.721   9.0640
  2.719   9.5790
  2.718   9.7438
  2.717   9.7335
  2.715  10.0837
  2.714  10.3000
  2.712  10.2279
  2.711  10.1249
  2.709   9.8159
  2.708   9.7644
  2.707   9.8983
  2.705   9.7129
  2.704   9.5790
  2.702   9.6923
  2.701  10.1352
  2.700  10.7326
  2.698  11.2785
  2.697  12.2261
  2.695  13.3282
  2.694  14.4509
  2.693  15.6457
  2.691  17.0259
  2.690  18.6224
  2.688  20.0850
  2.687  21.4858
  2.686  22.8454
  2.684  24.0814
  2.683  24.9363
  2.681  25.5955
  2.680  26.6255
  2.679  27.4907
  2.677  28.0778
  2.676  28.8503
  2.675  29.6125
  2.673  30.1172
  2.672  30.4159
  2.670  30.8897
  2.669  31.5386
  2.668  32.0433
  2.666  32.3317
  2.665  32.9394
  2.664  33.4853
  2.662  33.9694
  2.661  34.1239
  2.659  34.2887
  2.658  34.9788
  2.657  35.4320
  2.655  35.1127
  2.654  35.1230
  2.653  35.5247
  2.651  35.9676
  2.650  36.2354
  2.649  36.5959
  2.647  36.6165
  2.646  36.4311
  2.645  36.6062
  2.643  37.1212
  2.642  37.3478
  2.640  37.4817
  2.639  37.3272
  2.638  37.5126
  2.636  37.5126
  2.635  37.5744
  2.634  37.9967
  2.632  38.3366
  2.631  37.8113
  2.630  37.8731
  2.628  38.1821
  2.627  38.0688
  2.626  38.0688
  2.624  38.5323
  2.623  38.5529
  2.622  38.5632
  2.620  38.5529
  2.619  38.5735
  2.618  38.5735
  2.617  38.7280
  2.615  38.9752
  2.614  39.0061
  2.613  39.0164
  2.611  39.3460
  2.610  39.4696
  2.609  39.1091
  2.607  38.9237
  2.606  39.2327
  2.605  39.4181
  2.603  39.4593
  2.602  39.3769
  2.601  39.3048
  2.599  39.2224
  2.598  39.4902
  2.597  39.8404
  2.596  40.0876
  2.594  39.9022
  2.593  39.9022
  2.592  40.0979
  2.590  40.1906
  2.589  39.9228
  2.588  40.0361
  2.586  40.2318
  2.585  40.2215
  2.584  40.1803
  2.583  40.4378
  2.581  40.6644
  2.580  40.7056
  2.579  40.7056
  2.577  40.8498
  2.576  40.7262
  2.575  40.9322
  2.574  41.0970
  2.572  41.1176
  2.571  41.0661
  2.570  40.9528
  2.569  40.8498
  2.567  40.9116
  2.566  40.9940
  2.565  41.6532
  2.563  41.7253
  2.562  41.4575
  2.561  41.4678
  2.560  41.7459
  2.558  42.0446
  2.557  41.8386
  2.556  41.7047
  2.555  42.0755
  2.553  41.8901
  2.552  41.6635
  2.551  41.5914
  2.550  41.4369
  2.548  41.3854
  2.547  41.7974
  2.546  42.2197
  2.545  42.4875
  2.543  42.2609
  2.542  42.1270
  2.541  42.2403
  2.540  42.5184
  2.538  42.4669
  2.537  42.1064
  2.536  41.8283
  2.535  42.0755
  2.533  42.4154
  2.532  42.5699
  2.531  42.6111
  2.530  42.6626
  2.528  42.4875
  2.527  42.4669
  2.526  42.3742
  2.525  42.4772
  2.524  42.5184
  2.522  42.4566
  2.521  42.6111
  2.520  42.8068
  2.519  42.8686
  2.517  42.7965
  2.516  42.7450
  2.515  42.6935
  2.514  42.3639
  2.513  42.4669
  2.511  42.4669
  2.510  42.3536
  2.509  42.6008
  2.508  42.8583
  2.506  42.9201
  2.505  42.8068
  2.504  42.5699
  2.503  42.7862
  2.502  42.8068
  2.500  42.3330
  2.497  42.3330
  2.493  42.1330
  2.489  42.3330
  2.485  42.3330
  2.481  42.5330
  2.477  42.4330
  2.473  42.6330
  2.469  42.5330
  2.465  42.6330
  2.461  42.6330
  2.457  42.6330
  2.453  42.9330
  2.449  43.0330
  2.445  43.1330
  2.441  43.5330
  2.437  43.6330
  2.433  43.8330
  2.429  44.2330
  2.425  44.5330
  2.421  44.6330
  2.417  44.7330
  2.413  44.9330
  2.409  45.2330
  2.405  45.7330
  2.401  45.9330
  2.397  46.2330
  2.393  46.3330
  2.389  46.4330
  2.385  46.5330
  2.381  46.5330
  2.377  46.7330
  2.373  46.5330
  2.369  46.8330
  2.365  46.7330
  2.361  46.7330
  2.357  46.9330
  2.353  46.9330
  2.349  46.9330
  2.345  47.3330
  2.341  47.4330
  2.337  47.5330
  2.333  47.9330
  2.329  48.0330
  2.325  48.5330
  2.321  48.6330
  2.317  49.0330
  2.313  49.5330
  2.309  49.7330
  2.305  50.2330
  2.301  51.1330
  2.297  50.9330
  2.293  51.1330
  2.289  51.5330
  2.285  52.3330
  2.281  52.8330
  2.277  53.5330
  2.273  53.6330
  2.269  53.9330
  2.265  54.0330
  2.261  53.9330
  2.257  53.7330
  2.253  53.6330
  2.249  53.5330
  2.245  53.4330
  2.241  53.0330
  2.237  52.6330
  2.233  52.3330
  2.229  51.9330
  2.225  51.4330
  2.221  50.8330
  2.217  50.3330
  2.213  50.3330
  2.209  50.4330
  2.205  50.8330
  2.201  51.3330
  2.197  52.2330
  2.193  53.0330
  2.189  53.7330
  2.185  54.6330
  2.181  55.4330
  2.177  56.1330
  2.173  56.9330
  2.169  57.8330
  2.165  58.5330
  2.161  59.1330
  2.157  59.5330
  2.153  60.3330
  2.149  60.8330
  2.145  61.2330
  2.141  61.7330
  2.137  62.0330
  2.133  62.0330
  2.129  62.3330
  2.125  62.2330
  2.121  62.4330
  2.117  62.9330
  2.113  63.0330
  2.109  63.1330
  2.105  63.3330
  2.101  63.4330
  2.097  63.8330
  2.093  64.0330
  2.089  63.9330
  2.085  64.0330
  2.081  64.0330
  2.077  64.1330
  2.073  63.9330
  2.069  63.5330
  2.065  63.4330
  2.061  63.0330
  2.057  62.8330
  2.053  62.9330
  2.049  62.9330
  2.045  62.8330
  2.041  62.5330
  2.037  62.3330
  2.033  62.0330
  2.029  61.9330
  2.025  61.4330
  2.021  61.3330
  2.017  61.1330
  2.013  60.7330
  2.009  60.1330
  2.005  59.5330
  2.001  59.4330
  1.997  59.0330
  1.993  58.6330
  1.989  58.4330
  1.985  58.3330
  1.981  58.0330
  1.977  57.5330
  1.973  57.0330
  1.969  56.8330
  1.965  56.5330
  1.961  56.3330
  1.957  55.4330
  1.953  54.7330
  1.949  54.1330
  1.945  53.7330
  1.941  53.5330
  1.937  53.1330
  1.933  52.5330
  1.929  52.3330
  1.925  51.9330
  1.921  51.8330
  1.917  51.8330
  1.913  51.9330
  1.909  52.4330
  1.905  53.1330
  1.901  54.3330
  1.897  55.9330
  1.893  58.1330
  1.889  60.0330
  1.885  61.2330
  1.881  63.5330
  1.877  65.7330
  1.873  66.8330
  1.869  67.3330
  1.865  68.3330
  1.861  69.5330
  1.857  70.6330
  1.853  71.7330
  1.849  72.2330
  1.845  72.5330
  1.841  72.9330
  1.837  73.2330
  1.833  72.9330
  1.829  73.2330
  1.825  73.4330
  1.821  73.0330
  1.817  73.4330
  1.813  73.0330
  1.809  73.2330
  1.805  73.5330
  1.801  73.6330
  1.797  73.5330
  1.793  74.0330
  1.789  74.4330
  1.785  74.5330
  1.781  74.9330
  1.777  75.2330
  1.773  75.6330
  1.769  75.6330
  1.765  75.8330
  1.761  75.8330
  1.757  74.5330
  1.753  74.0330
  1.749  74.3330
  1.745  74.7330
  1.741  74.5330
  1.737  74.4330
  1.733  74.5330
  1.729  75.2330
  1.725  74.3330
  1.721  73.5330
  1.717  73.9330
  1.713  74.0330
  1.709  74.3330
  1.705  74.9330
  1.701  75.1330
  1.697  75.4330
  1.693  75.0330
  1.689  74.9330
  1.685  75.2330
  1.681  75.1330
  1.677  75.0330
  1.673  75.2330
  1.669  75.5330
  1.665  75.5330
  1.661  75.0330
  1.657  75.0330
  1.653  75.5330
  1.649  76.1330
  1.645  76.2330
  1.641  76.3330
  1.637  74.9330
  1.633  74.6330
  1.629  74.7330
  1.625  75.0330
  1.621  74.9330
  1.617  74.9330
  1.613  74.7330
  1.609  74.9330
  1.605  74.9330
  1.601  74.9330
  1.597  74.7330
  1.593  74.9330
  1.589  74.6330
  1.585  74.7330
  1.581  74.6330
  1.577  74.3330
  1.573  74.5330
  1.569  74.5330
  1.565  74.5330
  1.561  74.4330
  1.557  74.0330
  1.553  73.8330
  1.549  73.4330
  1.545  73.3330
  1.541  73.5330
  1.537  73.2330
  1.533  73.0330
  1.529  72.9330
  1.525  72.3330
  1.521  72.3330
  1.517  72.2330
  1.513  71.9330
  1.509  71.9330
  1.505  71.7330
  1.501  71.1330
  1.497  70.8330
  1.493  70.7330
  1.489  70.6330
  1.485  70.5330
  1.481  70.1330
  1.477  69.7330
  1.473  69.4330
  1.469  69.2330
  1.465  68.9330
  1.461  68.5330
  1.457  68.4330
  1.453  68.3330
  1.449  68.0330
  1.445  67.8330
  1.441  67.3330
  1.437  66.6330
  1.433  66.2330
  1.429  65.3330
  1.425  64.5330
  1.421  63.4330
  1.417  62.4330
  1.413  61.2330
  1.409  60.9330
  1.405  61.4330
  1.401  62.4330
  1.397  63.6330
  1.393  65.0330
  1.389  65.8330
  1.385  67.4330
  1.381  68.6330
  1.377  68.8330
  1.373  70.1330
  1.369  71.7330
  1.365  71.7330
  1.361  71.1330
  1.357  71.1330
  1.353  71.6330
  1.349  71.4330
  1.345  71.6330
  1.341  71.7330
  1.337  71.7330
  1.333  71.2330
  1.329  71.2330
  1.325  70.8330
  1.321  70.8330
  1.317  70.8330
  1.313  70.7330
  1.309  70.8330
  1.305  70.7330
  1.301  70.5330
  1.297  70.3330
  1.293  70.2330
  1.289  70.2330
  1.285  70.0330
  1.281  69.6330
  1.277  69.2330
  1.273  69.0330
  1.269  69.1330
  1.265  69.2330
  1.261  69.2330
  1.257  69.0330
  1.253  68.8330
  1.249  68.3330
  1.245  67.9330
  1.241  68.1330
  1.237  68.1330
  1.233  67.9330
  1.229  67.5330
  1.225  67.4330
  1.221  67.2330
  1.217  66.8330
  1.213  66.6330
  1.209  66.2330
  1.205  65.9330
  1.201  65.7330
  1.197  65.5330
  1.193  65.2330
  1.189  65.1330
  1.185  64.9330
  1.181  64.6330
  1.177  64.5330
  1.173  64.5330
  1.169  64.2330
  1.165  64.0330
  1.161  63.8330
  1.157  63.5330
  1.153  63.1330
  1.149  63.1330
  1.145  62.8330
  1.141  62.4330
  1.137  62.5330
  1.133  62.3330
  1.129  62.0330
  1.125  61.8330
  1.121  61.6330
  1.117  61.2330
  1.113  60.9330
  1.109  60.8330
  1.105  60.8330
  1.101  60.5330
  1.097  60.2330
  1.093  60.0330
  1.089  59.8330
  1.085  59.6330
  1.081  59.6330
  1.077  59.5330
  1.073  59.0330
  1.069  59.2330
  1.065  58.9330
  1.061  58.6330
  1.057  58.6330
  1.053  58.4330
  1.049  58.3330
  1.045  57.9330
  1.041  57.8330
  1.037  57.4330
  1.033  57.0330
  1.029  56.8330
  1.025  57.3330
  1.021  57.4330
  1.017  57.5330
  1.013  57.3330
  1.009  57.3330
  1.005  57.0330
  1.001  56.7330
  0.997  56.5330
  0.993  57.2330
  0.989  57.2330
  0.985  56.9330
  0.981  56.7330
  0.977  56.3330
  0.973  56.3330
  0.969  56.1330
  0.965  56.2330
  0.961  56.2330
  0.957  56.1330
  0.953  55.9330
  0.949  55.8330
  0.945  55.9330
  0.941  55.9330
  0.937  55.9330
  0.933  55.9330
  0.929  55.9330
  0.925  55.8330
  0.921  55.8330
  0.917  55.8330
  0.913  55.6330
  0.909  55.6330
  0.905  55.9330
  0.901  56.1330
  0.897  56.1330
  0.893  56.1330
  0.889  55.9330
  0.885  56.1330
  0.881  55.9330
  0.877  56.3330
  0.873  56.5330
  0.869  56.7330
  0.865  56.9330
  0.861  56.8330
  0.857  56.7330
  0.853  57.0330
  0.849  57.3330
  0.845  57.5330
  0.841  57.6330
  0.837  57.9330
  0.833  58.1330
  0.829  58.1330
  0.825  57.9330
  0.821  58.3330
  0.817  58.5330
  0.813  58.7330
  0.809  59.2330
  0.805  59.1330
  0.804  59.7330
  0.803  59.7330
  0.802  59.5330
  0.801  59.7330
  0.800  59.7330
  0.799  59.6330
  0.798  59.6330
  0.797  59.7330
  0.796  60.1330
  0.795  59.7330
  0.794  59.8330
  0.793  59.8330
  0.792  59.8330
  0.791  60.0330
  0.790  59.8330
  0.789  59.7330
  0.788  60.0330
  0.787  59.8330
  0.786  59.7330
  0.785  59.8330
  0.784  59.7330
  0.783  60.1330
  0.782  60.1330
  0.781  59.8330
  0.780  59.8330
  0.779  60.0330
  0.778  60.0330
  0.777  60.2330
  0.776  60.3330
  0.775  60.3330
  0.774  60.1330
  0.773  60.3330
  0.772  60.0330
  0.771  60.0330
  0.770  60.0330
  0.769  60.1330
  0.768  60.1330
  0.767  60.3330
  0.766  60.1330
  0.765  59.7330
  0.764  59.7330
  0.763  59.4330
  0.762  59.4330
  0.761  59.5330
  0.760  59.5330
  0.759  59.5330
  0.758  59.4330
  0.757  59.6330
  0.756  59.6330
  0.755  59.5330
  0.754  59.5330
  0.753  59.6330
  0.752  59.5330
  0.751  59.2330
  0.750  59.0330
  0.749  59.5330
  0.748  59.6330
  0.747  59.2330
  0.746  59.4330
  0.745  59.0330
  0.744  59.0330
  0.743  59.1330
  0.742  59.1330
  0.741  58.9330
  0.740  58.6330
  0.739  59.1330
  0.738  59.2330
  0.737  59.2330
  0.736  59.1330
  0.735  59.1330
  0.734  59.4330
  0.733  58.5330
  0.732  57.9330
  0.731  58.3330
  0.730  58.4330
  0.729  58.3330
  0.728  58.1330
  0.727  58.3330
  0.726  58.1330
  0.725  58.0330
  0.724  57.8330
  0.723  57.9330
  0.722  57.9330
  0.721  58.1330
  0.720  58.1330
  0.719  58.0330
  0.718  57.9330
  0.717  57.5330
  0.716  57.3330
  0.715  57.2330
  0.714  57.9330
  0.713  58.1330
  0.712  58.3330
  0.711  57.5330
  0.710  57.0330
  0.709  56.8330
  0.708  56.9330
  0.707  57.0330
  0.706  56.9330
  0.705  56.9330
  0.704  56.9330
  0.703  55.4330
  0.702  55.3330
  0.701  55.4330
  0.700  55.6330
  0.699  55.4330
  0.698  55.2330
  0.697  55.3330
  0.696  55.2330
  0.695  55.1330
  0.694  55.1330
  0.693  55.2330
  0.692  55.1330
  0.691  55.1330
  0.690  55.1330
  0.689  55.0330
  0.688  55.0330
  0.687  55.1330
  0.686  55.1330
  0.685  55.1330
  0.684  55.2330
  0.683  55.3330
  0.682  55.3330
  0.681  55.3330
  0.680  55.1330
  0.679  55.3330
  0.678  55.3330
  0.677  54.8330
  0.676  54.3330
  0.675  54.7330
  0.674  54.3330
  0.673  54.2330
  0.672  54.2330
  0.671  54.2330
  0.670  54.3330
  0.669  54.0330
  0.668  54.3330
  0.667  54.5330
  0.666  54.6330
  0.665  54.6330
  0.664  54.5330
  0.663  54.5330
  0.662  54.7330
  0.661  54.7330
  0.660  54.2330
  0.659  53.9330
  0.658  54.0330
  0.657  54.3330
  0.656  53.9330
  0.655  54.0330
  0.654  54.0330
  0.653  53.9330
  0.652  53.7330
  0.651  53.6330
  0.650  53.9330
  0.649  54.0330
  0.648  53.7330
  0.647  53.5330
  0.646  53.6330
  0.645  53.9330
  0.644  53.9330
  0.643  53.9330
  0.642  53.9330
  0.641  54.0330
  0.640  53.9330
  0.639  53.9330
  0.638  53.9330
  0.637  54.0330
  0.636  54.0330
  0.635  54.1330
  0.634  54.0330
  0.633  53.5330
  0.632  53.4330
  0.631  53.4330
  0.630  53.1330
  0.629  53.0330
  0.628  53.0330
  0.627  53.3330
  0.626  53.5330
  0.625  53.4330
  0.624  53.1330
  0.623  53.3330
  0.622  53.1330
  0.621  53.3330
  0.620  53.1330
  0.619  53.3330
  0.618  53.1330
  0.617  53.3330
  0.616  53.0330
  0.615  53.1330
  0.614  53.3330
  0.613  53.0330
  0.612  53.0330
  0.611  52.8330
  0.610  52.5330
  0.609  52.5330
  0.608  52.6330
  0.607  52.4330
  0.606  52.3330
  0.605  52.3330
  0.604  52.3330
  0.603  52.3330
  0.602  52.0330
  0.601  51.9330
  0.600  51.9330
  0.599  51.9330
  0.598  51.8330
  0.597  51.3330
  0.596  51.2330
  0.595  51.7330
  0.594  51.9330
  0.593  51.9330
  0.592  51.5330
  0.591  51.2330
  0.590  51.1330
  0.589  50.9330
  0.588  51.2330
  0.587  51.3330
  0.586  51.1330
  0.585  50.9330
  0.584  50.6330
  0.583  50.3330
  0.582  51.2330
  0.581  51.1330
  0.580  51.3330
  0.579  51.2330
  0.578  51.1330
  0.577  50.9330
  0.576  50.6330
  0.575  50.1330
  0.574  50.0330
  0.573  50.0330
  0.572  50.1330
  0.571  50.1330
  0.570  50.0330
  0.569  49.7330
  0.568  49.7330
  0.567  49.5330
  0.566  49.3330
  0.565  49.3330
  0.564  49.1330
  0.563  50.7330
  0.562  50.7330
  0.561  50.6330
  0.560  50.6330
  0.559  50.4330
  0.558  50.0330
  0.557  49.7330
  0.556  49.5330
  0.555  49.3330
  0.554  49.1330
  0.553  49.0330
  0.552  48.5330
  0.551  48.7330
  0.550  48.5330
  0.549  48.4330
  0.548  47.6330
  0.547  47.6330
  0.546  47.4330
  0.545  47.1330
  0.544  47.0330
  0.543  46.5330
  0.542  46.5330
  0.541  46.2330
  0.540  46.3330
  0.539  46.0330
  0.538  45.7330
  0.537  45.3330
  0.536  45.3330
  0.535  44.9330
  0.534  44.5330
  0.533  44.6330
  0.532  44.3330
  0.531  44.3330
  0.530  44.2330
  0.529  44.1330
  0.528  44.0330
  0.527  43.6330
  0.526  43.2330
  0.525  43.2330
  0.524  43.0330
  0.523  42.9330
  0.522  43.0330
  0.521  42.8330
  0.520  42.3330
  0.519  42.1330
  0.518  42.3330
  0.517  41.8330
  0.516  41.5330
  0.515  41.5330
  0.514  41.3330
  0.513  41.2330
  0.512  41.2330
  0.511  41.2330
  0.510  40.9330
  0.509  40.6330
  0.508  40.4330
  0.507  40.2330
  0.506  39.9330
  0.505  39.7330
  0.504  39.7330
  0.503  39.8330
  0.502  39.8330
  0.501  39.6330
  0.500  39.1330
  0.499  38.7330
  0.498  38.7330
  0.497  38.8330
  0.496  38.6330
  0.495  38.5330
  0.494  38.2330
  0.493  38.0330
  0.492  38.1330
  0.491  38.1330
  0.490  38.1330
  0.489  38.0330
  0.488  37.9330
  0.487  37.7330
  0.486  37.5330
  0.485  37.7330
  0.484  37.5330
  0.483  37.3330
  0.482  37.3330
  0.481  37.5330
  0.480  37.6330
  0.479  37.6330
  0.478  37.9330
  0.477  37.5330
  0.476  37.6330
  0.475  37.5330
  0.474  37.4330
  0.473  37.6330
  0.472  37.5330
  0.471  37.5330
  0.470  37.5330
  0.469  37.4330
  0.468  37.6330
  0.467  37.6330
  0.466  37.7330
  0.465  37.6330
  0.464  37.9330
  0.463  37.7330
  0.462  37.7330
  0.461  37.5330
  0.460  37.4330
  0.459  37.6330
  0.458  37.5330
  0.457  37.4330
  0.456  37.3330
  0.455  37.3330
  0.454  37.1330
  0.453  37.0330
  0.452  36.6330
  0.451  36.9330
  0.450  36.6330
  0.449  37.0330
  0.448  37.0330
  0.447  36.9330
  0.446  36.5330
  0.445  36.8330
  0.444  36.8330
  0.443  36.6330
  0.442  36.4330
  0.441  36.0330
  0.440  36.3330
  0.439  36.0330
  0.438  36.0330
  0.437  35.9330
  0.436  35.7330
  0.435  35.7330
  0.434  35.5330
  0.433  35.4330
  0.432  35.4330
  0.431  35.2330
  0.430  35.2330
  0.429  35.1330
  0.428  35.1330
  0.427  34.9330
  0.426  34.9330
  0.425  34.8330
  0.424  34.7330
  0.423  34.7330
  0.422  34.7330
  0.421  34.4330
  0.420  34.4330
  0.419  34.4330
  0.418  34.4330
  0.417  34.3330
  0.416  34.3330
  0.415  34.2330
  0.414  34.3330
  0.413  34.2330
  0.412  34.2330
  0.411  34.2330
  0.410  34.0330
  0.409  34.1330
  0.408  34.0330
  0.407  34.0330
  0.406  33.8330
  0.405  33.6330
